signal
-0.045
-0.05
-0.06
-0.06
-0.06
-0.065
-0.065
-0.07
-0.075
-0.075
-0.075
-0.075
-0.075
-0.08
-0.085
-0.09
-0.09
-0.09
-0.1
-0.095
-0.105
-0.105
-0.115
-0.105
-0.12
-0.115
-0.125
-0.115
-0.135
-0.12
-0.145
-0.13
-0.15
-0.135
-0.16
-0.08
-0.065
-0.025
-0.025
-0.015
-0.015
-0.03
-0.15
-0.195
-0.235
-0.21
-0.24
-0.2
-0.23
-0.31
0.14
1.345
2.27
0.88
-0.01
-0.22
-0.155
-0.145
-0.18
-0.15
-0.175
-0.14
-0.15
-0.11
-0.12
-0.085
-0.09
-0.05
-0.04
0.01
0.035
0.1
0.155
0.24
0.3
0.385
0.445
0.505
0.51
0.46
0.355
0.245
0.135
0.06
0.005
-0.02
-0.04
-0.045
-0.05
-0.055
-0.05
-0.05
-0.045
-0.045
-0.035
-0.04
-0.04
-0.045
-0.045
-0.055
-0.055
-0.065
-0.07
-0.07
-0.07
-0.08
-0.085
-0.09
-0.095
-0.095
-0.1
-0.095
-0.1
-0.095
-0.11
-0.115
-0.115
-0.115
-0.12
-0.12
-0.13
-0.125
-0.135
-0.13
-0.14
-0.14
-0.155
-0.145
-0.165
-0.15
-0.175
-0.155
-0.18
-0.165
-0.19
-0.11
-0.09
-0.05
-0.04
-0.04
-0.045
-0.055
-0.175
-0.225
-0.26
-0.24
-0.265
-0.22
-0.25
-0.34
0.115
1.34
2.29
0.885
-0.015
-0.24
-0.19
-0.155
-0.2
-0.17
-0.175
-0.145
-0.165
-0.125
-0.125
-0.09
-0.09
-0.05
-0.04
0.01
0.04
0.11
0.17
0.255
0.32
0.4
0.455
0.51
0.5
0.445
0.335
0.22
0.11
0.035
-0.015
-0.035
-0.055
-0.06
-0.065
-0.06
-0.055
-0.05
-0.05
-0.04
-0.04
-0.04
-0.04
-0.04
-0.045
-0.05
-0.055
-0.06
-0.06
-0.06
-0.065
-0.075
-0.075
-0.08
-0.08
-0.085
-0.085
-0.095
-0.095
-0.105
-0.105
-0.11
-0.11
-0.12
-0.115
-0.12
-0.115
-0.135
-0.125
-0.14
-0.135
-0.155
-0.14
-0.16
-0.145
-0.17
-0.15
-0.17
-0.1
-0.095
-0.04
-0.1
-0.06
-0.095
-0.085
-0.17
-0.22
-0.255
-0.225
-0.255
-0.22
-0.26
-0.295
0.285
1.585
2.295
0.62
-0.12
-0.235
-0.165
-0.155
-0.19
-0.155
-0.175
-0.135
-0.155
-0.115
-0.125
-0.09
-0.09
-0.045
-0.04
0.01
0.04
0.12
0.175
0.265
0.33
0.42
0.475
0.53
0.5
0.435
0.31
0.2
0.08
0.015
-0.03
-0.055
-0.07
-0.075
-0.075
-0.07
-0.075
-0.065
-0.065
-0.06
-0.055
-0.055
-0.055
-0.05
-0.055
-0.055
-0.06
-0.06
-0.065
-0.07
-0.075
-0.075
-0.08
-0.085
-0.09
-0.09
-0.085
-0.095
-0.1
-0.105
-0.105
-0.11
-0.11
-0.12
-0.12
-0.125
-0.125
-0.13
-0.125
-0.14
-0.135
-0.145
-0.135
-0.155
-0.145
-0.16
-0.155
-0.17
-0.16
-0.18
-0.125
-0.095
-0.07
-0.105
-0.07
-0.1
-0.095
-0.165
-0.23
-0.255
-0.23
-0.25
-0.22
-0.225
-0.32
0.09
1.24
2.26
1.075
0.035
-0.225
-0.175
-0.15
-0.18
-0.155
-0.165
-0.145
-0.15
-0.115
-0.115
-0.085
-0.08
-0.045
-0.03
0.01
0.04
0.105
0.165
0.26
0.33
0.42
0.485
0.545
0.55
0.5
0.385
0.265
0.145
0.055
0.0
-0.03
-0.045
-0.05
-0.055
-0.05
-0.05
-0.045
-0.04
-0.04
-0.04
-0.03
-0.03
-0.03
-0.03
-0.035
-0.035
-0.035
-0.04
-0.045
-0.05
-0.05
-0.055
-0.06
-0.06
-0.065
-0.07
-0.075
-0.075
-0.08
-0.08
-0.085
-0.085
-0.095
-0.09
-0.1
-0.095
-0.1
-0.1
-0.11
-0.115
-0.12
-0.125
-0.135
-0.13
-0.145
-0.14
-0.145
-0.145
-0.155
-0.15
-0.165
-0.16
-0.17
-0.135
-0.09
-0.08
-0.1
-0.08
-0.1
-0.095
-0.15
-0.215
-0.245
-0.23
-0.24
-0.225
-0.22
-0.315
-0.025
0.975
2.13
1.455
0.16
-0.225
-0.185
-0.155
-0.18
-0.165
-0.165
-0.15
-0.145
-0.125
-0.115
-0.095
-0.085
-0.055
-0.035
0.0
0.035
0.09
0.155
0.235
0.315
0.39
0.47
0.535
0.56
0.53
0.435
0.31
0.19
0.095
0.02
-0.015
-0.04
-0.045
-0.055
-0.055
-0.055
-0.055
-0.05
-0.045
-0.045
-0.035
-0.04
-0.035
-0.035
-0.04
-0.04
-0.04
-0.04
-0.04
-0.045
-0.045
-0.05
-0.055
-0.055
-0.055
-0.06
-0.065
-0.07
-0.07
-0.075
-0.08
-0.075
-0.09
-0.09
-0.1
-0.1
-0.105
-0.11
-0.115
-0.11
-0.13
-0.115
-0.13
-0.125
-0.145
-0.135
-0.155
-0.14
-0.16
-0.15
-0.175
-0.155
-0.17
-0.12
-0.11
-0.055
-0.12
-0.095
-0.1
-0.115
-0.185
-0.225
-0.255
-0.22
-0.25
-0.21
-0.26
-0.275
0.34
1.64
2.285
0.58
-0.125
-0.24
-0.17
-0.15
-0.185
-0.155
-0.17
-0.13
-0.14
-0.105
-0.12
-0.08
-0.08
-0.04
-0.035
0.02
0.045
0.12
0.17
0.265
0.34
0.43
0.485
0.55
0.54
0.49
0.36
0.235
0.115
0.035
-0.02
-0.05
-0.075
-0.08
-0.075
-0.08
-0.075
-0.075
-0.065
-0.065
-0.065
-0.065
-0.055
-0.06
-0.06
-0.07
-0.075
-0.08
-0.085
-0.085
-0.09
-0.09
-0.095
-0.105
-0.1
-0.105
-0.105
-0.115
-0.11
-0.115
-0.12
-0.13
-0.12
-0.135
-0.125
-0.14
-0.13
-0.15
-0.135
-0.155
-0.14
-0.16
-0.15
-0.17
-0.15
-0.165
-0.11
-0.105
-0.045
-0.11
-0.08
-0.1
-0.11
-0.18
-0.215
-0.25
-0.215
-0.25
-0.205
-0.27
-0.275
0.365
1.665
2.3
0.57
-0.115
-0.235
-0.165
-0.15
-0.185
-0.155
-0.17
-0.135
-0.15
-0.11
-0.12
-0.08
-0.085
-0.045
-0.035
0.01
0.045
0.115
0.18
0.275
0.345
0.44
0.495
0.56
0.545
0.485
0.365
0.24
0.115
0.035
-0.02
-0.045
-0.065
-0.07
-0.075
-0.075
-0.075
-0.075
-0.08
-0.075
-0.075
-0.07
-0.065
-0.065
-0.065
-0.075
-0.08
-0.08
-0.08
-0.09
-0.095
-0.095
-0.095
-0.105
-0.105
-0.115
-0.115
-0.125
-0.125
-0.135
-0.135
-0.14
-0.14
-0.145
-0.145
-0.155
-0.15
-0.155
-0.155
-0.17
-0.165
-0.17
-0.125
-0.09
-0.07
-0.095
-0.08
-0.095
-0.09
-0.155
-0.225
-0.25
-0.235
-0.24
-0.225
-0.225
-0.325
0.0
1.035
2.17
1.395
0.14
-0.225
-0.19
-0.16
-0.18
-0.17
-0.17
-0.155
-0.15
-0.13
-0.125
-0.105
-0.095
-0.07
-0.05
-0.01
0.025
0.085
0.145
0.235
0.315
0.4
0.475
0.54
0.56
0.52
0.415
0.285
0.155
0.055
-0.015
-0.055
-0.07
-0.08
-0.09
-0.095
-0.095
-0.095
-0.09
-0.09
-0.09
-0.09
-0.085
-0.09
-0.09
-0.09
-0.095
-0.095
-0.1
-0.105
-0.105
-0.115
-0.12
-0.12
-0.12
-0.125
-0.13
-0.135
-0.14
-0.14
-0.145
-0.15
-0.155
-0.16
-0.155
-0.16
-0.165
-0.17
-0.17
-0.175
-0.175
-0.145
-0.095
-0.095
-0.11
-0.1
-0.115
-0.11
-0.16
-0.235
-0.255
-0.255
-0.255
-0.245
-0.23
-0.33
-0.085
0.86
2.06
1.615
0.215
-0.225
-0.215
-0.175
-0.19
-0.185
-0.18
-0.17
-0.16
-0.145
-0.13
-0.12
-0.105
-0.085
-0.06
-0.03
0.01
0.065
0.13
0.215
0.3
0.385
0.465
0.53
0.565
0.525
0.425
0.295
0.16
0.05
-0.015
-0.055
-0.08
-0.09
-0.1
-0.105
-0.1
-0.095
-0.095
-0.09
-0.09
-0.09
-0.09
-0.09
-0.09
-0.095
-0.1
-0.105
-0.105
-0.105
-0.11
-0.11
-0.115
-0.115
-0.125
-0.125
-0.135
-0.125
-0.135
-0.135
-0.15
-0.14
-0.155
-0.15
-0.165
-0.155
-0.175
-0.16
-0.15
-0.085
-0.11
-0.07
-0.105
-0.1
-0.105
-0.125
-0.21
-0.23
-0.25
-0.22
-0.245
-0.21
-0.28
-0.24
0.455
1.775
2.205
0.48
-0.15
-0.22
-0.16
-0.165
-0.19
-0.165
-0.175
-0.14
-0.14
-0.11
-0.115
-0.085
-0.085
-0.04
-0.03
0.015
0.055
0.13
0.19
0.285
0.355
0.44
0.505
0.555
0.535
0.46
0.325
0.2
0.075
0.0
-0.05
-0.075
-0.09
-0.095
-0.1
-0.095
-0.095
-0.09
-0.095
-0.095
-0.085
-0.09
-0.085
-0.085
-0.095
-0.095
-0.1
-0.105
-0.11
-0.115
-0.115
-0.125
-0.13
-0.13
-0.13
-0.15
-0.14
-0.15
-0.145
-0.155
-0.15
-0.16
-0.155
-0.165
-0.16
-0.17
-0.16
-0.17
-0.13
-0.09
-0.07
-0.105
-0.085
-0.105
-0.105
-0.155
-0.23
-0.25
-0.235
-0.25
-0.23
-0.225
-0.315
-0.01
1.005
2.165
1.44
0.175
-0.215
-0.2
-0.155
-0.18
-0.17
-0.175
-0.155
-0.15
-0.12
-0.125
-0.105
-0.095
-0.075
-0.055
-0.015
0.02
0.075
0.135
0.22
0.31
0.39
0.47
0.535
0.56
0.525
0.42
0.29
0.16
0.055
-0.015
-0.055
-0.075
-0.09
-0.09
-0.095
-0.09
-0.09
-0.09
-0.085
-0.09
-0.08
-0.085
-0.085
-0.09
-0.09
-0.1
-0.1
-0.11
-0.105
-0.115
-0.115
-0.125
-0.12
-0.135
-0.125
-0.145
-0.13
-0.15
-0.135
-0.16
-0.145
-0.165
-0.145
-0.17
-0.155
-0.165
-0.115
-0.11
-0.055
-0.125
-0.105
-0.11
-0.115
-0.175
-0.215
-0.245
-0.215
-0.245
-0.205
-0.245
-0.295
0.235
1.5
2.35
0.79
-0.045
-0.225
-0.165
-0.145
-0.19
-0.155
-0.175
-0.14
-0.155
-0.115
-0.13
-0.085
-0.09
-0.055
-0.045
0.005
0.035
0.11
0.17
0.265
0.335
0.43
0.495
0.56
0.555
0.49
0.365
0.24
0.11
0.025
-0.03
-0.06
-0.085
-0.085
-0.095
-0.09
-0.085
-0.08
-0.08
-0.075
-0.075
-0.075
-0.075
-0.075
-0.08
-0.08
-0.09
-0.09
-0.1
-0.105
-0.11
-0.11
-0.125
-0.125
-0.13
-0.13
-0.14
-0.135
-0.145
-0.14
-0.155
-0.145
-0.16
-0.15
-0.165
-0.155
-0.165
-0.13
-0.09
-0.065
-0.12
-0.095
-0.125
-0.115
-0.16
-0.21
-0.245
-0.23
-0.25
-0.22
-0.225
-0.315
0.06
1.165
2.23
1.21
0.09
-0.215
-0.175
-0.155
-0.185
-0.165
-0.17
-0.15
-0.155
-0.13
-0.13
-0.1
-0.095
-0.06
-0.045
0.0
0.03
0.095
0.155
0.24
0.315
0.4
0.475
0.545
0.56
0.52
0.405
0.275
0.145
0.05
-0.01
-0.05
-0.07
-0.08
-0.09
-0.09
-0.085
-0.085
-0.085
-0.085
-0.08
-0.08
-0.08
-0.075
-0.08
-0.085
-0.085
-0.095
-0.1
-0.105
-0.105
-0.115
-0.115
-0.125
-0.12
-0.135
-0.13
-0.14
-0.135
-0.15
-0.14
-0.15
-0.145
-0.165
-0.15
-0.17
-0.155
-0.18
-0.16
-0.17
-0.115
-0.115
-0.06
-0.13
-0.12
-0.12
-0.135
-0.195
-0.235
-0.265
-0.235
-0.265
-0.225
-0.26
-0.31
0.25
1.525
2.33
0.735
-0.075
-0.24
-0.18
-0.165
-0.205
-0.17
-0.19
-0.155
-0.165
-0.125
-0.135
-0.1
-0.105
-0.065
-0.055
-0.005
0.02
0.095
0.155
0.25
0.325
0.415
0.48
0.545
0.55
0.5
0.38
0.255
0.12
0.025
-0.035
-0.06
-0.08
-0.085
-0.095
-0.09
-0.09
-0.09
-0.085
-0.08
-0.08
-0.075
-0.08
-0.08
-0.085
-0.085
-0.095
-0.095
-0.095
-0.105
-0.11
-0.12
-0.12
-0.13
-0.13
-0.135
-0.13
-0.14
-0.135
-0.145
-0.145
-0.16
-0.15
-0.165
-0.155
-0.17
-0.165
-0.18
-0.165
-0.18
-0.14
-0.105
-0.075
-0.13
-0.11
-0.13
-0.125
-0.17
-0.235
-0.265
-0.245
-0.255
-0.235
-0.24
-0.335
0.04
1.135
2.215
1.23
0.09
-0.23
-0.195
-0.17
-0.195
-0.175
-0.185
-0.165
-0.17
-0.14
-0.145
-0.115
-0.115
-0.085
-0.07
-0.025
0.005
0.065
0.12
0.215
0.295
0.385
0.46
0.53
0.56
0.525
0.42
0.295
0.16
0.055
-0.015
-0.055
-0.08
-0.09
-0.1
-0.095
-0.1
-0.1
-0.095
-0.095
-0.085
-0.09
-0.085
-0.085
-0.085
-0.095
-0.1
-0.1
-0.105
-0.115
-0.115
-0.12
-0.125
-0.135
-0.135
-0.145
-0.135
-0.14
-0.14
-0.15
-0.15
-0.16
-0.155
-0.165
-0.165
-0.175
-0.165
-0.165
-0.13
-0.095
-0.075
-0.12
-0.1
-0.115
-0.115
-0.155
-0.22
-0.25
-0.235
-0.25
-0.225
-0.225
-0.325
-0.015
0.995
2.14
1.44
0.18
-0.215
-0.2
-0.155
-0.18
-0.17
-0.17
-0.155
-0.15
-0.135
-0.125
-0.1
-0.09
-0.07
-0.045
-0.01
0.025
0.08
0.14
0.225
0.3
0.39
0.46
0.535
0.565
0.535
0.43
0.31
0.175
0.065
-0.005
-0.05
-0.075
-0.085
-0.09
-0.095
-0.095
-0.09
-0.09
-0.09
-0.09
-0.09
-0.085
-0.085
-0.09
-0.09
-0.095
-0.095
-0.11
-0.105
-0.125
-0.12
-0.13
-0.13
-0.145
-0.135
-0.15
-0.14
-0.15
-0.145
-0.16
-0.15
-0.17
-0.155
-0.165
-0.13
-0.095
-0.07
-0.125
-0.1
-0.12
-0.115
-0.165
-0.215
-0.25
-0.23
-0.245
-0.215
-0.225
-0.32
0.06
1.18
2.23
1.185
0.1
-0.22
-0.185
-0.15
-0.185
-0.165
-0.175
-0.15
-0.155
-0.13
-0.135
-0.105
-0.1
-0.065
-0.05
-0.005
0.025
0.085
0.145
0.235
0.305
0.39
0.46
0.53
0.555
0.52
0.41
0.28
0.145
0.045
-0.02
-0.055
-0.08
-0.085
-0.09
-0.09
-0.095
-0.09
-0.09
-0.085
-0.09
-0.085
-0.09
-0.09
-0.1
-0.095
-0.105
-0.105
-0.12
-0.115
-0.125
-0.125
-0.14
-0.13
-0.145
-0.135
-0.155
-0.145
-0.165
-0.15
-0.17
-0.155
-0.175
-0.16
-0.165
-0.135
-0.11
-0.075
-0.135
-0.11
-0.125
-0.125
-0.17
-0.215
-0.25
-0.225
-0.245
-0.21
-0.23
-0.31
0.105
1.25
2.27
1.085
0.055
-0.215
-0.175
-0.15
-0.19
-0.16
-0.175
-0.14
-0.155
-0.12
-0.125
-0.095
-0.095
-0.055
-0.045
0.0
0.03
0.1
0.155
0.245
0.32
0.41
0.475
0.55
0.565
0.525
0.405
0.28
0.145
0.055
-0.015
-0.05
-0.075
-0.08
-0.09
-0.09
-0.085
-0.085
-0.09
-0.085
-0.085
-0.08
-0.085
-0.085
-0.09
-0.095
-0.1
-0.1
-0.105
-0.11
-0.12
-0.12
-0.13
-0.13
-0.14
-0.14
-0.145
-0.14
-0.155
-0.15
-0.16
-0.155
-0.17
-0.16
-0.16
-0.09
-0.105
-0.085
-0.11
-0.135
-0.115
-0.14
-0.2
-0.235
-0.25
-0.23
-0.24
-0.21
-0.295
-0.16
0.64
1.915
1.975
0.355
-0.185
-0.21
-0.16
-0.16
-0.18
-0.155
-0.16
-0.135
-0.135
-0.11
-0.11
-0.085
-0.08
-0.045
-0.03
0.015
0.06
0.135
0.195
0.295
0.37
0.455
0.515
0.57
0.54
0.46
0.33
0.2
0.075
0.0
-0.05
-0.075
-0.09
-0.095
-0.105
-0.1
-0.095
-0.095
-0.09
-0.095
-0.095
-0.1
-0.095
-0.105
-0.105
-0.115
-0.11
-0.12
-0.12
-0.14
-0.13
-0.145
-0.14
-0.155
-0.14
-0.165
-0.15
-0.165
-0.15
-0.18
-0.165
-0.17
-0.115
-0.12
-0.08
-0.135
-0.135
-0.125
-0.13
-0.195
-0.235
-0.255
-0.23
-0.255
-0.215
-0.275
-0.255
0.395
1.695
2.265
0.55
-0.13
-0.23
-0.165
-0.155
-0.185
-0.155
-0.175
-0.14
-0.155
-0.115
-0.13
-0.09
-0.095
-0.055
-0.045
0.0
0.035
0.115
0.17
0.265
0.33
0.425
0.49
0.545
0.525
0.455
0.34
0.21
0.075
-0.005
-0.06
-0.09
-0.105
-0.11
-0.115
-0.12
-0.12
-0.115
-0.11
-0.115
-0.115
-0.115
-0.115
-0.12
-0.12
-0.125
-0.14
-0.14
-0.14
-0.135
-0.155
-0.15
-0.155
-0.155
-0.165
-0.165
-0.175
-0.17
-0.18
-0.175
-0.17
-0.105
-0.12
-0.1
-0.125
-0.145
-0.12
-0.135
-0.195
-0.235
-0.25
-0.235
-0.24
-0.21
-0.305
-0.16
0.67
1.93
1.945
0.335
-0.205
-0.235
-0.17
-0.175
-0.19
-0.17
-0.175
-0.155
-0.155
-0.125
-0.125
-0.1
-0.095
-0.055
-0.04
0.0
0.045
0.115
0.18
0.27
0.35
0.435
0.5
0.545
0.515
0.425
0.295
0.165
0.055
-0.02
-0.065
-0.095
-0.105
-0.11
-0.115
-0.115
-0.115
-0.11
-0.11
-0.115
-0.11
-0.115
-0.115
-0.12
-0.115
-0.13
-0.125
-0.14
-0.135
-0.15
-0.145
-0.165
-0.155
-0.175
-0.16
-0.185
-0.17
-0.195
-0.175
-0.185
-0.145
-0.13
-0.085
-0.16
-0.14
-0.14
-0.14
-0.205
-0.24
-0.28
-0.25
-0.275
-0.235
-0.27
-0.33
0.165
1.38
2.295
0.85
-0.045
-0.24
-0.185
-0.175
-0.215
-0.18
-0.2
-0.165
-0.175
-0.14
-0.155
-0.115
-0.12
-0.08
-0.07
-0.02
0.005
0.08
0.135
0.235
0.305
0.4
0.465
0.535
0.535
0.48
0.355
0.225
0.095
0.005
-0.055
-0.08
-0.105
-0.115
-0.12
-0.115
-0.115
-0.115
-0.11
-0.105
-0.105
-0.105
-0.105
-0.115
-0.12
-0.12
-0.125
-0.14
-0.13
-0.145
-0.14
-0.15
-0.15
-0.16
-0.15
-0.17
-0.16
-0.175
-0.16
-0.185
-0.16
-0.17
-0.1
-0.12
-0.09
-0.125
-0.14
-0.125
-0.135
-0.205
-0.245
-0.265
-0.235
-0.255
-0.215
-0.295
-0.23
0.49
1.79
2.145
0.435
-0.175
-0.23
-0.17
-0.17
-0.195
-0.17
-0.18
-0.15
-0.16
-0.125
-0.125
-0.09
-0.085
-0.05
-0.035
0.015
0.045
0.12
0.185
0.28
0.35
0.44
0.505
0.56
0.54
0.465
0.335
0.2
0.08
0.0
-0.045
-0.075
-0.09
-0.095
-0.095
-0.095
-0.095
-0.09
-0.09
-0.09
-0.09
-0.085
-0.09
-0.09
-0.1
-0.105
-0.11
-0.11
-0.125
-0.125
-0.14
-0.135
-0.145
-0.14
-0.155
-0.145
-0.16
-0.155
-0.17
-0.165
-0.17
-0.14
-0.105
-0.08
-0.135
-0.115
-0.13
-0.13
-0.17
-0.215
-0.255
-0.235
-0.255
-0.225
-0.24
-0.33
0.03
1.11
2.195
1.22
0.1
-0.22
-0.185
-0.165
-0.185
-0.17
-0.18
-0.16
-0.16
-0.135
-0.14
-0.11
-0.105
-0.08
-0.065
-0.02
0.015
0.075
0.135
0.22
0.3
0.385
0.46
0.525
0.55
0.51
0.4
0.27
0.14
0.04
-0.03
-0.07
-0.095
-0.1
-0.115
-0.105
-0.11
-0.11
-0.11
-0.105
-0.11
-0.11
-0.115
-0.115
-0.12
-0.125
-0.135
-0.13
-0.145
-0.14
-0.15
-0.15
-0.165
-0.16
-0.18
-0.165
-0.18
-0.165
-0.2
-0.18
-0.195
-0.15
-0.135
-0.095
-0.155
-0.135
-0.145
-0.14
-0.19
-0.245
-0.27
-0.24
-0.265
-0.235
-0.26
-0.34
0.115
1.28
2.26
0.985
0.03
-0.245
-0.195
-0.17
-0.2
-0.17
-0.185
-0.155
-0.17
-0.14
-0.14
-0.12
-0.115
-0.07
-0.07
-0.02
0.01
0.08
0.125
0.215
0.285
0.385
0.445
0.505
0.515
0.48
0.365
0.24
0.105
0.01
-0.055
-0.09
-0.105
-0.1
-0.12
-0.12
-0.11
-0.105
-0.115
-0.105
-0.11
-0.105
-0.12
-0.105
-0.125
-0.115
-0.125
-0.125
-0.14
-0.13
-0.145
-0.135
-0.155
-0.14
-0.165
-0.15
-0.17
-0.15
-0.17
-0.115
-0.115
-0.065
-0.135
-0.12
-0.105
-0.105
-0.175
-0.21
-0.24
-0.205
-0.24
-0.19
-0.25
-0.27
0.33
1.625
2.39
0.66
-0.075
-0.22
-0.15
-0.135
-0.175
-0.14
-0.165
-0.125
-0.14
-0.1
-0.115
-0.08
-0.085
-0.04
-0.035
0.015
0.035
0.115
0.17
0.265
0.325
0.415
0.475
0.54
0.53
0.465
0.335
0.205
0.08
0.0
-0.055
-0.085
-0.1
-0.105
-0.11
-0.105
-0.11
-0.105
-0.11
-0.105
-0.105
-0.105
-0.115
-0.11
-0.12
-0.12
-0.13
-0.13
-0.145
-0.145
-0.15
-0.15
-0.165
-0.155
-0.175
-0.165
-0.175
-0.165
-0.175
-0.155
-0.115
-0.095
-0.135
-0.125
-0.15
-0.135
-0.17
-0.195
-0.26
-0.235
-0.255
-0.225
-0.23
-0.32
0.085
1.2
2.225
1.14
0.065
-0.21
-0.16
-0.15
-0.18
-0.16
-0.17
-0.15
-0.155
-0.13
-0.13
-0.1
-0.095
-0.06
-0.05
-0.005
0.025
0.09
0.145
0.24
0.315
0.405
0.475
0.55
0.56
0.51
0.395
0.26
0.135
0.035
-0.03
-0.07
-0.085
-0.095
-0.1
-0.105
-0.105
-0.11
-0.1
-0.1
-0.105
-0.105
-0.1
-0.105
-0.105
-0.12
-0.12
-0.125
-0.125
-0.135
-0.135
-0.14
-0.145
-0.15
-0.155
-0.16
-0.16
-0.16
-0.165
-0.165
-0.165
-0.16
-0.1
-0.11
-0.12
-0.12
-0.145
-0.14
-0.16
-0.21
-0.25
-0.255
-0.255
-0.25
-0.23
-0.32
-0.105
0.795
2.0
1.69
0.255
-0.21
-0.21
-0.17
-0.185
-0.195
-0.185
-0.175
-0.16
-0.16
-0.145
-0.13
-0.115
-0.1
-0.065
-0.05
-0.005
0.04
0.11
0.175
0.255
0.335
0.415
0.485
0.52
0.49
0.405
0.275
0.145
0.035
-0.04
-0.08
-0.105
-0.125
-0.125
-0.13
-0.13
-0.12
-0.125
-0.125
-0.125
-0.12
-0.13
-0.125
-0.13
-0.125
-0.145
-0.135
-0.15
-0.15
-0.165
-0.15
-0.175
-0.165
-0.19
-0.165
-0.195
-0.175
-0.195
-0.155
-0.135
-0.095
-0.165
-0.15
-0.14
-0.13
-0.205
-0.235
-0.28
-0.245
-0.27
-0.235
-0.27
-0.32
0.23
1.49
2.325
0.715
-0.075
-0.255
-0.195
-0.175
-0.21
-0.18
-0.2
-0.165
-0.19
-0.145
-0.155
-0.11
-0.125
-0.075
-0.075
-0.025
0.0
0.075
0.125
0.225
0.285
0.38
0.44
0.505
0.5
0.45
0.325
0.19
0.07
-0.005
-0.075
-0.105
-0.125
-0.105
-0.12
-0.12
-0.12
-0.115
-0.12
-0.115
-0.11
-0.11
-0.115
-0.105
-0.11
-0.1
-0.12
-0.12
-0.13
-0.12
-0.135
-0.125
-0.155
-0.13
-0.16
-0.145
-0.165
-0.145
-0.16
-0.125
-0.1
-0.06
-0.12
-0.105
-0.1
-0.095
-0.16
-0.19
-0.235
-0.2
-0.235
-0.19
-0.245
-0.27
0.33
1.62
2.395
0.66
-0.08
-0.21
-0.15
-0.135
-0.175
-0.145
-0.17
-0.125
-0.15
-0.105
-0.12
-0.08
-0.085
-0.04
-0.035
0.015
0.04
0.12
0.175
0.265
0.335
0.425
0.49
0.555
0.545
0.48
0.355
0.23
0.105
0.025
-0.035
-0.06
-0.075
-0.08
-0.09
-0.085
-0.09
-0.085
-0.085
-0.09
-0.09
-0.09
-0.095
-0.095
-0.105
-0.105
-0.115
-0.12
-0.125
-0.125
-0.135
-0.135
-0.15
-0.145
-0.16
-0.155
-0.165
-0.16
-0.17
-0.16
-0.175
-0.165
-0.165
-0.1
-0.115
-0.09
-0.125
-0.15
-0.125
-0.135
-0.2
-0.24
-0.255
-0.235
-0.25
-0.22
-0.295
-0.19
0.57
1.845
2.08
0.375
-0.18
-0.21
-0.17
-0.17
-0.185
-0.165
-0.175
-0.15
-0.155
-0.125
-0.13
-0.1
-0.095
-0.06
-0.045
0.0
0.035
0.105
0.17
0.26
0.335
0.425
0.49
0.55
0.535
0.46
0.33
0.2
0.08
0.0
-0.055
-0.08
-0.095
-0.105
-0.105
-0.105
-0.105
-0.105
-0.1
-0.105
-0.095
-0.1
-0.095
-0.105
-0.1
-0.115
-0.105
-0.125
-0.12
-0.135
-0.125
-0.145
-0.135
-0.155
-0.15
-0.165
-0.155
-0.175
-0.155
-0.185
-0.165
-0.175
-0.13
-0.12
-0.07
-0.14
-0.13
-0.13
-0.135
-0.195
-0.23
-0.27
-0.235
-0.265
-0.22
-0.255
-0.315
0.18
1.405
2.31
0.84
-0.025
-0.22
-0.165
-0.15
-0.19
-0.16
-0.18
-0.145
-0.165
-0.125
-0.14
-0.1
-0.105
-0.06
-0.055
-0.005
0.015
0.09
0.145
0.24
0.31
0.405
0.465
0.535
0.545
0.495
0.38
0.255
0.12
0.03
-0.03
-0.06
-0.09
-0.095
-0.095
-0.095
-0.105
-0.095
-0.095
-0.095
-0.1
-0.095
-0.095
-0.095
-0.11
-0.105
-0.12
-0.115
-0.13
-0.13
-0.14
-0.13
-0.145
-0.145
-0.16
-0.15
-0.17
-0.155
-0.17
-0.16
-0.175
-0.165
-0.18
-0.105
-0.135
-0.09
-0.12
-0.135
-0.125
-0.14
-0.215
-0.24
-0.26
-0.24
-0.26
-0.215
-0.29
-0.22
0.515
1.8
2.075
0.39
-0.19
-0.24
-0.18
-0.175
-0.195
-0.17
-0.19
-0.155
-0.165
-0.13
-0.14
-0.105
-0.105
-0.06
-0.065
-0.005
0.025
0.095
0.155
0.255
0.305
0.395
0.455
0.515
0.51
0.435
0.315
0.195
0.065
-0.015
-0.07
-0.095
-0.12
-0.125
-0.135
-0.12
-0.12
-0.12
-0.125
-0.12
-0.12
-0.115
-0.135
-0.125
-0.14
-0.125
-0.145
-0.135
-0.155
-0.15
-0.16
-0.16
-0.17
-0.15
-0.18
-0.155
-0.19
-0.165
-0.185
-0.135
-0.115
-0.085
-0.135
-0.11
-0.13
-0.125
-0.185
-0.215
-0.25
-0.215
-0.255
-0.205
-0.24
-0.31
0.215
1.46
2.36
0.815
-0.015
-0.23
-0.18
-0.135
-0.19
-0.145
-0.165
-0.13
-0.14
-0.11
-0.125
-0.08
-0.085
-0.045
-0.045
0.01
0.035
0.11
0.165
0.25
0.315
0.405
0.48
0.55
0.55
0.495
0.37
0.25
0.125
0.035
-0.025
-0.055
-0.085
-0.08
-0.085
-0.09
-0.095
-0.095
-0.09
-0.095
-0.085
-0.09
-0.085
-0.095
-0.095
-0.105
-0.105
-0.12
-0.12
-0.13
-0.13
-0.145
-0.135
-0.155
-0.145
-0.165
-0.15
-0.17
-0.155
-0.16
-0.13
-0.105
-0.07
-0.14
-0.12
-0.125
-0.125
-0.18
-0.215
-0.26
-0.23
-0.255
-0.22
-0.245
-0.32
0.16
1.375
2.29
0.89
-0.03
-0.22
-0.155
-0.16
-0.19
-0.165
-0.18
-0.15
-0.165
-0.125
-0.13
-0.1
-0.1
-0.06
-0.05
0.0
0.02
0.09
0.145
0.235
0.31
0.405
0.47
0.545
0.555
0.5
0.385
0.255
0.12
0.025
-0.035
-0.075
-0.095
-0.1
-0.105
-0.11
-0.11
-0.11
-0.105
-0.105
-0.105
-0.105
-0.105
-0.105
-0.11
-0.11
-0.115
-0.12
-0.125
-0.13
-0.145
-0.14
-0.155
-0.15
-0.16
-0.155
-0.175
-0.17
-0.18
-0.17
-0.185
-0.17
-0.17
-0.095
-0.12
-0.095
-0.125
-0.145
-0.125
-0.14
-0.205
-0.245
-0.265
-0.245
-0.255
-0.23
-0.3
-0.215
0.52
1.8
2.075
0.4
-0.175
-0.22
-0.17
-0.17
-0.195
-0.17
-0.18
-0.15
-0.16
-0.13
-0.13
-0.1
-0.095
-0.06
-0.045
0.0
0.035
0.105
0.165
0.26
0.33
0.42
0.49
0.545
0.535
0.46
0.335
0.21
0.085
0.01
-0.045
-0.075
-0.09
-0.095
-0.1
-0.095
-0.09
-0.095
-0.095
-0.09
-0.09
-0.09
-0.095
-0.1
-0.1
-0.105
-0.11
-0.115
-0.115
-0.125
-0.125
-0.135
-0.135
-0.14
-0.145
-0.145
-0.15
-0.155
-0.16
-0.155
-0.165
-0.165
-0.17
-0.165
-0.155
-0.095
-0.095
-0.115
-0.11
-0.13
-0.13
-0.145
-0.215
-0.245
-0.245
-0.24
-0.245
-0.22
-0.31
-0.125
0.74
1.97
1.78
0.29
-0.19
-0.205
-0.165
-0.175
-0.18
-0.165
-0.165
-0.145
-0.135
-0.12
-0.11
-0.095
-0.08
-0.055
-0.03
0.01
0.055
0.12
0.19
0.275
0.36
0.44
0.51
0.555
0.545
0.47
0.345
0.21
0.095
0.015
-0.03
-0.065
-0.08
-0.09
-0.09
-0.09
-0.085
-0.09
-0.085
-0.085
-0.085
-0.09
-0.085
-0.09
-0.085
-0.1
-0.095
-0.11
-0.105
-0.12
-0.115
-0.135
-0.12
-0.135
-0.13
-0.15
-0.135
-0.16
-0.145
-0.165
-0.145
-0.175
-0.15
-0.165
-0.105
-0.12
-0.065
-0.13
-0.13
-0.115
-0.13
-0.19
-0.225
-0.265
-0.225
-0.26
-0.22
-0.27
-0.305
0.24
1.49
2.3
0.725
-0.06
-0.235
-0.175
-0.155
-0.2
-0.165
-0.19
-0.15
-0.175
-0.13
-0.14
-0.1
-0.105
-0.055
-0.055
-0.005
0.01
0.085
0.14
0.23
0.295
0.395
0.45
0.535
0.54
0.49
0.38
0.255
0.12
0.03
-0.04
-0.075
-0.1
-0.1
-0.11
-0.105
-0.11
-0.11
-0.11
-0.105
-0.115
-0.115
-0.115
-0.115
-0.1
-0.125
-0.12
-0.135
-0.125
-0.145
-0.14
-0.155
-0.145
-0.16
-0.155
-0.175
-0.155
-0.175
-0.155
-0.19
-0.165
-0.175
-0.12
-0.12
-0.075
-0.145
-0.13
-0.12
-0.135
-0.21
-0.235
-0.26
-0.225
-0.26
-0.215
-0.28
-0.31
0.3
1.585
2.335
0.62
-0.095
-0.25
-0.185
-0.16
-0.2
-0.18
-0.19
-0.145
-0.175
-0.13
-0.14
-0.1
-0.105
-0.065
-0.055
0.0
0.025
0.085
0.145
0.25
0.32
0.4
0.475
0.54
0.545
0.495
0.37
0.245
0.11
0.02
-0.04
-0.07
-0.095
-0.095
-0.105
-0.1
-0.1
-0.1
-0.1
-0.095
-0.095
-0.09
-0.09
-0.1
-0.1
-0.1
-0.115
-0.11
-0.125
-0.12
-0.13
-0.13
-0.14
-0.135
-0.155
-0.145
-0.16
-0.155
-0.16
-0.15
-0.095
-0.09
-0.115
-0.115
-0.14
-0.12
-0.15
-0.19
-0.25
-0.235
-0.245
-0.225
-0.23
-0.33
0.03
1.11
2.17
1.265
0.095
-0.22
-0.175
-0.16
-0.185
-0.17
-0.17
-0.15
-0.15
-0.13
-0.125
-0.105
-0.095
-0.065
-0.05
-0.01
0.025
0.08
0.145
0.22
0.3
0.39
0.465
0.535
0.565
0.525
0.415
0.285
0.155
0.05
-0.015
-0.055
-0.085
-0.1
-0.1
-0.105
-0.1
-0.105
-0.1
-0.105
-0.1
-0.105
-0.1
-0.11
-0.11
-0.115
-0.11
-0.125
-0.115
-0.135
-0.13
-0.145
-0.135
-0.155
-0.145
-0.16
-0.15
-0.17
-0.155
-0.18
-0.16
-0.17
-0.135
-0.105
-0.075
-0.14
-0.115
-0.135
-0.135
-0.18
-0.22
-0.265
-0.235
-0.265
-0.225
-0.245
-0.32
0.095
1.24
2.24
1.05
0.035
-0.21
-0.17
-0.16
-0.19
-0.17
-0.185
-0.155
-0.165
-0.14
-0.145
-0.11
-0.11
-0.075
-0.065
-0.02
0.005
0.07
0.125
0.215
0.295
0.385
0.455
0.53
0.55
0.515
0.41
0.28
0.145
0.045
-0.025
-0.06
-0.09
-0.095
-0.105
-0.105
-0.105
-0.1
-0.1
-0.1
-0.105
-0.11
-0.11
-0.11
-0.11
-0.12
-0.12
-0.125
-0.13
-0.14
-0.135
-0.145
-0.145
-0.155
-0.15
-0.165
-0.155
-0.17
-0.165
-0.18
-0.165
-0.175
-0.145
-0.105
-0.08
-0.14
-0.125
-0.135
-0.135
-0.18
-0.225
-0.26
-0.24
-0.255
-0.22
-0.23
-0.325
0.05
1.135
2.195
1.16
0.085
-0.22
-0.185
-0.165
-0.19
-0.175
-0.185
-0.16
-0.16
-0.135
-0.14
-0.115
-0.11
-0.08
-0.07
-0.025
0.005
0.065
0.125
0.205
0.28
0.37
0.435
0.515
0.545
0.51
0.405
0.275
0.14
0.04
-0.035
-0.085
-0.105
-0.115
-0.12
-0.12
-0.115
-0.11
-0.11
-0.11
-0.115
-0.11
-0.12
-0.115
-0.12
-0.125
-0.13
-0.13
-0.145
-0.14
-0.15
-0.145
-0.16
-0.15
-0.175
-0.16
-0.185
-0.17
-0.19
-0.175
-0.18
-0.12
-0.135
-0.085
-0.145
-0.14
-0.125
-0.14
-0.205
-0.24
-0.27
-0.24
-0.27
-0.225
-0.275
-0.31
0.245
1.51
2.29
0.665
-0.09
-0.25
-0.19
-0.17
-0.205
-0.18
-0.195
-0.165
-0.175
-0.14
-0.15
-0.115
-0.125
-0.07
-0.065
-0.01
0.01
0.08
0.135
0.225
0.29
0.39
0.46
0.52
0.535
0.475
0.365
0.24
0.1
0.005
-0.05
-0.08
-0.105
-0.11
-0.115
-0.135
-0.125
-0.12
-0.115
-0.115
-0.12
-0.125
-0.12
-0.125
-0.13
-0.145
-0.125
-0.15
-0.145
-0.16
-0.16
-0.175
-0.16
-0.185
-0.175
-0.18
-0.18
-0.185
-0.165
-0.115
-0.105
-0.135
-0.12
-0.15
-0.14
-0.16
-0.205
-0.26
-0.23
-0.26
-0.24
-0.245
-0.345
-0.015
1.05
2.18
1.4
0.15
-0.225
-0.2
-0.16
-0.18
-0.17
-0.175
-0.15
-0.15
-0.135
-0.125
-0.105
-0.095
-0.065
-0.055
-0.01
0.015
0.075
0.125
0.215
0.29
0.38
0.45
0.525
0.55
0.52
0.415
0.285
0.15
0.04
-0.025
-0.065
-0.095
-0.1
-0.11
-0.11
-0.115
-0.115
-0.11
-0.11
-0.11
-0.105
-0.105
-0.11
-0.11
-0.12
-0.12
-0.13
-0.135
-0.14
-0.14
-0.15
-0.155
-0.16
-0.165
-0.165
-0.17
-0.165
-0.16
-0.11
-0.105
-0.12
-0.12
-0.15
-0.135
-0.145
-0.195
-0.255
-0.25
-0.25
-0.24
-0.23
-0.33
-0.03
0.965
2.085
1.46
0.135
-0.22
-0.18
-0.17
-0.19
-0.185
-0.18
-0.17
-0.16
-0.145
-0.135
-0.12
-0.105
-0.085
-0.06
-0.03
0.005
0.06
0.125
0.205
0.29
0.375
0.455
0.52
0.56
0.52
0.42
0.285
0.155
0.04
-0.03
-0.07
-0.095
-0.105
-0.11
-0.11
-0.11
-0.11
-0.11
-0.11
-0.105
-0.105
-0.105
-0.11
-0.11
-0.11
-0.115
-0.12
-0.125
-0.13
-0.14
-0.135
-0.15
-0.15
-0.155
-0.155
-0.165
-0.155
-0.17
-0.165
-0.16
-0.14
-0.1
-0.075
-0.125
-0.12
-0.12
-0.13
-0.17
-0.215
-0.25
-0.235
-0.245
-0.22
-0.22
-0.32
0.02
1.065
2.165
1.285
0.125
-0.21
-0.18
-0.165
-0.19
-0.175
-0.175
-0.155
-0.16
-0.14
-0.13
-0.11
-0.105
-0.075
-0.06
-0.02
0.005
0.065
0.125
0.205
0.285
0.375
0.455
0.525
0.56
0.525
0.43
0.3
0.165
0.06
-0.01
-0.055
-0.08
-0.085
-0.09
-0.09
-0.085
-0.09
-0.085
-0.09
-0.085
-0.09
-0.095
-0.095
-0.095
-0.105
-0.105
-0.11
-0.12
-0.12
-0.13
-0.13
-0.145
-0.15
-0.155
-0.15
-0.16
-0.16
-0.17
-0.165
-0.175
-0.165
-0.165
-0.1
-0.11
-0.105
-0.115
-0.14
-0.125
-0.145
-0.21
-0.245
-0.255
-0.24
-0.245
-0.22
-0.3
-0.195
0.585
1.86
1.98
0.36
-0.185
-0.22
-0.165
-0.175
-0.185
-0.17
-0.175
-0.155
-0.15
-0.13
-0.13
-0.105
-0.1
-0.06
-0.04
0.0
0.04
0.11
0.175
0.265
0.345
0.43
0.5
0.555
0.545
0.47
0.345
0.215
0.095
0.005
-0.04
-0.075
-0.085
-0.095
-0.095
-0.095
-0.095
-0.095
-0.095
-0.09
-0.09
-0.095
-0.1
-0.1
-0.105
-0.115
-0.115
-0.13
-0.125
-0.135
-0.135
-0.14
-0.135
-0.15
-0.14
-0.15
-0.155
-0.165
-0.165
-0.165
-0.15
-0.095
-0.08
-0.11
-0.11
-0.13
-0.13
-0.16
-0.215
-0.255
-0.245
-0.245
-0.23
-0.225
-0.32
-0.075
0.87
2.045
1.555
0.225
-0.21
-0.2
-0.155
-0.18
-0.185
-0.175
-0.165
-0.165
-0.15
-0.145
-0.12
-0.11
-0.09
-0.07
-0.04
0.0
0.045
0.1
0.18
0.255
0.34
0.42
0.49
0.54
0.505
0.41
0.29
0.16
0.05
-0.03
-0.08
-0.11
-0.12
-0.135
-0.13
-0.13
-0.125
-0.13
-0.12
-0.13
-0.125
-0.14
-0.125
-0.14
-0.14
-0.15
-0.135
-0.16
-0.145
-0.165
-0.155
-0.175
-0.155
-0.19
-0.175
-0.2
-0.17
-0.185
-0.13
-0.15
-0.095
-0.155
-0.145
-0.14
-0.13
-0.215
-0.24
-0.275
-0.245
-0.28
-0.23
-0.29
-0.335
0.235
1.515
2.315
0.66
-0.1
-0.265
-0.2
-0.175
-0.215
-0.18
-0.2
-0.155
-0.185
-0.14
-0.155
-0.12
-0.125
-0.065
-0.075
-0.025
0.0
0.085
0.125
0.22
0.3
0.39
0.45
0.52
0.525
0.47
0.345
0.225
0.09
0.005
-0.06
-0.08
-0.105
-0.115
-0.12
-0.115
-0.12
-0.12
-0.115
-0.12
-0.115
-0.12
-0.105
-0.115
-0.115
-0.13
-0.125
-0.14
-0.135
-0.15
-0.14
-0.155
-0.15
-0.165
-0.155
-0.17
-0.16
-0.16
-0.14
-0.09
-0.07
-0.12
-0.1
-0.115
-0.11
-0.16
-0.2
-0.245
-0.225
-0.24
-0.215
-0.225
-0.315
0.085
1.235
2.255
1.105
0.055
-0.22
-0.165
-0.15
-0.18
-0.165
-0.17
-0.15
-0.155
-0.13
-0.13
-0.105
-0.105
-0.07
-0.055
-0.015
0.015
0.075
0.135
0.225
0.295
0.385
0.455
0.525
0.545
0.5
0.395
0.26
0.13
0.03
-0.035
-0.07
-0.095
-0.1
-0.11
-0.115
-0.11
-0.115
-0.11
-0.115
-0.105
-0.115
-0.105
-0.115
-0.11
-0.12
-0.11
-0.135
-0.125
-0.14
-0.13
-0.145
-0.14
-0.155
-0.14
-0.17
-0.15
-0.18
-0.16
-0.17
-0.125
-0.115
-0.06
-0.135
-0.125
-0.12
-0.125
-0.19
-0.215
-0.26
-0.23
-0.26
-0.21
-0.25
-0.305
0.21
1.44
2.3
0.795
-0.04
-0.21
-0.15
-0.145
-0.19
-0.155
-0.18
-0.145
-0.165
-0.125
-0.135
-0.095
-0.1
-0.055
-0.05
0.0
0.02
0.095
0.145
0.24
0.305
0.405
0.47
0.555
0.555
0.51
0.385
0.26
0.125
0.03
-0.04
-0.07
-0.095
-0.1
-0.11
-0.105
-0.11
-0.105
-0.105
-0.105
-0.105
-0.105
-0.11
-0.105
-0.115
-0.115
-0.125
-0.125
-0.135
-0.135
-0.145
-0.145
-0.155
-0.155
-0.165
-0.165
-0.175
-0.175
-0.17
-0.16
-0.105
-0.1
-0.115
-0.115
-0.14
-0.13
-0.155
-0.205
-0.245
-0.245
-0.245
-0.235
-0.225
-0.315
-0.08
0.84
2.025
1.6
0.225
-0.195
-0.195
-0.16
-0.18
-0.175
-0.17
-0.165
-0.15
-0.14
-0.135
-0.115
-0.11
-0.09
-0.065
-0.035
0.0
0.05
0.115
0.195
0.275
0.355
0.435
0.51
0.55
0.52
0.43
0.3
0.165
0.055
-0.02
-0.065
-0.09
-0.1
-0.11
-0.11
-0.11
-0.11
-0.11
-0.11
-0.11
-0.11
-0.11
-0.12
-0.115
-0.125
-0.125
-0.135
-0.13
-0.145
-0.14
-0.15
-0.145
-0.16
-0.155
-0.17
-0.155
-0.175
-0.165
-0.17
-0.14
-0.105
-0.075
-0.13
-0.125
-0.13
-0.125
-0.17
-0.21
-0.25
-0.23
-0.245
-0.215
-0.23
-0.315
0.085
1.2
2.225
1.07
0.055
-0.21
-0.17
-0.155
-0.18
-0.165
-0.18
-0.15
-0.155
-0.12
-0.125
-0.095
-0.1
-0.06
-0.05
-0.005
0.02
0.08
0.14
0.225
0.29
0.385
0.455
0.52
0.55
0.515
0.405
0.28
0.145
0.035
-0.03
-0.07
-0.09
-0.095
-0.1
-0.1
-0.105
-0.1
-0.11
-0.105
-0.105
-0.105
-0.11
-0.11
-0.11
-0.12
-0.13
-0.12
-0.13
-0.145
-0.155
-0.145
-0.155
-0.16
-0.16
-0.155
-0.17
-0.175
-0.18
-0.175
-0.17
-0.15
-0.11
-0.1
-0.13
-0.11
-0.14
-0.125
-0.155
-0.21
-0.25
-0.24
-0.25
-0.23
-0.22
-0.32
-0.015
1.0
2.125
1.355
0.155
-0.225
-0.215
-0.185
-0.195
-0.18
-0.18
-0.17
-0.165
-0.145
-0.14
-0.13
-0.115
-0.09
-0.07
-0.025
0.0
0.055
0.12
0.185
0.265
0.355
0.43
0.5
0.54
0.51
0.41
0.295
0.16
0.055
-0.025
-0.07
-0.1
-0.115
-0.115
-0.12
-0.12
-0.11
-0.115
-0.11
-0.115
-0.115
-0.115
-0.12
-0.12
-0.12
-0.13
-0.13
-0.135
-0.135
-0.16
-0.15
-0.165
-0.15
-0.17
-0.17
-0.18
-0.17
-0.175
-0.175
-0.17
-0.1
-0.125
-0.09
-0.125
-0.135
-0.12
-0.125
-0.205
-0.23
-0.25
-0.22
-0.24
-0.205
-0.29
-0.21
0.575
1.87
2.155
0.385
-0.18
-0.22
-0.155
-0.15
-0.175
-0.15
-0.16
-0.13
-0.135
-0.105
-0.11
-0.075
-0.08
-0.035
-0.03
0.015
0.05
0.125
0.175
0.275
0.345
0.435
0.5
0.555
0.545
0.465
0.34
0.205
0.085
0.005
-0.05
-0.075
-0.09
-0.105
-0.11
-0.105
-0.105
-0.105
-0.11
-0.11
-0.105
-0.105
-0.105
-0.105
-0.11
-0.115
-0.13
-0.13
-0.14
-0.14
-0.155
-0.15
-0.165
-0.155
-0.17
-0.165
-0.18
-0.165
-0.185
-0.17
-0.175
-0.145
-0.12
-0.085
-0.155
-0.135
-0.14
-0.135
-0.18
-0.225
-0.27
-0.24
-0.26
-0.23
-0.245
-0.33
0.1
1.26
2.24
1.01
0.01
-0.22
-0.17
-0.17
-0.205
-0.18
-0.19
-0.165
-0.175
-0.14
-0.145
-0.115
-0.11
-0.075
-0.06
-0.02
0.005
0.07
0.13
0.225
0.295
0.39
0.46
0.54
0.565
0.52
0.41
0.28
0.14
0.045
-0.03
-0.065
-0.09
-0.1
-0.105
-0.105
-0.105
-0.105
-0.1
-0.105
-0.095
-0.105
-0.1
-0.105
-0.1
-0.11
-0.11
-0.12
-0.12
-0.135
-0.13
-0.14
-0.135
-0.145
-0.14
-0.16
-0.15
-0.17
-0.16
-0.175
-0.165
-0.185
-0.17
-0.175
-0.14
-0.115
-0.08
-0.145
-0.125
-0.135
-0.135
-0.18
-0.225
-0.26
-0.235
-0.255
-0.225
-0.23
-0.32
0.055
1.155
2.205
1.13
0.065
-0.22
-0.18
-0.16
-0.195
-0.17
-0.185
-0.155
-0.165
-0.13
-0.14
-0.11
-0.105
-0.07
-0.06
-0.01
0.015
0.08
0.135
0.22
0.29
0.385
0.455
0.535
0.565
0.54
0.44
0.315
0.175
0.07
-0.005
-0.045
-0.08
-0.09
-0.095
-0.095
-0.095
-0.095
-0.095
-0.09
-0.09
-0.09
-0.095
-0.09
-0.095
-0.1
-0.105
-0.11
-0.115
-0.115
-0.125
-0.125
-0.135
-0.135
-0.14
-0.14
-0.15
-0.145
-0.15
-0.15
-0.155
-0.155
-0.155
-0.14
-0.09
-0.08
-0.11
-0.1
-0.125
-0.12
-0.145
-0.205
-0.24
-0.24
-0.24
-0.235
-0.225
-0.315
-0.08
0.84
2.035
1.615
0.235
-0.195
-0.19
-0.155
-0.175
-0.175
-0.165
-0.15
-0.145
-0.135
-0.115
-0.1
-0.09
-0.075
-0.05
-0.015
0.015
0.06
0.125
0.2
0.29
0.37
0.445
0.52
0.565
0.55
0.465
0.335
0.2
0.085
0.005
-0.04
-0.065
-0.085
-0.09
-0.09
-0.1
-0.1
-0.1
-0.105
-0.1
-0.095
-0.095
-0.1
-0.1
-0.105
-0.105
-0.125
-0.115
-0.125
-0.12
-0.15
-0.14
-0.155
-0.145
-0.17
-0.16
-0.175
-0.165
-0.185
-0.17
-0.185
-0.15
-0.12
-0.08
-0.145
-0.13
-0.135
-0.14
-0.19
-0.235
-0.265
-0.245
-0.26
-0.23
-0.245
-0.34
0.075
1.225
2.25
1.02
0.045
-0.235
-0.195
-0.17
-0.21
-0.18
-0.195
-0.16
-0.17
-0.14
-0.15
-0.115
-0.115
-0.085
-0.065
-0.02
0.0
0.075
0.12
0.21
0.28
0.37
0.45
0.525
0.55
0.515
0.41
0.28
0.14
0.04
-0.035
-0.07
-0.09
-0.105
-0.11
-0.11
-0.115
-0.115
-0.11
-0.11
-0.105
-0.1
-0.11
-0.11
-0.11
-0.115
-0.125
-0.13
-0.135
-0.135
-0.145
-0.145
-0.155
-0.15
-0.16
-0.165
-0.17
-0.17
-0.165
-0.16
-0.1
-0.095
-0.115
-0.115
-0.135
-0.12
-0.15
-0.2
-0.245
-0.245
-0.245
-0.23
-0.225
-0.33
-0.055
0.955
2.1
1.485
0.18
-0.21
-0.185
-0.16
-0.175
-0.17
-0.17
-0.155
-0.15
-0.14
-0.125
-0.11
-0.095
-0.08
-0.055
-0.025
0.01
0.06
0.125
0.205
0.29
0.37
0.45
0.52
0.56
0.535
0.435
0.305
0.175
0.065
-0.005
-0.055
-0.08
-0.095
-0.1
-0.1
-0.1
-0.1
-0.1
-0.1
-0.095
-0.095
-0.095
-0.1
-0.1
-0.105
-0.105
-0.115
-0.12
-0.125
-0.13
-0.135
-0.135
-0.14
-0.145
-0.155
-0.15
-0.16
-0.16
-0.17
-0.165
-0.165
-0.145
-0.095
-0.095
-0.12
-0.105
-0.145
-0.12
-0.155
-0.205
-0.25
-0.24
-0.25
-0.235
-0.23
-0.32
-0.055
0.91
2.07
1.515
0.185
-0.205
-0.185
-0.165
-0.185
-0.18
-0.18
-0.165
-0.16
-0.145
-0.135
-0.12
-0.105
-0.085
-0.065
-0.03
0.0
0.05
0.11
0.19
0.27
0.355
0.435
0.51
0.55
0.525
0.435
0.305
0.165
0.045
-0.03
-0.075
-0.1
-0.115
-0.12
-0.125
-0.12
-0.125
-0.12
-0.13
-0.12
-0.135
-0.125
-0.14
-0.13
-0.145
-0.14
-0.155
-0.145
-0.165
-0.15
-0.175
-0.16
-0.185
-0.165
-0.185
-0.145
-0.12
-0.09
-0.145
-0.125
-0.135
-0.125
-0.185
-0.21
-0.26
-0.235
-0.265
-0.22
-0.26
-0.31
0.235
1.475
2.275
0.685
-0.08
-0.23
-0.17
-0.165
-0.2
-0.17
-0.19
-0.155
-0.175
-0.145
-0.155
-0.12
-0.12
-0.085
-0.075
-0.025
-0.015
0.06
0.12
0.215
0.285
0.38
0.445
0.52
0.505
0.445
0.32
0.18
0.055
-0.025
-0.095
-0.125
-0.145
-0.155
-0.165
-0.155
-0.165
-0.145
-0.155
-0.155
-0.165
-0.15
-0.17
-0.155
-0.175
-0.16
-0.175
-0.17
-0.2
-0.185
-0.205
-0.18
-0.205
-0.185
-0.155
-0.13
-0.155
-0.14
-0.145
-0.15
-0.215
-0.245
-0.28
-0.255
-0.285
-0.23
-0.295
-0.285
0.37
1.665
2.195
0.44
-0.175
-0.265
-0.19
-0.185
-0.22
-0.185
-0.22
-0.185
-0.185
-0.15
-0.17
-0.13
-0.135
-0.105
-0.085
-0.03
0.0
0.07
0.12
0.205
0.28
0.38
0.45
0.495
0.475
0.395
0.255
0.135
0.0
-0.07
-0.115
-0.14
-0.16
-0.165
-0.17
-0.17
-0.17
-0.175
-0.17
-0.165
-0.165
-0.165
-0.165
-0.175
-0.175
-0.17
-0.165
-0.185
-0.185
-0.15
-0.105
-0.065
-0.06
-0.075
-0.145
-0.19
-0.245
-0.235
-0.25
-0.24
-0.22
-0.345
-0.1
0.92
2.125
1.565
0.16
-0.235
-0.195
-0.175
-0.18
-0.195
-0.185
-0.16
-0.155
-0.17
-0.145
-0.135
-0.135
-0.115
-0.075
-0.045
-0.005
0.03
0.09
0.17
0.265
0.365
0.43
0.485
0.49
0.42
0.29
0.15
0.05
-0.05
-0.12
-0.16
-0.17
-0.18
-0.17
-0.18
-0.18
-0.17
-0.195
-0.17
-0.18
-0.195
-0.2
-0.175
-0.185
-0.18
-0.195
-0.175
-0.21
-0.155
-0.13
-0.08
-0.07
-0.085
-0.185
-0.195
-0.26
-0.245
-0.26
-0.245
-0.27
-0.365
0.025
1.295
2.36
1.055
-0.005
-0.285
-0.205
-0.17
-0.205
-0.17
-0.21
-0.17
-0.185
-0.155
-0.185
-0.13
-0.155
-0.105
-0.085
-0.04
-0.005
0.04
0.11
0.195
0.28
0.375
0.445
0.49
0.465
0.42
0.295
0.145
0.035
-0.1
-0.115
-0.125
-0.145
-0.165
-0.155
-0.15
-0.155
-0.16
-0.15
-0.145
-0.14
-0.155
-0.155
-0.14
-0.135
-0.175
-0.12
-0.1
-0.07
-0.045
-0.03
-0.07
-0.045
-0.115
-0.18
-0.245
-0.205
-0.26
-0.225
-0.255
-0.355
0.05
1.28
2.33
1.095
0.01
-0.225
-0.155
-0.165
-0.215
-0.18
-0.21
-0.165
-0.175
-0.155
-0.135
-0.13
-0.125
-0.1
-0.08
-0.03
0.0
0.075
0.11
0.215
0.285
0.36
0.43
0.495
0.495
0.4
0.255
0.13
0.015
-0.05
-0.105
-0.13
-0.155
-0.145
-0.165
-0.16
-0.16
-0.155
-0.16
-0.15
-0.165
-0.155
-0.17
-0.145
-0.1
-0.06
-0.05
-0.035
-0.06
0.0
-0.06
-0.135
-0.24
-0.245
-0.275
-0.255
-0.275
-0.25
-0.34
-0.21
0.655
1.895
1.885
0.23
-0.225
-0.24
-0.2
-0.205
-0.22
-0.205
-0.22
-0.2
-0.2
-0.15
-0.18
-0.14
-0.15
-0.115
-0.09
-0.04
0.0
0.075
0.13
0.225
0.3
0.38
0.44
0.435
0.37
0.265
0.13
0.01
-0.065
-0.115
-0.16
-0.17
-0.175
-0.18
-0.17
-0.2
-0.185
-0.165
-0.175
-0.175
-0.17
-0.155
-0.09
-0.09
-0.06
-0.055
-0.035
-0.04
-0.075
-0.18
-0.25
-0.29
-0.275
-0.29
-0.28
-0.275
-0.39
-0.085
0.95
2.095
1.37
0.095
-0.255
-0.25
-0.225
-0.24
-0.235
-0.23
-0.215
-0.225
-0.205
-0.195
-0.185
-0.16
-0.135
-0.12
-0.075
-0.045
0.02
0.07
0.14
0.22
0.315
0.395
0.435
0.41
0.33
0.205
0.085
-0.035
-0.095
-0.145
-0.165
-0.195
-0.19
-0.18
-0.2
-0.185
-0.17
-0.185
-0.18
-0.185
-0.165
-0.115
-0.085
-0.045
-0.035
-0.04
-0.005
-0.05
-0.17
-0.245
-0.255
-0.28
-0.27
-0.285
-0.265
-0.37
-0.18
0.79
2.01
1.74
0.165
-0.265
-0.25
-0.225
-0.22
-0.23
-0.225
-0.22
-0.2
-0.21
-0.19
-0.18
-0.15
-0.145
-0.105
-0.085
-0.035
0.015
0.07
0.145
0.24
0.32
0.38
0.425
0.43
0.34
0.22
0.085
-0.02
-0.075
-0.12
-0.15
-0.16
-0.145
-0.175
-0.165
-0.165
-0.15
-0.16
-0.155
-0.165
-0.145
-0.105
-0.04
-0.035
-0.005
-0.02
0.045
-0.025
-0.11
-0.25
-0.24
-0.27
-0.26
-0.285
-0.245
-0.355
-0.255
0.58
1.88
2.125
0.24
-0.255
-0.245
-0.2
-0.195
-0.225
-0.205
-0.225
-0.175
-0.195
-0.16
-0.175
-0.15
-0.135
-0.105
-0.09
-0.03
0.0
0.08
0.135
0.23
0.28
0.37
0.42
0.41
0.345
0.235
0.1
-0.005
-0.08
-0.115
-0.155
-0.155
-0.165
-0.175
-0.165
-0.165
-0.165
-0.17
-0.155
-0.18
-0.15
-0.085
-0.055
-0.04
-0.03
-0.03
0.0
-0.045
-0.15
-0.26
-0.255
-0.285
-0.285
-0.285
-0.26
-0.38
-0.18
0.83
2.01
1.73
0.105
-0.265
-0.18
-0.23
-0.22
-0.24
-0.215
-0.225
-0.21
-0.205
-0.2
-0.185
-0.175
-0.15
-0.125
-0.1
-0.055
0.0
0.065
0.135
0.215
0.29
0.375
0.41
0.39
0.3
0.21
0.08
-0.02
-0.1
-0.12
-0.165
-0.165
-0.175
-0.16
-0.16
-0.165
-0.165
-0.165
-0.17
-0.125
-0.085
-0.045
-0.02
0.005
-0.025
0.035
-0.025
-0.1
-0.235
-0.235
-0.26
-0.235
-0.265
-0.23
-0.33
-0.27
0.555
1.87
2.07
0.26
-0.195
-0.175
-0.2
-0.19
-0.215
-0.19
-0.2
-0.17
-0.185
-0.145
-0.155
-0.12
-0.115
-0.08
-0.07
-0.01
0.02
0.085
0.15
0.235
0.3
0.38
0.425
0.43
0.345
0.24
0.11
0.01
-0.06
-0.11
-0.135
-0.14
-0.155
-0.155
-0.15
-0.15
-0.145
-0.14
-0.135
-0.145
-0.11
-0.05
-0.045
-0.015
-0.025
0.0
-0.01
-0.05
-0.155
-0.235
-0.255
-0.25
-0.265
-0.25
-0.24
-0.36
-0.115
0.865
2.015
1.415
0.12
-0.195
-0.175
-0.195
-0.205
-0.21
-0.21
-0.2
-0.195
-0.18
-0.18
-0.155
-0.14
-0.115
-0.085
-0.065
-0.02
0.015
0.08
0.16
0.225
0.295
0.37
0.42
0.385
0.305
0.195
0.08
-0.025
-0.09
-0.11
-0.15
-0.15
-0.16
-0.155
-0.16
-0.135
-0.155
-0.135
-0.155
-0.15
-0.16
-0.16
-0.145
-0.065
-0.07
-0.02
-0.02
0.015
-0.04
-0.075
-0.205
-0.225
-0.27
-0.255
-0.275
-0.235
-0.26
-0.38
-0.01
1.085
2.165
0.995
0.02
-0.245
-0.2
-0.19
-0.215
-0.185
-0.205
-0.19
-0.205
-0.16
-0.17
-0.145
-0.15
-0.1
-0.09
-0.055
-0.015
0.045
0.085
0.17
0.24
0.315
0.385
0.435
0.395
0.315
0.185
0.09
-0.03
-0.08
-0.125
-0.125
-0.14
-0.145
-0.16
-0.14
-0.15
-0.145
-0.15
-0.145
-0.145
-0.145
-0.15
-0.14
-0.135
-0.05
-0.08
-0.02
-0.005
0.035
-0.01
-0.06
-0.21
-0.24
-0.265
-0.26
-0.265
-0.235
-0.265
-0.36
0.015
1.18
2.22
0.975
-0.025
-0.255
-0.17
-0.175
-0.215
-0.18
-0.205
-0.175
-0.185
-0.155
-0.15
-0.12
-0.125
-0.09
-0.075
-0.03
0.0
0.05
0.105
0.185
0.25
0.335
0.38
0.435
0.4
0.315
0.19
0.08
-0.015
-0.07
-0.105
-0.125
-0.135
-0.145
-0.15
-0.145
-0.14
-0.135
-0.135
-0.145
-0.145
-0.14
-0.145
-0.15
-0.145
-0.135
-0.07
-0.055
-0.005
0.0
0.025
-0.01
-0.04
-0.175
-0.24
-0.25
-0.24
-0.255
-0.24
-0.24
-0.35
-0.08
0.975
2.085
1.275
0.035
-0.23
-0.16
-0.18
-0.195
-0.185
-0.19
-0.175
-0.165
-0.15
-0.14
-0.12
-0.12
-0.085
-0.07
-0.03
0.0
0.06
0.12
0.19
0.265
0.34
0.41
0.455
0.435
0.365
0.245
0.12
0.02
-0.045
-0.085
-0.11
-0.125
-0.125
-0.13
-0.125
-0.13
-0.13
-0.135
-0.135
-0.135
-0.135
-0.14
-0.145
-0.145
-0.15
-0.16
-0.15
-0.085
-0.06
-0.03
-0.015
-0.005
-0.025
-0.06
-0.175
-0.25
-0.255
-0.26
-0.26
-0.26
-0.245
-0.335
-0.165
0.72
1.92
1.53
0.16
-0.2
-0.18
-0.185
-0.19
-0.195
-0.19
-0.185
-0.17
-0.16
-0.145
-0.13
-0.115
-0.1
-0.075
-0.045
-0.005
0.04
0.105
0.17
0.24
0.31
0.385
0.435
0.445
0.375
0.27
0.145
0.04
-0.035
-0.08
-0.11
-0.12
-0.13
-0.125
-0.135
-0.13
-0.135
-0.125
-0.135
-0.125
-0.135
-0.13
-0.145
-0.14
-0.16
-0.14
-0.17
-0.155
-0.125
-0.055
-0.055
-0.005
-0.035
0.02
-0.055
-0.115
-0.24
-0.23
-0.265
-0.245
-0.27
-0.23
-0.275
-0.335
0.23
1.48
2.165
0.525
-0.13
-0.225
-0.17
-0.17
-0.21
-0.18
-0.195
-0.165
-0.18
-0.145
-0.155
-0.12
-0.11
-0.075
-0.075
-0.01
0.005
0.08
0.12
0.2
0.265
0.34
0.395
0.44
0.4
0.32
0.19
0.085
-0.02
-0.07
-0.115
-0.13
-0.135
-0.14
-0.135
-0.13
-0.14
-0.15
-0.14
-0.14
-0.14
-0.14
-0.14
-0.155
-0.145
-0.17
-0.175
-0.175
-0.17
-0.11
-0.08
-0.055
-0.025
-0.01
-0.02
-0.075
-0.19
-0.245
-0.26
-0.265
-0.28
-0.27
-0.25
-0.35
-0.21
0.685
1.89
1.545
0.2
-0.26
-0.245
-0.185
-0.2
-0.205
-0.195
-0.185
-0.18
-0.18
-0.165
-0.145
-0.125
-0.11
-0.08
-0.045
-0.005
0.04
0.095
0.145
0.225
0.29
0.37
0.42
0.425
0.37
0.27
0.145
0.045
-0.025
-0.07
-0.105
-0.11
-0.125
-0.125
-0.13
-0.125
-0.125
-0.125
-0.125
-0.115
-0.125
-0.12
-0.14
-0.135
-0.15
-0.14
-0.155
-0.145
-0.165
-0.15
-0.11
-0.055
-0.045
0.0
-0.02
0.02
-0.04
-0.13
-0.23
-0.22
-0.25
-0.22
-0.245
-0.21
-0.285
-0.245
0.485
1.76
2.09
0.345
-0.19
-0.195
-0.16
-0.15
-0.18
-0.155
-0.17
-0.135
-0.145
-0.11
-0.12
-0.08
-0.08
-0.04
-0.025
0.025
0.06
0.13
0.185
0.27
0.33
0.415
0.465
0.5
0.445
0.355
0.225
0.125
0.035
-0.015
-0.05
-0.065
-0.075
-0.075
-0.075
-0.075
-0.075
-0.07
-0.075
-0.075
-0.07
-0.075
-0.075
-0.085
-0.09
-0.095
-0.1
-0.115
-0.11
-0.12
-0.115
-0.135
-0.125
-0.135
-0.125
-0.14
-0.13
-0.145
-0.135
-0.16
-0.14
-0.12
-0.035
-0.055
-0.01
-0.04
0.02
-0.055
-0.095
-0.215
-0.22
-0.25
-0.225
-0.255
-0.22
-0.27
-0.29
0.315
1.59
2.195
0.515
-0.135
-0.215
-0.155
-0.15
-0.185
-0.155
-0.175
-0.145
-0.155
-0.115
-0.12
-0.085
-0.09
-0.04
-0.04
0.015
0.04
0.115
0.16
0.245
0.31
0.395
0.455
0.515
0.505
0.445
0.325
0.215
0.11
0.035
-0.01
-0.035
-0.055
-0.055
-0.065
-0.06
-0.06
-0.055
-0.06
-0.055
-0.055
-0.055
-0.055
-0.055
-0.055
-0.065
-0.07
-0.075
-0.08
-0.085
-0.085
-0.095
-0.095
-0.105
-0.105
-0.11
-0.11
-0.125
-0.115
-0.13
-0.12
-0.14
-0.125
-0.145
-0.135
-0.155
-0.135
-0.155
-0.14
-0.14
-0.055
-0.06
-0.015
-0.03
0.01
-0.05
-0.07
-0.195
-0.215
-0.245
-0.22
-0.25
-0.21
-0.255
-0.295
0.275
1.545
2.23
0.585
-0.11
-0.225
-0.16
-0.155
-0.19
-0.16
-0.18
-0.145
-0.155
-0.12
-0.125
-0.08
-0.08
-0.04
-0.035
0.015
0.04
0.105
0.155
0.235
0.29
0.375
0.435
0.495
0.505
0.455
0.35
0.24
0.125
0.045
-0.005
-0.035
-0.05
-0.055
-0.06
-0.06
-0.055
-0.06
-0.055
-0.05
-0.055
-0.055
-0.055
-0.06
-0.07
-0.075
-0.08
-0.085
-0.09
-0.095
-0.1
-0.105
-0.11
-0.11
-0.115
-0.115
-0.125
-0.12
-0.125
-0.115
-0.13
-0.125
-0.14
-0.13
-0.145
-0.135
-0.155
-0.145
-0.16
-0.145
-0.17
-0.155
-0.165
-0.085
-0.085
-0.045
-0.035
-0.005
-0.06
-0.08
-0.2
-0.225
-0.255
-0.23
-0.26
-0.22
-0.275
-0.285
0.335
1.62
2.185
0.505
-0.14
-0.225
-0.17
-0.165
-0.195
-0.165
-0.185
-0.145
-0.16
-0.12
-0.125
-0.085
-0.09
-0.05
-0.04
0.005
0.035
0.095
0.155
0.235
0.295
0.38
0.44
0.505
0.51
0.465
0.35
0.24
0.125
0.04
-0.015
-0.045
-0.06
-0.07
-0.07
-0.07
-0.07
-0.07
-0.06
-0.055
-0.055
-0.06
-0.055
-0.055
-0.065
-0.07
-0.075
-0.075
-0.08
-0.085
-0.09
-0.095
-0.1
-0.095
-0.105
-0.105
-0.12
-0.11
-0.125
-0.115
-0.14
-0.13
-0.135
-0.125
-0.145
-0.14
-0.155
-0.14
-0.155
-0.135
-0.155
-0.15
-0.165
-0.09
-0.075
-0.035
-0.03
-0.025
-0.03
-0.045
-0.17
-0.21
-0.255
-0.23
-0.255
-0.225
-0.25
-0.335
0.105
1.305
2.245
0.845
0.0
-0.245
-0.2
-0.16
-0.19
-0.165
-0.185
-0.155
-0.165
-0.13
-0.135
-0.09
-0.1
-0.055
-0.04
0.0
0.015
0.085
0.13
0.22
0.28
0.355
0.425
0.49
0.505
0.495
0.385
0.275
0.155
0.055
0.0
-0.045
-0.075
-0.08
-0.08
-0.08
-0.08
-0.08
-0.075
-0.075
-0.07
-0.07
-0.07
-0.075
-0.07
-0.08
-0.08
-0.085
-0.09
-0.095
-0.105
-0.115
-0.115
-0.12
-0.12
-0.135
-0.13
-0.135
-0.135
-0.145
-0.14
-0.155
-0.15
-0.16
-0.15
-0.165
-0.15
-0.175
-0.16
-0.155
-0.07
-0.085
-0.025
-0.04
0.005
-0.055
-0.075
-0.205
-0.215
-0.26
-0.23
-0.26
-0.215
-0.28
-0.295
0.355
1.66
2.27
0.495
-0.145
-0.245
-0.175
-0.16
-0.2
-0.165
-0.18
-0.145
-0.16
-0.12
-0.13
-0.09
-0.095
-0.05
-0.04
0.01
0.04
0.115
0.165
0.255
0.32
0.405
0.47
0.535
0.53
0.485
0.365
0.25
0.12
0.04
-0.015
-0.045
-0.065
-0.075
-0.08
-0.075
-0.075
-0.07
-0.07
-0.065
-0.065
-0.06
-0.06
-0.06
-0.065
-0.065
-0.07
-0.075
-0.08
-0.08
-0.09
-0.09
-0.09
-0.095
-0.1
-0.1
-0.105
-0.11
-0.11
-0.115
-0.115
-0.125
-0.12
-0.135
-0.125
-0.145
-0.135
-0.15
-0.14
-0.15
-0.145
-0.155
-0.14
-0.165
-0.15
-0.155
-0.07
-0.07
-0.025
-0.04
0.0
-0.055
-0.07
-0.195
-0.22
-0.255
-0.235
-0.26
-0.225
-0.28
-0.3
0.32
1.615
2.255
0.54
-0.135
-0.23
-0.17
-0.16
-0.195
-0.16
-0.18
-0.145
-0.155
-0.115
-0.125
-0.085
-0.08
-0.04
-0.03
0.015
0.04
0.115
0.165
0.255
0.32
0.41
0.47
0.545
0.56
0.52
0.415
0.295
0.17
0.08
0.015
-0.02
-0.04
-0.045
-0.05
-0.05
-0.05
-0.045
-0.04
-0.035
-0.035
-0.035
-0.035
-0.03
-0.035
-0.035
-0.035
-0.045
-0.045
-0.05
-0.055
-0.065
-0.06
-0.065
-0.065
-0.065
-0.07
-0.075
-0.075
-0.075
-0.085
-0.085
-0.09
-0.095
-0.095
-0.105
-0.105
-0.11
-0.105
-0.115
-0.11
-0.12
-0.115
-0.13
-0.125
-0.14
-0.13
-0.15
-0.135
-0.16
-0.14
-0.165
-0.145
-0.165
-0.08
-0.07
-0.025
-0.03
-0.015
-0.035
-0.05
-0.17
-0.205
-0.245
-0.225
-0.255
-0.22
-0.26
-0.32
0.18
1.415
2.27
0.75
-0.065
-0.24
-0.185
-0.17
-0.205
-0.17
-0.195
-0.155
-0.17
-0.135
-0.135
-0.095
-0.1
-0.055
-0.05
0.0
0.02
0.09
0.135
0.23
0.295
0.385
0.445
0.53
0.55
0.54
0.445
0.335
0.2
0.095
0.02
-0.02
-0.05
-0.06
-0.065
-0.065
-0.065
-0.06
-0.065
-0.06
-0.065
-0.06
-0.05
-0.05
-0.055
-0.055
-0.06
-0.065
-0.065
-0.065
-0.075
-0.075
-0.08
-0.085
-0.09
-0.095
-0.1
-0.095
-0.11
-0.1
-0.11
-0.115
-0.115
-0.11
-0.125
-0.125
-0.13
-0.13
-0.145
-0.14
-0.15
-0.145
-0.16
-0.15
-0.17
-0.165
-0.175
-0.115
-0.075
-0.055
-0.035
-0.045
-0.01
-0.05
-0.145
-0.22
-0.24
-0.235
-0.245
-0.23
-0.23
-0.325
-0.055
0.945
2.09
1.46
0.17
-0.215
-0.195
-0.165
-0.185
-0.175
-0.18
-0.17
-0.165
-0.15
-0.145
-0.125
-0.115
-0.08
-0.065
-0.04
0.0
0.05
0.1
0.18
0.255
0.34
0.415
0.495
0.545
0.55
0.47
0.355
0.22
0.105
0.015
-0.035
-0.065
-0.08
-0.095
-0.095
-0.1
-0.1
-0.1
-0.095
-0.095
-0.09
-0.095
-0.095
-0.09
-0.095
-0.1
-0.105
-0.11
-0.115
-0.115
-0.12
-0.12
-0.125
-0.13
-0.135
-0.13
-0.14
-0.14
-0.15
-0.135
-0.16
-0.155
-0.17
-0.16
-0.17
-0.16
-0.185
-0.17
-0.18
-0.1
-0.09
-0.045
-0.045
-0.035
-0.045
-0.065
-0.185
-0.23
-0.26
-0.24
-0.265
-0.235
-0.26
-0.355
0.06
1.21
2.215
1.015
0.05
-0.235
-0.2
-0.17
-0.2
-0.18
-0.19
-0.165
-0.175
-0.145
-0.15
-0.115
-0.11
-0.07
-0.06
-0.015
0.005
0.07
0.125
0.215
0.28
0.375
0.445
0.515
0.55
0.535
0.44
0.32
0.18
0.075
0.0
-0.05
-0.075
-0.085
-0.095
-0.095
-0.095
-0.095
-0.095
-0.09
-0.09
-0.095
-0.09
-0.1
-0.095
-0.1
-0.1
-0.11
-0.11
-0.12
-0.115
-0.135
-0.13
-0.14
-0.14
-0.145
-0.145
-0.16
-0.15
-0.16
-0.155
-0.17
-0.165
-0.17
-0.085
-0.075
-0.035
-0.035
-0.04
-0.035
-0.055
-0.17
-0.23
-0.25
-0.235
-0.255
-0.235
-0.235
-0.335
-0.01
1.035
2.14
1.325
0.13
-0.215
-0.185
-0.165
-0.195
-0.18
-0.19
-0.165
-0.165
-0.14
-0.135
-0.11
-0.105
-0.075
-0.06
-0.02
0.01
0.065
0.12
0.205
0.275
0.36
0.43
0.505
0.55
0.53
0.435
0.305
0.17
0.06
-0.015
-0.06
-0.085
-0.1
-0.105
-0.11
-0.11
-0.11
-0.105
-0.105
-0.11
-0.105
-0.105
-0.11
-0.11
-0.105
-0.115
-0.12
-0.13
-0.13
-0.135
-0.14
-0.15
-0.145
-0.155
-0.155
-0.16
-0.16
-0.17
-0.165
-0.18
-0.17
-0.12
-0.07
-0.055
-0.03
-0.065
-0.015
-0.065
-0.145
-0.24
-0.245
-0.265
-0.25
-0.26
-0.235
-0.32
-0.195
0.625
1.88
1.91
0.32
-0.2
-0.22
-0.185
-0.19
-0.205
-0.19
-0.19
-0.17
-0.17
-0.145
-0.145
-0.115
-0.105
-0.075
-0.05
-0.005
0.03
0.095
0.16
0.25
0.325
0.405
0.475
0.535
0.525
0.455
0.335
0.2
0.08
0.0
-0.055
-0.085
-0.105
-0.11
-0.115
-0.11
-0.11
-0.11
-0.11
-0.1
-0.105
-0.105
-0.105
-0.1
-0.11
-0.105
-0.115
-0.115
-0.125
-0.13
-0.135
-0.14
-0.15
-0.15
-0.16
-0.155
-0.165
-0.16
-0.175
-0.165
-0.18
-0.17
-0.12
-0.065
-0.06
-0.03
-0.06
-0.005
-0.065
-0.13
-0.235
-0.24
-0.265
-0.25
-0.26
-0.23
-0.315
-0.225
0.545
1.83
2.025
0.375
-0.19
-0.225
-0.175
-0.18
-0.195
-0.175
-0.185
-0.16
-0.165
-0.135
-0.135
-0.1
-0.095
-0.06
-0.04
0.005
0.04
0.11
0.175
0.26
0.335
0.42
0.485
0.555
0.545
0.485
0.355
0.225
0.1
0.015
-0.04
-0.07
-0.085
-0.09
-0.095
-0.095
-0.1
-0.095
-0.095
-0.095
-0.095
-0.095
-0.1
-0.1
-0.105
-0.11
-0.11
-0.115
-0.12
-0.125
-0.125
-0.135
-0.135
-0.14
-0.145
-0.15
-0.15
-0.16
-0.155
-0.16
-0.155
-0.095
-0.06
-0.04
-0.02
-0.04
-0.005
-0.055
-0.14
-0.23
-0.235
-0.245
-0.245
-0.255
-0.23
-0.32
-0.175
0.66
1.92
1.85
0.31
-0.19
-0.215
-0.17
-0.185
-0.195
-0.185
-0.18
-0.165
-0.16
-0.135
-0.125
-0.1
-0.085
-0.065
-0.035
0.0
0.04
0.11
0.175
0.26
0.335
0.415
0.48
0.545
0.535
0.465
0.34
0.205
0.085
0.005
-0.045
-0.075
-0.09
-0.095
-0.105
-0.105
-0.105
-0.1
-0.1
-0.1
-0.1
-0.105
-0.11
-0.115
-0.11
-0.115
-0.115
-0.125
-0.125
-0.135
-0.135
-0.145
-0.145
-0.155
-0.15
-0.165
-0.16
-0.175
-0.165
-0.155
-0.08
-0.085
-0.025
-0.035
-0.015
-0.05
-0.08
-0.195
-0.24
-0.26
-0.25
-0.26
-0.24
-0.245
-0.345
0.0
1.075
2.17
1.25
0.125
-0.215
-0.185
-0.165
-0.2
-0.185
-0.19
-0.165
-0.17
-0.15
-0.145
-0.12
-0.11
-0.08
-0.065
-0.02
0.005
0.065
0.12
0.195
0.27
0.35
0.42
0.495
0.53
0.51
0.415
0.295
0.165
0.055
-0.015
-0.055
-0.08
-0.095
-0.105
-0.1
-0.1
-0.1
-0.1
-0.095
-0.095
-0.1
-0.095
-0.095
-0.1
-0.105
-0.11
-0.115
-0.125
-0.125
-0.135
-0.135
-0.145
-0.145
-0.15
-0.15
-0.16
-0.16
-0.165
-0.16
-0.175
-0.17
-0.16
-0.08
-0.085
-0.035
-0.04
-0.035
-0.055
-0.08
-0.185
-0.24
-0.255
-0.25
-0.26
-0.24
-0.24
-0.34
-0.02
1.01
2.14
1.35
0.145
-0.21
-0.18
-0.165
-0.19
-0.18
-0.185
-0.16
-0.16
-0.14
-0.135
-0.11
-0.105
-0.07
-0.055
-0.02
0.01
0.06
0.125
0.2
0.28
0.36
0.435
0.51
0.55
0.53
0.44
0.315
0.185
0.07
-0.005
-0.045
-0.075
-0.085
-0.095
-0.095
-0.095
-0.095
-0.09
-0.09
-0.09
-0.095
-0.095
-0.1
-0.095
-0.105
-0.11
-0.11
-0.11
-0.12
-0.125
-0.13
-0.13
-0.14
-0.14
-0.145
-0.15
-0.155
-0.15
-0.165
-0.16
-0.175
-0.16
-0.155
-0.075
-0.08
-0.03
-0.055
-0.015
-0.065
-0.095
-0.2
-0.235
-0.26
-0.24
-0.26
-0.23
-0.245
-0.345
0.06
1.195
2.225
1.05
0.05
-0.225
-0.18
-0.175
-0.205
-0.185
-0.2
-0.17
-0.18
-0.15
-0.15
-0.12
-0.12
-0.085
-0.07
-0.03
0.0
0.06
0.11
0.19
0.265
0.36
0.43
0.5
0.535
0.515
0.42
0.295
0.165
0.06
-0.015
-0.06
-0.08
-0.095
-0.1
-0.095
-0.095
-0.1
-0.1
-0.095
-0.095
-0.095
-0.095
-0.1
-0.095
-0.1
-0.11
-0.115
-0.115
-0.12
-0.125
-0.13
-0.135
-0.135
-0.14
-0.145
-0.15
-0.145
-0.155
-0.155
-0.16
-0.16
-0.17
-0.17
-0.18
-0.175
-0.175
-0.1
-0.095
-0.05
-0.05
-0.04
-0.06
-0.09
-0.195
-0.25
-0.26
-0.26
-0.275
-0.255
-0.25
-0.355
-0.035
1.005
2.13
1.305
0.13
-0.23
-0.2
-0.185
-0.21
-0.2
-0.205
-0.185
-0.18
-0.16
-0.155
-0.125
-0.12
-0.095
-0.075
-0.04
-0.005
0.05
0.105
0.185
0.26
0.345
0.42
0.5
0.545
0.535
0.46
0.34
0.205
0.095
0.01
-0.035
-0.065
-0.075
-0.085
-0.09
-0.085
-0.09
-0.085
-0.09
-0.085
-0.09
-0.09
-0.085
-0.085
-0.095
-0.1
-0.105
-0.11
-0.115
-0.115
-0.125
-0.125
-0.13
-0.14
-0.135
-0.145
-0.145
-0.155
-0.155
-0.16
-0.16
-0.17
-0.17
-0.17
-0.175
-0.115
-0.08
-0.06
-0.04
-0.06
-0.025
-0.07
-0.155
-0.245
-0.25
-0.26
-0.255
-0.26
-0.24
-0.33
-0.18
0.665
1.92
1.815
0.3
-0.2
-0.22
-0.175
-0.185
-0.195
-0.185
-0.185
-0.165
-0.16
-0.14
-0.135
-0.11
-0.1
-0.07
-0.045
-0.005
0.035
0.09
0.165
0.245
0.325
0.41
0.48
0.535
0.545
0.48
0.365
0.225
0.105
0.01
-0.045
-0.075
-0.09
-0.105
-0.105
-0.105
-0.105
-0.105
-0.11
-0.105
-0.105
-0.105
-0.11
-0.105
-0.115
-0.125
-0.125
-0.125
-0.13
-0.135
-0.14
-0.14
-0.15
-0.145
-0.16
-0.155
-0.165
-0.155
-0.175
-0.155
-0.11
-0.055
-0.055
-0.02
-0.045
0.0
-0.06
-0.125
-0.23
-0.225
-0.26
-0.235
-0.255
-0.215
-0.295
-0.255
0.46
1.755
2.13
0.45
-0.16
-0.235
-0.18
-0.185
-0.21
-0.175
-0.195
-0.155
-0.165
-0.135
-0.135
-0.105
-0.1
-0.065
-0.05
0.0
0.025
0.1
0.14
0.23
0.305
0.39
0.455
0.515
0.52
0.465
0.35
0.225
0.09
0.01
-0.05
-0.085
-0.105
-0.12
-0.11
-0.11
-0.11
-0.115
-0.11
-0.11
-0.11
-0.12
-0.11
-0.12
-0.12
-0.14
-0.12
-0.14
-0.14
-0.145
-0.135
-0.16
-0.145
-0.165
-0.15
-0.17
-0.16
-0.14
-0.055
-0.075
-0.02
-0.04
0.01
-0.05
-0.085
-0.21
-0.22
-0.25
-0.23
-0.255
-0.225
-0.245
-0.32
0.14
1.33
2.27
0.89
0.0
-0.225
-0.175
-0.16
-0.195
-0.17
-0.19
-0.16
-0.17
-0.13
-0.145
-0.11
-0.11
-0.07
-0.065
-0.015
0.01
0.075
0.125
0.21
0.275
0.37
0.43
0.505
0.525
0.495
0.38
0.255
0.12
0.025
-0.045
-0.08
-0.1
-0.115
-0.12
-0.115
-0.12
-0.115
-0.12
-0.115
-0.12
-0.12
-0.12
-0.12
-0.125
-0.13
-0.125
-0.135
-0.135
-0.145
-0.14
-0.16
-0.155
-0.165
-0.165
-0.175
-0.17
-0.15
-0.07
-0.075
-0.03
-0.045
-0.015
-0.05
-0.085
-0.195
-0.24
-0.26
-0.25
-0.265
-0.245
-0.25
-0.35
0.0
1.065
2.15
1.23
0.085
-0.23
-0.195
-0.195
-0.215
-0.2
-0.205
-0.19
-0.19
-0.16
-0.155
-0.13
-0.115
-0.085
-0.07
-0.03
0.0
0.065
0.12
0.195
0.27
0.355
0.435
0.505
0.535
0.505
0.4
0.28
0.145
0.035
-0.03
-0.07
-0.095
-0.105
-0.11
-0.11
-0.11
-0.11
-0.105
-0.105
-0.1
-0.105
-0.1
-0.11
-0.11
-0.12
-0.115
-0.13
-0.125
-0.14
-0.135
-0.155
-0.15
-0.17
-0.155
-0.175
-0.16
-0.185
-0.165
-0.135
-0.06
-0.07
-0.02
-0.055
0.005
-0.06
-0.11
-0.22
-0.225
-0.255
-0.23
-0.26
-0.22
-0.26
-0.32
0.215
1.465
2.295
0.73
-0.055
-0.225
-0.17
-0.17
-0.205
-0.175
-0.195
-0.16
-0.175
-0.13
-0.14
-0.1
-0.105
-0.065
-0.055
-0.005
0.015
0.09
0.14
0.225
0.29
0.39
0.45
0.53
0.545
0.505
0.395
0.265
0.135
0.04
-0.025
-0.06
-0.085
-0.095
-0.1
-0.1
-0.1
-0.1
-0.1
-0.095
-0.095
-0.095
-0.1
-0.095
-0.1
-0.105
-0.12
-0.12
-0.125
-0.125
-0.14
-0.135
-0.15
-0.14
-0.155
-0.15
-0.165
-0.155
-0.17
-0.155
-0.175
-0.155
-0.115
-0.055
-0.055
-0.02
-0.06
0.0
-0.065
-0.125
-0.24
-0.23
-0.26
-0.24
-0.265
-0.225
-0.295
-0.28
0.39
1.7
2.195
0.495
-0.15
-0.23
-0.175
-0.18
-0.205
-0.175
-0.195
-0.165
-0.175
-0.135
-0.145
-0.105
-0.11
-0.07
-0.06
-0.015
0.015
0.08
0.135
0.225
0.295
0.385
0.45
0.525
0.535
0.485
0.37
0.245
0.115
0.02
-0.04
-0.07
-0.095
-0.105
-0.11
-0.11
-0.115
-0.115
-0.11
-0.11
-0.11
-0.11
-0.105
-0.115
-0.115
-0.125
-0.12
-0.135
-0.13
-0.145
-0.145
-0.155
-0.15
-0.16
-0.155
-0.17
-0.16
-0.18
-0.165
-0.19
-0.17
-0.13
-0.065
-0.075
-0.03
-0.07
-0.01
-0.075
-0.14
-0.245
-0.24
-0.27
-0.24
-0.27
-0.235
-0.295
-0.305
0.32
1.615
2.245
0.56
-0.125
-0.24
-0.175
-0.175
-0.205
-0.175
-0.195
-0.155
-0.17
-0.135
-0.14
-0.11
-0.11
-0.065
-0.055
0.0
0.02
0.085
0.145
0.225
0.295
0.385
0.445
0.52
0.54
0.495
0.38
0.255
0.125
0.03
-0.04
-0.065
-0.085
-0.095
-0.105
-0.105
-0.105
-0.1
-0.105
-0.1
-0.1
-0.105
-0.11
-0.11
-0.11
-0.11
-0.125
-0.125
-0.13
-0.125
-0.14
-0.14
-0.15
-0.15
-0.16
-0.16
-0.17
-0.17
-0.18
-0.16
-0.18
-0.17
-0.155
-0.075
-0.09
-0.035
-0.055
-0.01
-0.07
-0.1
-0.215
-0.235
-0.265
-0.25
-0.27
-0.245
-0.26
-0.345
0.1
1.29
2.265
0.94
0.015
-0.235
-0.195
-0.175
-0.2
-0.18
-0.19
-0.16
-0.175
-0.145
-0.15
-0.11
-0.115
-0.075
-0.06
-0.015
0.0
0.075
0.115
0.21
0.275
0.36
0.43
0.51
0.54
0.515
0.425
0.305
0.165
0.065
-0.01
-0.055
-0.085
-0.1
-0.105
-0.105
-0.1
-0.1
-0.105
-0.095
-0.095
-0.095
-0.1
-0.1
-0.1
-0.1
-0.11
-0.115
-0.125
-0.13
-0.135
-0.135
-0.145
-0.15
-0.16
-0.155
-0.17
-0.16
-0.175
-0.165
-0.18
-0.16
-0.105
-0.065
-0.05
-0.025
-0.055
-0.02
-0.07
-0.145
-0.25
-0.24
-0.265
-0.25
-0.265
-0.235
-0.325
-0.225
0.55
1.835
2.02
0.365
-0.19
-0.23
-0.18
-0.185
-0.21
-0.185
-0.195
-0.16
-0.17
-0.14
-0.14
-0.11
-0.1
-0.07
-0.055
-0.005
0.025
0.09
0.16
0.24
0.315
0.41
0.475
0.535
0.54
0.485
0.37
0.245
0.115
0.03
-0.03
-0.07
-0.09
-0.095
-0.1
-0.095
-0.1
-0.1
-0.095
-0.095
-0.095
-0.095
-0.095
-0.1
-0.1
-0.105
-0.105
-0.115
-0.115
-0.125
-0.125
-0.135
-0.135
-0.145
-0.15
-0.155
-0.155
-0.165
-0.16
-0.17
-0.17
-0.17
-0.17
-0.165
-0.08
-0.075
-0.035
-0.045
-0.035
-0.05
-0.08
-0.185
-0.245
-0.26
-0.25
-0.26
-0.245
-0.24
-0.34
-0.04
0.965
2.1
1.41
0.16
-0.215
-0.195
-0.175
-0.2
-0.19
-0.195
-0.175
-0.17
-0.15
-0.145
-0.12
-0.115
-0.09
-0.07
-0.03
0.0
0.045
0.105
0.18
0.255
0.34
0.415
0.49
0.545
0.545
0.46
0.34
0.205
0.09
0.0
-0.045
-0.075
-0.09
-0.1
-0.1
-0.1
-0.1
-0.1
-0.1
-0.1
-0.095
-0.1
-0.105
-0.11
-0.105
-0.12
-0.12
-0.13
-0.13
-0.14
-0.14
-0.15
-0.155
-0.16
-0.16
-0.17
-0.165
-0.18
-0.175
-0.17
-0.085
-0.085
-0.035
-0.04
-0.035
-0.055
-0.08
-0.19
-0.24
-0.255
-0.25
-0.255
-0.245
-0.24
-0.345
-0.035
0.995
2.115
1.35
0.145
-0.215
-0.195
-0.175
-0.205
-0.19
-0.2
-0.18
-0.18
-0.155
-0.15
-0.12
-0.115
-0.09
-0.075
-0.035
-0.01
0.04
0.095
0.175
0.255
0.34
0.415
0.49
0.53
0.52
0.43
0.31
0.18
0.06
-0.01
-0.06
-0.095
-0.105
-0.11
-0.115
-0.115
-0.11
-0.115
-0.11
-0.115
-0.115
-0.12
-0.115
-0.12
-0.12
-0.13
-0.13
-0.135
-0.14
-0.15
-0.145
-0.16
-0.155
-0.16
-0.155
-0.17
-0.16
-0.105
-0.07
-0.045
-0.03
-0.04
-0.02
-0.065
-0.155
-0.245
-0.245
-0.255
-0.245
-0.255
-0.235
-0.325
-0.19
0.64
1.9
1.855
0.315
-0.195
-0.22
-0.18
-0.18
-0.195
-0.185
-0.185
-0.16
-0.165
-0.135
-0.135
-0.105
-0.1
-0.065
-0.04
0.0
0.035
0.095
0.165
0.25
0.325
0.405
0.47
0.53
0.53
0.455
0.325
0.205
0.08
0.0
-0.045
-0.08
-0.1
-0.105
-0.115
-0.115
-0.11
-0.105
-0.12
-0.115
-0.115
-0.125
-0.125
-0.125
-0.13
-0.125
-0.135
-0.145
-0.155
-0.165
-0.15
-0.165
-0.17
-0.17
-0.17
-0.16
-0.08
-0.07
-0.045
-0.035
-0.005
-0.035
-0.085
-0.21
-0.245
-0.25
-0.255
-0.26
-0.25
-0.245
-0.35
-0.03
1.015
2.15
1.375
0.145
-0.235
-0.205
-0.18
-0.195
-0.19
-0.19
-0.175
-0.17
-0.155
-0.145
-0.125
-0.11
-0.09
-0.07
-0.04
-0.005
0.045
0.11
0.185
0.26
0.345
0.415
0.485
0.525
0.51
0.41
0.285
0.155
0.045
-0.025
-0.075
-0.1
-0.115
-0.12
-0.12
-0.12
-0.12
-0.12
-0.115
-0.12
-0.115
-0.12
-0.12
-0.13
-0.13
-0.135
-0.145
-0.155
-0.155
-0.165
-0.165
-0.175
-0.17
-0.18
-0.17
-0.19
-0.17
-0.115
-0.07
-0.055
-0.035
-0.06
-0.02
-0.075
-0.16
-0.26
-0.245
-0.27
-0.25
-0.27
-0.24
-0.32
-0.24
0.51
1.78
2.075
0.38
-0.185
-0.225
-0.185
-0.19
-0.215
-0.195
-0.2
-0.17
-0.175
-0.145
-0.145
-0.115
-0.11
-0.07
-0.055
-0.01
0.02
0.09
0.155
0.24
0.315
0.4
0.465
0.535
0.535
0.475
0.355
0.225
0.1
0.015
-0.045
-0.075
-0.09
-0.095
-0.1
-0.1
-0.1
-0.1
-0.1
-0.095
-0.1
-0.11
-0.11
-0.11
-0.115
-0.12
-0.125
-0.135
-0.135
-0.14
-0.14
-0.15
-0.15
-0.16
-0.155
-0.16
-0.155
-0.17
-0.165
-0.17
-0.165
-0.15
-0.065
-0.08
-0.03
-0.045
-0.01
-0.055
-0.09
-0.2
-0.24
-0.255
-0.25
-0.26
-0.24
-0.245
-0.35
-0.01
1.045
2.145
1.26
0.12
-0.215
-0.19
-0.175
-0.2
-0.185
-0.195
-0.17
-0.175
-0.15
-0.145
-0.12
-0.11
-0.08
-0.065
-0.025
0.0
0.055
0.11
0.185
0.26
0.345
0.415
0.495
0.54
0.53
0.44
0.325
0.19
0.08
-0.005
-0.05
-0.085
-0.095
-0.1
-0.1
-0.1
-0.1
-0.1
-0.1
-0.1
-0.095
-0.1
-0.1
-0.105
-0.1
-0.115
-0.115
-0.125
-0.125
-0.135
-0.135
-0.15
-0.145
-0.155
-0.155
-0.165
-0.16
-0.175
-0.17
-0.18
-0.155
-0.095
-0.075
-0.05
-0.035
-0.045
-0.04
-0.09
-0.17
-0.245
-0.24
-0.265
-0.245
-0.26
-0.235
-0.325
-0.185
0.64
1.905
1.885
0.325
-0.195
-0.22
-0.18
-0.19
-0.205
-0.19
-0.19
-0.165
-0.165
-0.135
-0.13
-0.1
-0.09
-0.06
-0.04
0.0
0.035
0.105
0.16
0.25
0.32
0.405
0.475
0.54
0.545
0.48
0.36
0.23
0.105
0.02
-0.035
-0.06
-0.085
-0.09
-0.09
-0.095
-0.1
-0.095
-0.1
-0.1
-0.095
-0.1
-0.1
-0.105
-0.105
-0.105
-0.11
-0.12
-0.125
-0.135
-0.135
-0.135
-0.13
-0.14
-0.145
-0.155
-0.15
-0.155
-0.165
-0.165
-0.155
-0.085
-0.075
-0.04
-0.02
-0.025
-0.03
-0.075
-0.17
-0.245
-0.25
-0.25
-0.245
-0.245
-0.225
-0.325
-0.155
0.725
1.95
1.755
0.285
-0.205
-0.225
-0.175
-0.19
-0.195
-0.185
-0.18
-0.165
-0.16
-0.145
-0.14
-0.115
-0.105
-0.07
-0.05
-0.005
0.035
0.095
0.165
0.24
0.315
0.395
0.465
0.52
0.525
0.46
0.345
0.21
0.085
0.0
-0.055
-0.085
-0.105
-0.12
-0.115
-0.12
-0.125
-0.125
-0.12
-0.115
-0.115
-0.11
-0.12
-0.12
-0.125
-0.125
-0.14
-0.145
-0.145
-0.14
-0.165
-0.16
-0.17
-0.17
-0.17
-0.175
-0.195
-0.17
-0.095
-0.08
-0.06
-0.04
-0.045
-0.02
-0.075
-0.17
-0.26
-0.255
-0.27
-0.245
-0.26
-0.23
-0.34
-0.205
0.65
1.93
1.95
0.3
-0.225
-0.235
-0.18
-0.19
-0.21
-0.18
-0.19
-0.17
-0.17
-0.15
-0.145
-0.115
-0.105
-0.075
-0.055
-0.015
0.025
0.1
0.15
0.245
0.315
0.4
0.47
0.53
0.52
0.45
0.335
0.2
0.08
-0.005
-0.065
-0.095
-0.11
-0.12
-0.125
-0.125
-0.12
-0.125
-0.115
-0.12
-0.11
-0.115
-0.115
-0.125
-0.12
-0.135
-0.13
-0.145
-0.14
-0.16
-0.15
-0.17
-0.16
-0.18
-0.165
-0.19
-0.17
-0.145
-0.06
-0.07
-0.025
-0.06
0.0
-0.065
-0.125
-0.24
-0.235
-0.275
-0.245
-0.28
-0.235
-0.275
-0.335
0.195
1.445
2.295
0.735
-0.08
-0.235
-0.175
-0.175
-0.22
-0.18
-0.205
-0.17
-0.19
-0.15
-0.165
-0.12
-0.125
-0.08
-0.075
-0.02
0.0
0.075
0.125
0.215
0.28
0.375
0.435
0.52
0.535
0.505
0.385
0.265
0.13
0.03
-0.035
-0.07
-0.1
-0.1
-0.11
-0.115
-0.115
-0.115
-0.115
-0.11
-0.115
-0.115
-0.115
-0.115
-0.12
-0.12
-0.125
-0.135
-0.135
-0.145
-0.145
-0.155
-0.155
-0.165
-0.16
-0.17
-0.165
-0.175
-0.165
-0.145
-0.07
-0.075
-0.035
-0.05
-0.005
-0.06
-0.11
-0.215
-0.245
-0.265
-0.255
-0.275
-0.255
-0.26
-0.36
0.025
1.125
2.18
1.13
0.07
-0.225
-0.19
-0.18
-0.21
-0.195
-0.205
-0.185
-0.185
-0.155
-0.155
-0.13
-0.12
-0.09
-0.075
-0.04
-0.01
0.05
0.105
0.185
0.255
0.345
0.42
0.495
0.535
0.515
0.415
0.295
0.16
0.045
-0.03
-0.07
-0.095
-0.11
-0.115
-0.115
-0.115
-0.115
-0.115
-0.115
-0.115
-0.115
-0.12
-0.125
-0.125
-0.125
-0.135
-0.14
-0.145
-0.14
-0.145
-0.15
-0.155
-0.16
-0.165
-0.165
-0.175
-0.17
-0.185
-0.17
-0.105
-0.08
-0.055
-0.035
-0.05
-0.04
-0.085
-0.175
-0.255
-0.25
-0.265
-0.255
-0.26
-0.235
-0.33
-0.19
0.635
1.895
1.865
0.315
-0.195
-0.215
-0.18
-0.19
-0.21
-0.195
-0.195
-0.175
-0.175
-0.15
-0.145
-0.12
-0.105
-0.075
-0.055
-0.005
0.025
0.09
0.155
0.235
0.315
0.395
0.465
0.53
0.535
0.47
0.345
0.215
0.09
0.0
-0.05
-0.085
-0.1
-0.11
-0.115
-0.115
-0.115
-0.11
-0.11
-0.105
-0.105
-0.105
-0.11
-0.11
-0.115
-0.115
-0.125
-0.125
-0.135
-0.135
-0.15
-0.14
-0.16
-0.15
-0.165
-0.15
-0.165
-0.15
-0.1
-0.045
-0.045
-0.015
-0.04
0.0
-0.055
-0.125
-0.24
-0.225
-0.25
-0.23
-0.255
-0.215
-0.28
-0.265
0.415
1.715
2.18
0.48
-0.16
-0.235
-0.17
-0.17
-0.2
-0.175
-0.2
-0.17
-0.165
-0.135
-0.145
-0.105
-0.1
-0.055
-0.05
0.0
0.025
0.09
0.145
0.24
0.31
0.39
0.45
0.525
0.525
0.475
0.355
0.235
0.105
0.015
-0.045
-0.085
-0.105
-0.12
-0.125
-0.12
-0.12
-0.12
-0.115
-0.12
-0.125
-0.125
-0.125
-0.14
-0.14
-0.145
-0.145
-0.145
-0.16
-0.165
-0.165
-0.175
-0.175
-0.18
-0.19
-0.175
-0.085
-0.08
-0.045
-0.045
-0.02
-0.045
-0.095
-0.21
-0.265
-0.26
-0.275
-0.275
-0.26
-0.25
-0.36
-0.08
0.925
2.095
1.465
0.15
-0.235
-0.22
-0.19
-0.22
-0.2
-0.2
-0.185
-0.205
-0.17
-0.155
-0.14
-0.13
-0.11
-0.085
-0.055
-0.025
0.03
0.095
0.17
0.25
0.33
0.405
0.465
0.515
0.495
0.405
0.285
0.135
0.035
-0.04
-0.09
-0.115
-0.13
-0.145
-0.14
-0.135
-0.145
-0.135
-0.14
-0.125
-0.13
-0.13
-0.14
-0.13
-0.145
-0.14
-0.16
-0.145
-0.16
-0.155
-0.175
-0.16
-0.18
-0.17
-0.135
-0.06
-0.065
-0.02
-0.055
0.005
-0.06
-0.135
-0.255
-0.24
-0.275
-0.245
-0.285
-0.235
-0.3
-0.315
0.36
1.67
2.29
0.485
-0.16
-0.245
-0.185
-0.185
-0.225
-0.19
-0.21
-0.175
-0.185
-0.15
-0.16
-0.125
-0.125
-0.075
-0.07
-0.015
0.005
0.075
0.13
0.22
0.29
0.38
0.44
0.515
0.52
0.46
0.34
0.215
0.08
0.0
-0.06
-0.09
-0.115
-0.12
-0.13
-0.12
-0.13
-0.125
-0.125
-0.115
-0.125
-0.12
-0.125
-0.125
-0.135
-0.125
-0.145
-0.14
-0.16
-0.145
-0.17
-0.155
-0.175
-0.16
-0.115
-0.055
-0.055
-0.015
-0.05
0.0
-0.065
-0.14
-0.245
-0.235
-0.27
-0.245
-0.27
-0.235
-0.3
-0.295
0.365
1.655
2.21
0.49
-0.145
-0.22
-0.18
-0.185
-0.22
-0.19
-0.205
-0.175
-0.185
-0.15
-0.15
-0.115
-0.115
-0.075
-0.065
-0.01
0.015
0.09
0.145
0.235
0.305
0.395
0.46
0.525
0.52
0.465
0.335
0.205
0.075
-0.005
-0.065
-0.095
-0.115
-0.125
-0.13
-0.13
-0.13
-0.13
-0.13
-0.135
-0.125
-0.13
-0.135
-0.14
-0.14
-0.15
-0.15
-0.155
-0.155
-0.165
-0.165
-0.18
-0.17
-0.155
-0.07
-0.07
-0.03
-0.04
0.0
-0.05
-0.1
-0.215
-0.245
-0.265
-0.255
-0.27
-0.245
-0.25
-0.35
-0.025
1.025
2.14
1.245
0.12
-0.205
-0.175
-0.17
-0.2
-0.18
-0.19
-0.17
-0.175
-0.145
-0.145
-0.115
-0.115
-0.08
-0.07
-0.03
0.0
0.055
0.115
0.195
0.265
0.35
0.425
0.5
0.52
0.495
0.395
0.265
0.13
0.035
-0.035
-0.075
-0.105
-0.115
-0.11
-0.11
-0.115
-0.11
-0.115
-0.115
-0.11
-0.12
-0.115
-0.135
-0.125
-0.135
-0.13
-0.145
-0.14
-0.155
-0.14
-0.17
-0.16
-0.185
-0.165
-0.13
-0.06
-0.06
-0.025
-0.055
0.005
-0.065
-0.135
-0.255
-0.245
-0.28
-0.245
-0.27
-0.23
-0.285
-0.335
0.275
1.56
2.265
0.585
-0.125
-0.24
-0.185
-0.175
-0.215
-0.185
-0.205
-0.17
-0.19
-0.155
-0.165
-0.12
-0.12
-0.08
-0.07
-0.02
0.0
0.07
0.12
0.21
0.28
0.365
0.42
0.485
0.505
0.455
0.33
0.205
0.08
-0.01
-0.075
-0.105
-0.12
-0.13
-0.135
-0.135
-0.13
-0.13
-0.13
-0.14
-0.13
-0.135
-0.135
-0.14
-0.13
-0.155
-0.14
-0.16
-0.155
-0.175
-0.16
-0.185
-0.17
-0.11
-0.06
-0.05
-0.02
-0.025
-0.02
-0.07
-0.17
-0.255
-0.25
-0.265
-0.25
-0.275
-0.245
-0.345
-0.205
0.645
1.915
1.88
0.28
-0.235
-0.245
-0.19
-0.19
-0.215
-0.19
-0.195
-0.175
-0.175
-0.16
-0.145
-0.12
-0.12
-0.08
-0.06
-0.01
0.015
0.095
0.155
0.24
0.31
0.39
0.46
0.51
0.485
0.4
0.265
0.155
0.035
-0.05
-0.085
-0.115
-0.13
-0.135
-0.14
-0.14
-0.145
-0.135
-0.14
-0.14
-0.145
-0.13
-0.14
-0.135
-0.15
-0.14
-0.16
-0.155
-0.175
-0.165
-0.185
-0.165
-0.15
-0.07
-0.085
-0.01
-0.04
0.02
-0.06
-0.135
-0.255
-0.24
-0.275
-0.245
-0.275
-0.24
-0.305
-0.315
0.37
1.68
2.24
0.445
-0.17
-0.235
-0.185
-0.18
-0.215
-0.18
-0.2
-0.17
-0.185
-0.15
-0.16
-0.115
-0.12
-0.075
-0.065
-0.01
0.015
0.085
0.145
0.235
0.295
0.385
0.45
0.515
0.5
0.44
0.315
0.195
0.065
-0.01
-0.065
-0.09
-0.11
-0.11
-0.125
-0.12
-0.12
-0.11
-0.115
-0.11
-0.12
-0.11
-0.12
-0.12
-0.13
-0.125
-0.145
-0.135
-0.15
-0.15
-0.165
-0.155
-0.175
-0.165
-0.185
-0.165
-0.135
-0.06
-0.075
-0.02
-0.055
0.005
-0.06
-0.12
-0.23
-0.235
-0.265
-0.24
-0.275
-0.23
-0.28
-0.305
0.295
1.575
2.25
0.56
-0.125
-0.225
-0.18
-0.18
-0.22
-0.19
-0.21
-0.17
-0.19
-0.15
-0.16
-0.115
-0.125
-0.075
-0.07
-0.015
0.005
0.08
0.13
0.22
0.29
0.385
0.45
0.52
0.525
0.475
0.355
0.225
0.1
0.015
-0.05
-0.075
-0.1
-0.105
-0.115
-0.115
-0.115
-0.11
-0.11
-0.11
-0.115
-0.115
-0.12
-0.125
-0.125
-0.125
-0.13
-0.135
-0.14
-0.15
-0.155
-0.155
-0.165
-0.165
-0.17
-0.17
-0.175
-0.175
-0.16
-0.09
-0.08
-0.04
-0.045
-0.035
-0.055
-0.09
-0.19
-0.25
-0.26
-0.26
-0.265
-0.255
-0.25
-0.345
-0.11
0.815
2.0
1.515
0.205
-0.21
-0.205
-0.185
-0.205
-0.205
-0.2
-0.19
-0.18
-0.17
-0.155
-0.13
-0.115
-0.1
-0.075
-0.04
-0.005
0.04
0.095
0.17
0.245
0.33
0.405
0.48
0.53
0.52
0.435
0.31
0.18
0.07
-0.01
-0.055
-0.085
-0.1
-0.1
-0.1
-0.105
-0.1
-0.085
-0.08
-0.09
-0.09
-0.095
-0.095
-0.105
-0.1
-0.11
-0.11
-0.12
-0.115
-0.13
-0.125
-0.14
-0.13
-0.145
-0.14
-0.155
-0.145
-0.16
-0.145
-0.17
-0.155
-0.11
-0.05
-0.05
-0.015
-0.055
0.0
-0.06
-0.12
-0.235
-0.23
-0.26
-0.235
-0.255
-0.23
-0.285
-0.28
0.37
1.67
2.18
0.495
-0.14
-0.225
-0.175
-0.17
-0.205
-0.165
-0.185
-0.155
-0.165
-0.125
-0.135
-0.1
-0.105
-0.06
-0.05
0.0
0.03
0.1
0.15
0.24
0.305
0.39
0.46
0.53
0.535
0.495
0.38
0.26
0.125
0.035
-0.03
-0.065
-0.085
-0.09
-0.095
-0.095
-0.09
-0.1
-0.095
-0.09
-0.09
-0.09
-0.09
-0.095
-0.095
-0.11
-0.105
-0.115
-0.12
-0.14
-0.13
-0.14
-0.135
-0.155
-0.15
-0.165
-0.15
-0.185
-0.165
-0.15
-0.065
-0.09
-0.03
-0.05
0.015
-0.06
-0.115
-0.23
-0.23
-0.265
-0.235
-0.275
-0.24
-0.28
-0.32
0.28
1.56
2.28
0.575
-0.125
-0.26
-0.19
-0.175
-0.225
-0.19
-0.2
-0.165
-0.18
-0.15
-0.155
-0.115
-0.115
-0.075
-0.065
-0.005
0.005
0.075
0.125
0.21
0.285
0.37
0.43
0.51
0.515
0.475
0.355
0.235
0.105
0.01
-0.055
-0.08
-0.105
-0.12
-0.125
-0.12
-0.13
-0.115
-0.12
-0.115
-0.11
-0.13
-0.11
-0.115
-0.13
-0.125
-0.135
-0.135
-0.145
-0.145
-0.165
-0.15
-0.17
-0.16
-0.18
-0.17
-0.185
-0.175
-0.175
-0.075
-0.09
-0.05
-0.04
0.0
-0.06
-0.1
-0.22
-0.24
-0.265
-0.24
-0.275
-0.24
-0.27
-0.36
0.135
1.38
2.335
0.845
-0.035
-0.245
-0.185
-0.18
-0.205
-0.175
-0.195
-0.155
-0.17
-0.13
-0.14
-0.095
-0.105
-0.07
-0.055
-0.005
0.015
0.08
0.135
0.23
0.29
0.385
0.445
0.525
0.545
0.515
0.41
0.285
0.155
0.06
-0.005
-0.04
-0.06
-0.07
-0.08
-0.08
-0.08
-0.08
-0.08
-0.08
-0.075
-0.075
-0.08
-0.08
-0.08
-0.09
-0.09
-0.1
-0.1
-0.115
-0.11
-0.12
-0.115
-0.13
-0.125
-0.14
-0.13
-0.145
-0.14
-0.155
-0.145
-0.16
-0.15
-0.17
-0.16
-0.18
-0.16
-0.165
-0.07
-0.085
-0.035
-0.03
0.0
-0.055
-0.075
-0.19
-0.225
-0.26
-0.235
-0.27
-0.23
-0.265
-0.33
0.185
1.41
2.275
0.78
-0.05
-0.22
-0.165
-0.165
-0.205
-0.175
-0.195
-0.16
-0.175
-0.135
-0.145
-0.105
-0.105
-0.065
-0.055
-0.005
0.015
0.085
0.13
0.225
0.285
0.38
0.445
0.53
0.565
0.55
0.445
0.325
0.18
0.075
0.0
-0.045
-0.075
-0.085
-0.095
-0.095
-0.1
-0.095
-0.095
-0.09
-0.095
-0.09
-0.09
-0.09
-0.095
-0.095
-0.1
-0.105
-0.105
-0.115
-0.12
-0.125
-0.135
-0.14
-0.14
-0.145
-0.145
-0.155
-0.15
-0.165
-0.16
-0.175
-0.165
-0.18
-0.175
-0.17
-0.08
-0.085
-0.045
-0.025
-0.015
-0.06
-0.09
-0.195
-0.23
-0.255
-0.245
-0.26
-0.24
-0.245
-0.34
0.03
1.12
2.17
1.12
0.075
-0.22
-0.185
-0.17
-0.2
-0.18
-0.195
-0.175
-0.175
-0.145
-0.14
-0.115
-0.11
-0.075
-0.06
-0.015
0.01
0.07
0.125
0.205
0.275
0.365
0.44
0.515
0.555
0.545
0.455
0.335
0.2
0.09
0.01
-0.035
-0.07
-0.08
-0.085
-0.085
-0.085
-0.08
-0.08
-0.08
-0.085
-0.085
-0.085
-0.085
-0.085
-0.085
-0.095
-0.095
-0.105
-0.105
-0.115
-0.12
-0.125
-0.13
-0.14
-0.135
-0.15
-0.15
-0.165
-0.16
-0.17
-0.155
-0.175
-0.165
-0.18
-0.17
-0.165
-0.08
-0.085
-0.045
-0.04
0.0
-0.06
-0.085
-0.205
-0.225
-0.26
-0.245
-0.265
-0.24
-0.26
-0.345
0.11
1.295
2.24
0.885
0.0
-0.245
-0.195
-0.18
-0.215
-0.19
-0.205
-0.17
-0.185
-0.15
-0.155
-0.115
-0.12
-0.085
-0.08
-0.025
0.0
0.06
0.115
0.205
0.265
0.365
0.43
0.51
0.545
0.535
0.44
0.32
0.18
0.07
-0.015
-0.06
-0.085
-0.105
-0.115
-0.105
-0.115
-0.11
-0.1
-0.105
-0.1
-0.11
-0.11
-0.11
-0.11
-0.125
-0.115
-0.135
-0.13
-0.145
-0.135
-0.155
-0.14
-0.165
-0.16
-0.17
-0.16
-0.175
-0.155
-0.185
-0.175
-0.15
-0.07
-0.09
-0.035
-0.055
0.0
-0.065
-0.125
-0.25
-0.245
-0.275
-0.245
-0.28
-0.24
-0.305
-0.315
0.35
1.65
2.24
0.48
-0.16
-0.265
-0.205
-0.19
-0.225
-0.185
-0.215
-0.18
-0.19
-0.155
-0.165
-0.12
-0.13
-0.08
-0.08
-0.025
0.005
0.08
0.115
0.205
0.275
0.375
0.44
0.51
0.53
0.48
0.37
0.255
0.105
0.01
-0.05
-0.095
-0.115
-0.125
-0.125
-0.12
-0.13
-0.13
-0.14
-0.13
-0.12
-0.13
-0.115
-0.125
-0.125
-0.13
-0.135
-0.145
-0.14
-0.155
-0.15
-0.165
-0.16
-0.17
-0.16
-0.175
-0.17
-0.125
-0.065
-0.08
-0.02
-0.045
0.005
-0.055
-0.14
-0.245
-0.235
-0.265
-0.245
-0.265
-0.23
-0.32
-0.225
0.59
1.855
2.05
0.32
-0.21
-0.235
-0.185
-0.185
-0.21
-0.185
-0.195
-0.165
-0.17
-0.14
-0.145
-0.105
-0.105
-0.065
-0.05
0.0
0.025
0.095
0.155
0.245
0.315
0.4
0.465
0.535
0.53
0.46
0.335
0.205
0.075
-0.005
-0.065
-0.1
-0.115
-0.125
-0.125
-0.13
-0.125
-0.13
-0.13
-0.125
-0.12
-0.12
-0.12
-0.12
-0.12
-0.13
-0.125
-0.14
-0.14
-0.155
-0.15
-0.16
-0.15
-0.17
-0.165
-0.18
-0.165
-0.13
-0.065
-0.075
-0.02
-0.05
0.0
-0.065
-0.135
-0.24
-0.24
-0.27
-0.25
-0.27
-0.24
-0.31
-0.255
0.485
1.76
2.095
0.39
-0.175
-0.22
-0.19
-0.185
-0.215
-0.19
-0.2
-0.17
-0.175
-0.145
-0.155
-0.115
-0.115
-0.075
-0.065
-0.01
0.015
0.09
0.145
0.235
0.305
0.4
0.465
0.53
0.53
0.47
0.345
0.21
0.085
0.0
-0.06
-0.09
-0.105
-0.11
-0.115
-0.115
-0.12
-0.115
-0.12
-0.11
-0.115
-0.115
-0.12
-0.12
-0.125
-0.125
-0.135
-0.13
-0.145
-0.14
-0.16
-0.155
-0.17
-0.16
-0.18
-0.165
-0.185
-0.165
-0.16
-0.07
-0.09
-0.035
-0.04
0.0
-0.06
-0.1
-0.215
-0.235
-0.27
-0.245
-0.275
-0.24
-0.27
-0.345
0.155
1.385
2.27
0.785
-0.045
-0.23
-0.18
-0.17
-0.21
-0.18
-0.2
-0.165
-0.175
-0.14
-0.155
-0.115
-0.115
-0.075
-0.065
-0.02
0.005
0.075
0.125
0.22
0.285
0.38
0.445
0.52
0.55
0.51
0.4
0.27
0.135
0.04
-0.035
-0.075
-0.1
-0.105
-0.115
-0.115
-0.115
-0.115
-0.115
-0.115
-0.11
-0.11
-0.11
-0.115
-0.115
-0.115
-0.115
-0.125
-0.13
-0.13
-0.135
-0.145
-0.15
-0.155
-0.16
-0.165
-0.165
-0.17
-0.165
-0.1
-0.07
-0.055
-0.01
-0.025
-0.02
-0.06
-0.16
-0.235
-0.245
-0.255
-0.25
-0.255
-0.24
-0.335
-0.145
0.74
1.955
1.7
0.27
-0.2
-0.205
-0.175
-0.19
-0.19
-0.185
-0.18
-0.165
-0.155
-0.145
-0.13
-0.12
-0.1
-0.075
-0.055
-0.015
0.03
0.095
0.165
0.25
0.335
0.41
0.48
0.535
0.53
0.445
0.32
0.19
0.07
0.0
-0.06
-0.09
-0.1
-0.115
-0.115
-0.11
-0.115
-0.11
-0.11
-0.11
-0.12
-0.11
-0.115
-0.11
-0.115
-0.115
-0.13
-0.13
-0.145
-0.13
-0.155
-0.14
-0.155
-0.15
-0.17
-0.15
-0.175
-0.16
-0.155
-0.065
-0.085
-0.025
-0.04
0.005
-0.055
-0.105
-0.23
-0.235
-0.265
-0.235
-0.265
-0.225
-0.275
-0.34
0.205
1.48
2.3
0.67
-0.075
-0.245
-0.19
-0.18
-0.23
-0.175
-0.21
-0.17
-0.175
-0.14
-0.155
-0.105
-0.115
-0.07
-0.07
-0.015
0.01
0.065
0.12
0.215
0.28
0.38
0.445
0.515
0.535
0.505
0.395
0.265
0.125
0.03
-0.03
-0.075
-0.09
-0.1
-0.11
-0.105
-0.12
-0.115
-0.105
-0.105
-0.095
-0.115
-0.1
-0.1
-0.105
-0.125
-0.115
-0.12
-0.115
-0.135
-0.13
-0.15
-0.14
-0.155
-0.155
-0.17
-0.155
-0.19
-0.155
-0.155
-0.06
-0.08
-0.03
-0.03
0.015
-0.05
-0.085
-0.205
-0.23
-0.255
-0.23
-0.26
-0.225
-0.26
-0.335
0.18
1.445
2.355
0.79
-0.05
-0.24
-0.185
-0.17
-0.21
-0.175
-0.195
-0.16
-0.18
-0.14
-0.15
-0.11
-0.12
-0.075
-0.065
-0.01
0.005
0.08
0.13
0.22
0.29
0.38
0.445
0.525
0.545
0.51
0.405
0.275
0.14
0.045
-0.025
-0.065
-0.085
-0.095
-0.105
-0.105
-0.105
-0.105
-0.105
-0.1
-0.1
-0.1
-0.095
-0.095
-0.105
-0.105
-0.105
-0.115
-0.12
-0.125
-0.13
-0.14
-0.14
-0.15
-0.145
-0.155
-0.15
-0.165
-0.155
-0.17
-0.16
-0.175
-0.17
-0.17
-0.095
-0.08
-0.05
-0.035
-0.04
-0.055
-0.075
-0.175
-0.24
-0.25
-0.245
-0.26
-0.24
-0.24
-0.34
-0.01
1.025
2.12
1.335
0.11
-0.225
-0.18
-0.185
-0.21
-0.2
-0.195
-0.18
-0.18
-0.16
-0.15
-0.125
-0.11
-0.085
-0.065
-0.025
0.005
0.06
0.12
0.2
0.28
0.365
0.445
0.525
0.57
0.56
0.475
0.35
0.215
0.095
0.01
-0.035
-0.07
-0.08
-0.085
-0.09
-0.09
-0.09
-0.085
-0.085
-0.085
-0.085
-0.085
-0.085
-0.09
-0.09
-0.09
-0.095
-0.1
-0.11
-0.11
-0.115
-0.115
-0.125
-0.125
-0.14
-0.135
-0.145
-0.14
-0.145
-0.145
-0.155
-0.155
-0.165
-0.16
-0.17
-0.16
-0.12
-0.065
-0.065
-0.015
-0.045
0.0
-0.06
-0.13
-0.23
-0.225
-0.25
-0.235
-0.255
-0.225
-0.305
-0.23
0.51
1.8
2.075
0.395
-0.175
-0.22
-0.175
-0.175
-0.2
-0.18
-0.19
-0.165
-0.17
-0.135
-0.135
-0.105
-0.1
-0.065
-0.05
0.0
0.025
0.095
0.155
0.245
0.315
0.41
0.48
0.555
0.57
0.525
0.415
0.28
0.15
0.05
-0.015
-0.05
-0.08
-0.085
-0.09
-0.09
-0.09
-0.095
-0.095
-0.085
-0.09
-0.09
-0.09
-0.09
-0.095
-0.1
-0.105
-0.105
-0.115
-0.12
-0.12
-0.12
-0.135
-0.14
-0.145
-0.145
-0.16
-0.155
-0.165
-0.155
-0.17
-0.16
-0.18
-0.17
-0.175
-0.085
-0.09
-0.055
-0.035
-0.02
-0.065
-0.09
-0.2
-0.225
-0.255
-0.24
-0.26
-0.23
-0.245
-0.345
0.04
1.16
2.205
1.115
0.07
-0.22
-0.185
-0.18
-0.21
-0.185
-0.195
-0.165
-0.175
-0.15
-0.15
-0.12
-0.115
-0.085
-0.075
-0.02
0.0
0.06
0.115
0.195
0.285
0.37
0.445
0.525
0.57
0.555
0.465
0.345
0.195
0.075
0.0
-0.04
-0.075
-0.09
-0.105
-0.11
-0.105
-0.11
-0.11
-0.115
-0.105
-0.095
-0.105
-0.105
-0.105
-0.09
-0.105
-0.11
-0.12
-0.125
-0.125
-0.115
-0.135
-0.135
-0.155
-0.145
-0.155
-0.16
-0.175
-0.165
-0.18
-0.17
-0.19
-0.17
-0.17
-0.08
-0.095
-0.04
-0.04
-0.01
-0.07
-0.1
-0.21
-0.235
-0.265
-0.255
-0.275
-0.24
-0.265
-0.355
0.07
1.24
2.24
0.975
0.03
-0.245
-0.2
-0.17
-0.215
-0.185
-0.2
-0.16
-0.175
-0.155
-0.155
-0.11
-0.115
-0.08
-0.07
-0.02
0.0
0.055
0.11
0.195
0.27
0.35
0.41
0.505
0.555
0.54
0.44
0.335
0.185
0.08
0.0
-0.06
-0.085
-0.105
-0.12
-0.125
-0.125
-0.12
-0.11
-0.11
-0.1
-0.095
-0.11
-0.105
-0.105
-0.11
-0.12
-0.12
-0.125
-0.13
-0.14
-0.14
-0.15
-0.155
-0.155
-0.155
-0.16
-0.165
-0.165
-0.17
-0.165
-0.095
-0.08
-0.045
-0.045
-0.035
-0.04
-0.065
-0.17
-0.235
-0.245
-0.245
-0.255
-0.24
-0.24
-0.35
-0.045
0.995
2.125
1.44
0.15
-0.23
-0.21
-0.185
-0.205
-0.2
-0.19
-0.18
-0.175
-0.16
-0.145
-0.125
-0.115
-0.095
-0.075
-0.03
0.0
0.055
0.11
0.19
0.265
0.35
0.425
0.5
0.55
0.545
0.455
0.33
0.19
0.065
-0.015
-0.06
-0.09
-0.105
-0.115
-0.115
-0.12
-0.12
-0.115
-0.11
-0.105
-0.11
-0.105
-0.11
-0.115
-0.12
-0.115
-0.125
-0.125
-0.135
-0.13
-0.145
-0.145
-0.155
-0.145
-0.165
-0.155
-0.165
-0.155
-0.175
-0.17
-0.165
-0.07
-0.08
-0.04
-0.03
-0.01
-0.07
-0.085
-0.195
-0.23
-0.26
-0.24
-0.265
-0.245
-0.255
-0.345
0.075
1.21
2.22
1.06
0.025
-0.23
-0.175
-0.175
-0.2
-0.185
-0.195
-0.17
-0.18
-0.14
-0.145
-0.115
-0.11
-0.08
-0.07
-0.025
0.005
0.065
0.125
0.21
0.285
0.37
0.45
0.535
0.575
0.56
0.465
0.34
0.2
0.085
0.0
-0.05
-0.075
-0.085
-0.095
-0.095
-0.1
-0.095
-0.095
-0.095
-0.095
-0.105
-0.1
-0.1
-0.095
-0.1
-0.1
-0.115
-0.115
-0.12
-0.12
-0.135
-0.13
-0.145
-0.135
-0.145
-0.14
-0.15
-0.145
-0.165
-0.15
-0.165
-0.15
-0.175
-0.155
-0.15
-0.06
-0.08
-0.035
-0.035
0.0
-0.06
-0.095
-0.21
-0.23
-0.26
-0.235
-0.265
-0.225
-0.265
-0.33
0.185
1.435
2.285
0.75
-0.06
-0.235
-0.19
-0.18
-0.215
-0.185
-0.205
-0.17
-0.185
-0.145
-0.15
-0.11
-0.115
-0.07
-0.065
-0.025
0.005
0.07
0.12
0.21
0.275
0.375
0.445
0.53
0.565
0.555
0.45
0.33
0.195
0.08
0.0
-0.05
-0.08
-0.085
-0.095
-0.095
-0.095
-0.1
-0.09
-0.09
-0.09
-0.09
-0.1
-0.1
-0.095
-0.1
-0.105
-0.11
-0.125
-0.12
-0.13
-0.135
-0.14
-0.145
-0.15
-0.145
-0.15
-0.155
-0.16
-0.16
-0.17
-0.165
-0.18
-0.17
-0.125
-0.07
-0.075
-0.02
-0.045
-0.01
-0.065
-0.14
-0.24
-0.235
-0.255
-0.245
-0.265
-0.23
-0.315
-0.205
0.585
1.84
1.93
0.33
-0.2
-0.24
-0.19
-0.195
-0.205
-0.195
-0.2
-0.175
-0.18
-0.155
-0.15
-0.115
-0.11
-0.08
-0.06
-0.02
0.01
0.085
0.145
0.235
0.31
0.39
0.46
0.53
0.55
0.505
0.395
0.265
0.13
0.035
-0.035
-0.07
-0.09
-0.1
-0.105
-0.105
-0.105
-0.1
-0.105
-0.095
-0.1
-0.105
-0.095
-0.1
-0.11
-0.12
-0.12
-0.12
-0.12
-0.13
-0.14
-0.155
-0.155
-0.155
-0.14
-0.15
-0.16
-0.16
-0.175
-0.18
-0.165
-0.175
-0.1
-0.08
-0.055
-0.025
-0.03
-0.04
-0.075
-0.18
-0.24
-0.255
-0.245
-0.265
-0.24
-0.245
-0.345
-0.04
1.0
2.11
1.37
0.145
-0.245
-0.22
-0.175
-0.2
-0.195
-0.2
-0.18
-0.185
-0.16
-0.16
-0.135
-0.12
-0.085
-0.07
-0.04
-0.005
0.05
0.105
0.175
0.255
0.345
0.42
0.495
0.55
0.55
0.475
0.345
0.205
0.095
0.0
-0.06
-0.085
-0.1
-0.115
-0.115
-0.12
-0.115
-0.12
-0.115
-0.11
-0.105
-0.115
-0.115
-0.115
-0.115
-0.12
-0.135
-0.135
-0.135
-0.145
-0.15
-0.155
-0.155
-0.16
-0.155
-0.17
-0.165
-0.175
-0.17
-0.115
-0.075
-0.065
-0.01
-0.035
-0.01
-0.055
-0.15
-0.24
-0.24
-0.26
-0.25
-0.255
-0.23
-0.33
-0.165
0.735
1.95
1.815
0.25
-0.22
-0.215
-0.18
-0.185
-0.205
-0.19
-0.185
-0.165
-0.165
-0.14
-0.14
-0.11
-0.1
-0.07
-0.045
-0.01
0.04
0.1
0.165
0.25
0.315
0.405
0.48
0.55
0.555
0.485
0.36
0.225
0.1
0.005
-0.055
-0.085
-0.1
-0.105
-0.115
-0.115
-0.11
-0.11
-0.11
-0.115
-0.105
-0.105
-0.105
-0.125
-0.11
-0.125
-0.12
-0.135
-0.135
-0.14
-0.14
-0.15
-0.15
-0.155
-0.15
-0.165
-0.16
-0.18
-0.17
-0.17
-0.08
-0.085
-0.05
-0.03
-0.015
-0.055
-0.07
-0.175
-0.225
-0.255
-0.235
-0.255
-0.23
-0.25
-0.34
0.03
1.125
2.175
1.165
0.07
-0.22
-0.185
-0.18
-0.205
-0.18
-0.195
-0.175
-0.175
-0.145
-0.145
-0.12
-0.125
-0.09
-0.075
-0.035
-0.005
0.045
0.1
0.19
0.265
0.36
0.425
0.515
0.56
0.555
0.47
0.34
0.2
0.09
0.0
-0.05
-0.08
-0.09
-0.105
-0.11
-0.11
-0.11
-0.11
-0.11
-0.11
-0.105
-0.105
-0.11
-0.12
-0.115
-0.125
-0.125
-0.14
-0.135
-0.14
-0.14
-0.155
-0.15
-0.165
-0.155
-0.17
-0.165
-0.175
-0.165
-0.135
-0.065
-0.07
-0.01
-0.05
0.0
-0.06
-0.13
-0.245
-0.235
-0.27
-0.25
-0.27
-0.23
-0.3
-0.275
0.415
1.71
2.165
0.445
-0.17
-0.235
-0.185
-0.185
-0.215
-0.185
-0.2
-0.165
-0.18
-0.145
-0.145
-0.105
-0.115
-0.07
-0.065
-0.01
0.015
0.075
0.13
0.22
0.295
0.39
0.445
0.525
0.545
0.495
0.38
0.26
0.125
0.025
-0.05
-0.085
-0.11
-0.125
-0.13
-0.125
-0.135
-0.125
-0.125
-0.125
-0.13
-0.125
-0.13
-0.135
-0.135
-0.135
-0.155
-0.145
-0.16
-0.155
-0.165
-0.165
-0.18
-0.18
-0.19
-0.18
-0.17
-0.09
-0.085
-0.06
-0.04
-0.015
-0.055
-0.115
-0.205
-0.235
-0.26
-0.26
-0.275
-0.255
-0.255
-0.36
-0.04
1.005
2.115
1.27
0.11
-0.245
-0.23
-0.2
-0.22
-0.21
-0.215
-0.195
-0.2
-0.175
-0.17
-0.145
-0.14
-0.105
-0.095
-0.055
-0.025
0.025
0.08
0.16
0.235
0.315
0.395
0.47
0.515
0.505
0.425
0.3
0.16
0.045
-0.03
-0.08
-0.11
-0.12
-0.13
-0.125
-0.13
-0.13
-0.13
-0.125
-0.135
-0.13
-0.13
-0.13
-0.135
-0.135
-0.145
-0.15
-0.16
-0.155
-0.165
-0.165
-0.175
-0.17
-0.18
-0.175
-0.115
-0.075
-0.08
-0.02
-0.045
-0.02
-0.08
-0.17
-0.255
-0.25
-0.27
-0.255
-0.265
-0.245
-0.335
-0.2
0.635
1.87
1.85
0.27
-0.22
-0.23
-0.2
-0.205
-0.22
-0.205
-0.205
-0.185
-0.185
-0.155
-0.15
-0.125
-0.115
-0.08
-0.06
-0.015
0.015
0.085
0.145
0.235
0.31
0.395
0.46
0.525
0.525
0.46
0.33
0.2
0.07
-0.005
-0.07
-0.095
-0.115
-0.125
-0.125
-0.13
-0.13
-0.125
-0.125
-0.125
-0.125
-0.12
-0.13
-0.125
-0.13
-0.135
-0.145
-0.145
-0.15
-0.155
-0.165
-0.165
-0.175
-0.18
-0.185
-0.175
-0.125
-0.08
-0.07
-0.02
-0.06
-0.025
-0.075
-0.165
-0.255
-0.245
-0.265
-0.255
-0.265
-0.24
-0.335
-0.205
0.61
1.865
1.87
0.305
-0.205
-0.235
-0.195
-0.2
-0.215
-0.2
-0.2
-0.185
-0.185
-0.16
-0.15
-0.12
-0.11
-0.08
-0.06
-0.01
0.02
0.08
0.15
0.235
0.31
0.39
0.465
0.535
0.53
0.465
0.34
0.21
0.09
0.0
-0.065
-0.09
-0.11
-0.12
-0.115
-0.115
-0.12
-0.115
-0.12
-0.105
-0.11
-0.115
-0.13
-0.12
-0.135
-0.135
-0.155
-0.135
-0.155
-0.15
-0.16
-0.155
-0.175
-0.17
-0.195
-0.165
-0.155
-0.065
-0.08
-0.02
-0.05
0.005
-0.065
-0.115
-0.23
-0.225
-0.255
-0.24
-0.28
-0.245
-0.265
-0.35
0.155
1.41
2.29
0.775
-0.06
-0.255
-0.2
-0.185
-0.22
-0.185
-0.21
-0.18
-0.19
-0.155
-0.165
-0.13
-0.135
-0.08
-0.08
-0.03
-0.005
0.06
0.11
0.18
0.26
0.36
0.42
0.505
0.52
0.495
0.395
0.27
0.13
0.015
-0.05
-0.085
-0.11
-0.115
-0.13
-0.12
-0.125
-0.12
-0.125
-0.125
-0.115
-0.115
-0.125
-0.13
-0.125
-0.13
-0.13
-0.145
-0.14
-0.155
-0.155
-0.17
-0.165
-0.175
-0.165
-0.125
-0.07
-0.07
-0.005
-0.04
0.005
-0.055
-0.145
-0.25
-0.235
-0.265
-0.24
-0.26
-0.235
-0.325
-0.225
0.59
1.855
2.04
0.32
-0.2
-0.235
-0.18
-0.185
-0.21
-0.185
-0.195
-0.165
-0.175
-0.14
-0.145
-0.12
-0.11
-0.075
-0.06
-0.01
0.02
0.09
0.15
0.235
0.31
0.395
0.465
0.52
0.515
0.45
0.325
0.195
0.07
-0.01
-0.07
-0.095
-0.12
-0.125
-0.13
-0.125
-0.13
-0.12
-0.12
-0.11
-0.12
-0.12
-0.125
-0.12
-0.135
-0.13
-0.15
-0.15
-0.165
-0.16
-0.18
-0.165
-0.19
-0.17
-0.145
-0.07
-0.075
-0.02
-0.06
0.005
-0.065
-0.115
-0.235
-0.24
-0.275
-0.245
-0.27
-0.235
-0.275
-0.325
0.25
1.51
2.285
0.64
-0.105
-0.23
-0.175
-0.18
-0.215
-0.185
-0.205
-0.17
-0.18
-0.145
-0.155
-0.115
-0.125
-0.08
-0.07
-0.015
0.01
0.085
0.135
0.225
0.29
0.385
0.45
0.525
0.54
0.495
0.375
0.25
0.115
0.025
-0.04
-0.075
-0.095
-0.105
-0.11
-0.11
-0.11
-0.11
-0.11
-0.11
-0.105
-0.11
-0.11
-0.115
-0.115
-0.125
-0.12
-0.14
-0.135
-0.145
-0.145
-0.155
-0.15
-0.16
-0.15
-0.165
-0.155
-0.14
-0.06
-0.07
-0.015
-0.035
0.005
-0.045
-0.085
-0.2
-0.23
-0.255
-0.24
-0.26
-0.23
-0.245
-0.34
0.05
1.165
2.195
1.07
0.055
-0.22
-0.18
-0.175
-0.21
-0.195
-0.205
-0.175
-0.18
-0.145
-0.145
-0.115
-0.11
-0.075
-0.065
-0.015
0.01
0.07
0.12
0.205
0.275
0.36
0.44
0.52
0.555
0.54
0.45
0.325
0.18
0.075
0.0
-0.035
-0.07
-0.08
-0.095
-0.095
-0.095
-0.095
-0.09
-0.09
-0.095
-0.095
-0.1
-0.1
-0.1
-0.1
-0.11
-0.11
-0.125
-0.13
-0.13
-0.135
-0.14
-0.145
-0.16
-0.15
-0.165
-0.16
-0.17
-0.165
-0.17
-0.09
-0.09
-0.045
-0.025
-0.02
-0.045
-0.075
-0.185
-0.24
-0.255
-0.245
-0.255
-0.24
-0.24
-0.345
-0.035
0.98
2.1
1.32
0.145
-0.21
-0.205
-0.17
-0.195
-0.195
-0.195
-0.175
-0.175
-0.15
-0.15
-0.125
-0.115
-0.085
-0.065
-0.04
0.0
0.055
0.105
0.18
0.26
0.34
0.415
0.49
0.54
0.535
0.445
0.345
0.205
0.08
0.0
-0.045
-0.085
-0.1
-0.1
-0.105
-0.1
-0.095
-0.095
-0.1
-0.1
-0.105
-0.1
-0.095
-0.11
-0.105
-0.12
-0.125
-0.13
-0.13
-0.145
-0.14
-0.155
-0.14
-0.16
-0.15
-0.16
-0.155
-0.175
-0.155
-0.185
-0.165
-0.155
-0.065
-0.1
-0.02
-0.03
0.0
-0.065
-0.095
-0.215
-0.215
-0.26
-0.23
-0.26
-0.225
-0.265
-0.33
0.235
1.525
2.31
0.64
-0.09
-0.25
-0.195
-0.185
-0.22
-0.17
-0.2
-0.165
-0.18
-0.15
-0.16
-0.11
-0.11
-0.065
-0.065
-0.015
0.005
0.08
0.125
0.215
0.275
0.375
0.435
0.515
0.545
0.515
0.415
0.295
0.155
0.05
-0.025
-0.07
-0.095
-0.105
-0.11
-0.11
-0.11
-0.105
-0.11
-0.11
-0.11
-0.11
-0.105
-0.11
-0.11
-0.12
-0.12
-0.125
-0.135
-0.155
-0.145
-0.16
-0.15
-0.17
-0.16
-0.18
-0.165
-0.19
-0.175
-0.165
-0.075
-0.09
-0.04
-0.055
0.0
-0.07
-0.115
-0.225
-0.235
-0.275
-0.255
-0.29
-0.25
-0.295
-0.345
0.215
1.475
2.275
0.64
-0.105
-0.26
-0.195
-0.195
-0.23
-0.2
-0.22
-0.185
-0.2
-0.16
-0.17
-0.125
-0.135
-0.095
-0.08
-0.035
-0.005
0.065
0.115
0.205
0.28
0.365
0.435
0.515
0.54
0.515
0.405
0.285
0.14
0.04
-0.03
-0.07
-0.095
-0.1
-0.115
-0.115
-0.115
-0.115
-0.11
-0.11
-0.11
-0.115
-0.115
-0.115
-0.12
-0.125
-0.13
-0.13
-0.14
-0.14
-0.15
-0.145
-0.16
-0.16
-0.17
-0.165
-0.18
-0.175
-0.13
-0.07
-0.075
-0.02
-0.05
0.0
-0.06
-0.145
-0.24
-0.24
-0.265
-0.25
-0.27
-0.24
-0.32
-0.245
0.505
1.775
2.03
0.355
-0.19
-0.235
-0.19
-0.195
-0.22
-0.19
-0.2
-0.17
-0.18
-0.15
-0.15
-0.12
-0.115
-0.075
-0.06
-0.015
0.02
0.085
0.145
0.23
0.3
0.39
0.455
0.525
0.53
0.475
0.355
0.23
0.1
0.01
-0.045
-0.08
-0.1
-0.105
-0.11
-0.115
-0.115
-0.115
-0.115
-0.115
-0.12
-0.115
-0.125
-0.12
-0.125
-0.13
-0.14
-0.135
-0.15
-0.145
-0.16
-0.15
-0.165
-0.155
-0.17
-0.16
-0.18
-0.165
-0.165
-0.065
-0.08
-0.03
-0.035
0.005
-0.055
-0.095
-0.21
-0.23
-0.26
-0.235
-0.265
-0.23
-0.26
-0.33
0.195
1.425
2.28
0.75
-0.045
-0.225
-0.18
-0.175
-0.21
-0.185
-0.2
-0.165
-0.185
-0.15
-0.155
-0.115
-0.125
-0.075
-0.065
-0.025
-0.005
0.06
0.115
0.205
0.26
0.365
0.43
0.505
0.53
0.505
0.395
0.275
0.13
0.035
-0.03
-0.075
-0.11
-0.12
-0.13
-0.13
-0.13
-0.13
-0.125
-0.13
-0.135
-0.125
-0.125
-0.135
-0.13
-0.135
-0.155
-0.15
-0.155
-0.165
-0.165
-0.175
-0.165
-0.17
-0.17
-0.125
-0.075
-0.065
-0.015
-0.035
-0.01
-0.06
-0.165
-0.245
-0.235
-0.255
-0.245
-0.26
-0.24
-0.33
-0.18
0.685
1.92
1.79
0.28
-0.21
-0.23
-0.175
-0.19
-0.2
-0.17
-0.185
-0.175
-0.165
-0.135
-0.135
-0.1
-0.095
-0.065
-0.055
0.0
0.03
0.085
0.15
0.235
0.31
0.395
0.465
0.53
0.515
0.44
0.31
0.17
0.06
-0.02
-0.07
-0.105
-0.12
-0.115
-0.13
-0.14
-0.13
-0.125
-0.135
-0.135
-0.135
-0.13
-0.14
-0.13
-0.15
-0.14
-0.15
-0.15
-0.165
-0.16
-0.175
-0.175
-0.13
-0.075
-0.09
-0.015
-0.015
0.0
-0.055
-0.16
-0.245
-0.255
-0.255
-0.25
-0.265
-0.245
-0.345
-0.2
0.675
1.945
1.9
0.245
-0.245
-0.24
-0.215
-0.205
-0.22
-0.205
-0.215
-0.185
-0.185
-0.165
-0.16
-0.125
-0.12
-0.08
-0.06
-0.02
0.02
0.075
0.14
0.24
0.315
0.4
0.46
0.505
0.49
0.415
0.285
0.15
0.025
-0.045
-0.09
-0.12
-0.135
-0.135
-0.15
-0.14
-0.15
-0.14
-0.145
-0.135
-0.145
-0.135
-0.135
-0.13
-0.15
-0.145
-0.16
-0.15
-0.17
-0.16
-0.135
-0.07
-0.07
-0.015
-0.02
0.025
-0.045
-0.13
-0.25
-0.23
-0.26
-0.25
-0.27
-0.235
-0.325
-0.245
0.57
1.845
2.03
0.285
-0.21
-0.22
-0.195
-0.195
-0.225
-0.2
-0.21
-0.175
-0.185
-0.155
-0.16
-0.125
-0.125
-0.085
-0.07
-0.02
0.015
0.085
0.15
0.24
0.305
0.39
0.455
0.51
0.49
0.41
0.275
0.14
0.015
-0.05
-0.105
-0.125
-0.14
-0.15
-0.15
-0.145
-0.145
-0.15
-0.14
-0.145
-0.135
-0.15
-0.14
-0.15
-0.15
-0.165
-0.155
-0.17
-0.095
-0.085
-0.055
-0.025
-0.005
-0.035
-0.075
-0.19
-0.245
-0.27
-0.255
-0.275
-0.25
-0.26
-0.37
-0.045
1.02
2.125
1.165
0.055
-0.225
-0.195
-0.195
-0.225
-0.21
-0.215
-0.195
-0.2
-0.175
-0.17
-0.145
-0.13
-0.11
-0.09
-0.05
-0.02
0.035
0.095
0.17
0.235
0.33
0.41
0.465
0.485
0.445
0.335
0.2
0.065
-0.02
-0.09
-0.125
-0.14
-0.15
-0.145
-0.16
-0.15
-0.155
-0.165
-0.15
-0.15
-0.155
-0.16
-0.165
-0.165
-0.17
-0.105
-0.08
-0.065
-0.02
-0.015
-0.01
-0.05
-0.16
-0.26
-0.27
-0.26
-0.25
-0.265
-0.255
-0.35
-0.17
0.775
1.965
1.55
0.19
-0.225
-0.23
-0.195
-0.225
-0.235
-0.21
-0.21
-0.205
-0.18
-0.185
-0.165
-0.15
-0.125
-0.1
-0.075
-0.035
0.005
0.07
0.16
0.23
0.305
0.38
0.44
0.475
0.43
0.325
0.18
0.065
-0.03
-0.095
-0.135
-0.155
-0.15
-0.16
-0.155
-0.165
-0.165
-0.155
-0.155
-0.155
-0.16
-0.165
-0.175
-0.18
-0.105
-0.08
-0.05
0.0
-0.01
0.005
-0.04
-0.16
-0.23
-0.255
-0.265
-0.275
-0.27
-0.25
-0.37
-0.155
0.895
2.04
1.53
0.135
-0.285
-0.24
-0.2
-0.205
-0.22
-0.225
-0.205
-0.2
-0.22
-0.17
-0.15
-0.14
-0.135
-0.11
-0.09
-0.03
0.005
0.065
0.155
0.23
0.285
0.36
0.435
0.45
0.395
0.29
0.135
0.025
-0.06
-0.12
-0.14
-0.16
-0.175
-0.175
-0.175
-0.16
-0.18
-0.17
-0.17
-0.175
-0.16
-0.17
-0.175
-0.115
-0.095
-0.065
-0.005
0.0
0.0
-0.04
-0.155
-0.25
-0.265
-0.27
-0.28
-0.27
-0.27
-0.38
-0.105
0.97
2.075
1.405
0.1
-0.285
-0.235
-0.225
-0.23
-0.215
-0.235
-0.22
-0.2
-0.195
-0.19
-0.17
-0.155
-0.135
-0.12
-0.08
-0.055
0.0
0.07
0.14
0.195
0.305
0.335
0.39
0.425
0.35
0.245
0.125
0.025
-0.07
-0.095
-0.145
-0.15
-0.165
-0.16
-0.17
-0.155
-0.175
-0.13
-0.155
-0.145
-0.17
-0.135
-0.13
-0.065
-0.085
-0.03
-0.03
0.04
-0.04
-0.075
-0.225
-0.23
-0.27
-0.255
-0.285
-0.24
-0.32
-0.345
0.26
1.59
2.335
0.485
-0.16
-0.26
-0.205
-0.2
-0.23
-0.2
-0.23
-0.18
-0.2
-0.175
-0.185
-0.155
-0.16
-0.115
-0.12
-0.065
-0.025
0.04
0.085
0.175
0.23
0.31
0.375
0.43
0.4
0.31
0.195
0.07
-0.02
-0.1
-0.14
-0.155
-0.165
-0.155
-0.175
-0.165
-0.165
-0.16
-0.145
-0.17
-0.155
-0.135
-0.035
-0.06
-0.005
-0.05
0.04
-0.02
-0.09
-0.225
-0.235
-0.27
-0.25
-0.28
-0.255
-0.305
-0.365
0.295
1.67
2.35
0.465
-0.195
-0.26
-0.205
-0.19
-0.24
-0.2
-0.24
-0.2
-0.215
-0.17
-0.205
-0.135
-0.145
-0.105
-0.105
-0.06
-0.03
0.025
0.095
0.165
0.255
0.32
0.4
0.41
0.36
0.28
0.155
0.035
-0.055
-0.115
-0.14
-0.16
-0.18
-0.17
-0.195
-0.175
-0.17
-0.19
-0.175
-0.135
-0.07
-0.085
-0.045
-0.055
0.015
-0.04
-0.085
-0.2
-0.225
-0.3
-0.25
-0.285
-0.255
-0.295
-0.395
0.0
1.24
2.335
1.03
-0.06
-0.275
-0.23
-0.23
-0.25
-0.24
-0.26
-0.24
-0.25
-0.195
-0.22
-0.185
-0.155
-0.16
-0.15
-0.08
-0.06
0.045
0.04
0.135
0.225
0.31
0.345
0.445
0.37
0.28
0.19
0.03
-0.025
-0.11
-0.145
-0.155
-0.115
-0.17
-0.17
-0.185
-0.14
-0.165
-0.14
-0.07
-0.085
-0.025
-0.02
-0.02
-0.015
-0.045
-0.16
-0.185
-0.25
-0.27
-0.26
-0.29
-0.225
-0.355
-0.16
0.715
1.965
1.74
0.2
-0.275
-0.255
-0.205
-0.22
-0.23
-0.245
-0.235
-0.205
-0.225
-0.19
-0.175
-0.18
-0.15
-0.11
-0.13
-0.065
0.0
0.07
0.12
0.2
0.295
0.36
0.38
0.405
0.305
0.155
0.105
-0.05
-0.085
-0.185
-0.14
-0.215
-0.205
-0.225
-0.185
-0.21
-0.175
-0.15
-0.085
-0.095
-0.025
-0.04
0.005
-0.015
-0.14
-0.23
-0.24
-0.28
-0.235
-0.285
-0.26
-0.315
-0.42
0.155
1.565
2.455
0.695
-0.11
-0.28
-0.19
-0.21
-0.26
-0.21
-0.235
-0.205
-0.225
-0.2
-0.2
-0.155
-0.155
-0.105
-0.115
-0.055
-0.035
0.065
0.045
0.155
0.22
0.305
0.345
0.38
0.32
0.235
0.085
0.005
-0.075
-0.12
-0.16
-0.15
-0.175
-0.16
-0.185
-0.15
-0.18
-0.155
-0.105
-0.05
-0.045
-0.01
-0.03
0.04
-0.025
-0.06
-0.245
-0.23
-0.285
-0.235
-0.285
-0.235
-0.305
-0.39
0.28
1.62
2.405
0.565
-0.15
-0.27
-0.205
-0.195
-0.235
-0.19
-0.23
-0.215
-0.22
-0.175
-0.2
-0.16
-0.155
-0.095
-0.085
-0.065
-0.02
0.03
0.09
0.18
0.235
0.33
0.37
0.395
0.345
0.255
0.125
0.04
-0.075
-0.12
-0.14
-0.15
-0.15
-0.16
-0.145
-0.15
-0.15
-0.145
-0.135
-0.08
-0.02
-0.035
-0.01
-0.025
0.035
-0.04
-0.125
-0.24
-0.235
-0.28
-0.26
-0.27
-0.26
-0.37
-0.25
0.63
1.895
2.055
0.21
-0.245
-0.215
-0.205
-0.21
-0.245
-0.21
-0.225
-0.19
-0.205
-0.175
-0.19
-0.13
-0.16
-0.09
-0.125
-0.06
-0.01
0.06
0.11
0.19
0.25
0.33
0.375
0.385
0.32
0.215
0.08
0.0
-0.07
-0.12
-0.14
-0.145
-0.155
-0.145
-0.145
-0.145
-0.125
-0.16
-0.15
-0.11
-0.075
-0.05
-0.02
-0.01
-0.01
-0.01
-0.035
-0.155
-0.24
-0.25
-0.25
-0.27
-0.28
-0.25
-0.37
-0.14
0.85
2.01
1.55
0.135
-0.225
-0.2
-0.205
-0.21
-0.215
-0.205
-0.21
-0.2
-0.195
-0.17
-0.16
-0.15
-0.13
-0.11
-0.08
-0.035
0.01
0.065
0.125
0.2
0.27
0.335
0.385
0.38
0.285
0.19
0.07
-0.01
-0.07
-0.125
-0.145
-0.14
-0.145
-0.15
-0.15
-0.15
-0.155
-0.155
-0.145
-0.135
-0.085
-0.065
-0.03
-0.025
-0.025
-0.015
-0.06
-0.15
-0.235
-0.245
-0.255
-0.255
-0.25
-0.255
-0.355
-0.15
0.775
1.945
1.54
0.14
-0.22
-0.185
-0.195
-0.225
-0.225
-0.22
-0.21
-0.21
-0.185
-0.175
-0.175
-0.145
-0.13
-0.105
-0.065
-0.04
0.005
0.08
0.13
0.2
0.275
0.34
0.385
0.385
0.305
0.195
0.08
-0.005
-0.08
-0.12
-0.145
-0.13
-0.155
-0.15
-0.16
-0.14
-0.17
-0.145
-0.165
-0.16
-0.125
-0.06
-0.065
-0.01
-0.05
0.03
-0.045
-0.09
-0.22
-0.23
-0.275
-0.235
-0.275
-0.24
-0.29
-0.355
0.25
1.54
2.245
0.515
-0.16
-0.245
-0.19
-0.175
-0.22
-0.195
-0.235
-0.18
-0.21
-0.17
-0.175
-0.14
-0.145
-0.095
-0.1
-0.04
-0.015
0.045
0.11
0.185
0.23
0.31
0.35
0.39
0.345
0.255
0.145
0.04
-0.045
-0.08
-0.12
-0.15
-0.14
-0.14
-0.145
-0.145
-0.155
-0.15
-0.145
-0.15
-0.15
-0.075
-0.065
-0.015
-0.005
0.015
0.0
-0.03
-0.155
-0.23
-0.26
-0.25
-0.255
-0.265
-0.245
-0.375
-0.105
0.945
2.06
1.375
0.085
-0.25
-0.185
-0.2
-0.205
-0.2
-0.215
-0.195
-0.195
-0.18
-0.165
-0.15
-0.145
-0.12
-0.085
-0.06
-0.025
0.03
0.09
0.14
0.21
0.285
0.35
0.39
0.37
0.295
0.18
0.07
-0.02
-0.075
-0.12
-0.13
-0.14
-0.145
-0.135
-0.14
-0.15
-0.135
-0.145
-0.15
-0.145
-0.13
-0.065
-0.045
-0.005
0.0
0.0
0.0
-0.025
-0.14
-0.25
-0.24
-0.25
-0.26
-0.25
-0.235
-0.36
-0.14
0.855
2.005
1.53
0.095
-0.23
-0.16
-0.18
-0.195
-0.19
-0.195
-0.185
-0.175
-0.165
-0.155
-0.145
-0.125
-0.105
-0.085
-0.055
-0.015
0.03
0.085
0.155
0.225
0.285
0.355
0.4
0.4
0.32
0.215
0.1
0.015
-0.06
-0.085
-0.115
-0.115
-0.13
-0.115
-0.13
-0.11
-0.13
-0.12
-0.135
-0.12
-0.145
-0.13
-0.105
-0.03
-0.04
0.0
-0.03
0.05
-0.035
-0.08
-0.215
-0.23
-0.26
-0.245
-0.275
-0.235
-0.275
-0.365
0.16
1.425
2.23
0.59
-0.1
-0.19
-0.155
-0.165
-0.2
-0.175
-0.2
-0.16
-0.18
-0.14
-0.145
-0.115
-0.125
-0.075
-0.07
-0.02
0.0
0.065
0.105
0.18
0.235
0.315
0.365
0.41
0.375
0.3
0.175
0.08
-0.005
-0.055
-0.095
-0.11
-0.115
-0.115
-0.125
-0.115
-0.12
-0.12
-0.13
-0.135
-0.135
-0.14
-0.145
-0.145
-0.08
-0.055
-0.03
-0.01
-0.005
-0.01
-0.065
-0.16
-0.24
-0.25
-0.26
-0.25
-0.255
-0.24
-0.325
-0.185
0.675
1.875
1.575
0.22
-0.175
-0.155
-0.16
-0.175
-0.18
-0.175
-0.17
-0.165
-0.155
-0.145
-0.125
-0.11
-0.095
-0.07
-0.04
0.0
0.04
0.095
0.15
0.215
0.28
0.34
0.4
0.405
0.355
0.255
0.14
0.045
-0.02
-0.075
-0.085
-0.1
-0.105
-0.115
-0.115
-0.12
-0.11
-0.12
-0.115
-0.135
-0.125
-0.14
-0.135
-0.155
-0.14
-0.1
-0.05
-0.05
-0.005
-0.025
0.025
-0.05
-0.115
-0.24
-0.235
-0.26
-0.24
-0.27
-0.23
-0.3
-0.305
0.365
1.645
2.015
0.4
-0.165
-0.2
-0.17
-0.175
-0.205
-0.185
-0.205
-0.18
-0.175
-0.15
-0.15
-0.12
-0.115
-0.075
-0.07
-0.025
0.01
0.065
0.12
0.185
0.22
0.305
0.355
0.405
0.365
0.28
0.16
0.06
-0.015
-0.075
-0.11
-0.125
-0.125
-0.13
-0.13
-0.14
-0.12
-0.14
-0.135
-0.135
-0.135
-0.15
-0.145
-0.165
-0.155
-0.155
-0.075
-0.075
-0.02
-0.025
0.02
-0.03
-0.07
-0.21
-0.235
-0.265
-0.245
-0.26
-0.235
-0.245
-0.355
-0.02
1.07
2.13
1.02
0.04
-0.205
-0.16
-0.165
-0.2
-0.18
-0.195
-0.17
-0.18
-0.15
-0.15
-0.12
-0.115
-0.085
-0.075
-0.03
0.0
0.055
0.095
0.165
0.215
0.29
0.34
0.395
0.385
0.325
0.215
0.11
0.01
-0.045
-0.095
-0.11
-0.13
-0.13
-0.135
-0.13
-0.135
-0.13
-0.14
-0.13
-0.14
-0.14
-0.15
-0.155
-0.16
-0.16
-0.165
-0.17
-0.115
-0.065
-0.05
-0.02
-0.025
0.0
-0.055
-0.155
-0.245
-0.25
-0.265
-0.26
-0.26
-0.24
-0.325
-0.23
0.57
1.81
1.72
0.265
-0.185
-0.185
-0.185
-0.19
-0.2
-0.2
-0.195
-0.185
-0.175
-0.155
-0.145
-0.125
-0.11
-0.075
-0.055
-0.015
0.015
0.075
0.13
0.195
0.26
0.325
0.385
0.405
0.36
0.27
0.155
0.055
-0.02
-0.075
-0.1
-0.12
-0.125
-0.12
-0.125
-0.125
-0.125
-0.13
-0.13
-0.13
-0.135
-0.14
-0.15
-0.15
-0.16
-0.16
-0.17
-0.17
-0.17
-0.09
-0.075
-0.03
-0.02
-0.005
-0.01
-0.05
-0.175
-0.23
-0.245
-0.245
-0.255
-0.24
-0.24
-0.335
-0.125
0.81
1.975
1.36
0.18
-0.18
-0.16
-0.16
-0.18
-0.175
-0.175
-0.17
-0.17
-0.145
-0.14
-0.115
-0.105
-0.08
-0.055
-0.02
0.0
0.05
0.1
0.165
0.225
0.295
0.36
0.425
0.425
0.385
0.285
0.175
0.08
0.0
-0.045
-0.075
-0.085
-0.095
-0.095
-0.1
-0.1
-0.1
-0.1
-0.105
-0.095
-0.105
-0.105
-0.12
-0.115
-0.13
-0.125
-0.145
-0.135
-0.155
-0.145
-0.16
-0.145
-0.175
-0.15
-0.14
-0.05
-0.06
-0.01
-0.035
0.025
-0.04
-0.08
-0.205
-0.215
-0.25
-0.23
-0.255
-0.22
-0.26
-0.335
0.165
1.39
2.22
0.685
-0.06
-0.205
-0.15
-0.15
-0.19
-0.155
-0.18
-0.14
-0.16
-0.12
-0.13
-0.09
-0.09
-0.05
-0.045
0.0
0.025
0.09
0.13
0.21
0.255
0.34
0.39
0.45
0.445
0.395
0.29
0.19
0.08
0.015
-0.03
-0.05
-0.06
-0.06
-0.07
-0.07
-0.065
-0.06
-0.065
-0.065
-0.07
-0.075
-0.085
-0.09
-0.095
-0.105
-0.105
-0.115
-0.115
-0.13
-0.125
-0.135
-0.125
-0.14
-0.135
-0.145
-0.14
-0.16
-0.145
-0.165
-0.155
-0.16
-0.065
-0.07
-0.015
-0.03
-0.015
-0.03
-0.045
-0.17
-0.22
-0.24
-0.225
-0.25
-0.215
-0.235
-0.335
0.05
1.175
2.19
0.965
0.045
-0.2
-0.15
-0.145
-0.185
-0.16
-0.17
-0.145
-0.16
-0.125
-0.13
-0.095
-0.095
-0.055
-0.05
0.0
0.015
0.075
0.12
0.195
0.245
0.315
0.375
0.44
0.46
0.425
0.33
0.22
0.115
0.035
-0.02
-0.05
-0.065
-0.075
-0.09
-0.08
-0.085
-0.085
-0.09
-0.09
-0.09
-0.09
-0.095
-0.095
-0.105
-0.11
-0.115
-0.125
-0.125
-0.125
-0.13
-0.13
-0.14
-0.135
-0.145
-0.14
-0.15
-0.15
-0.165
-0.155
-0.165
-0.155
-0.145
-0.06
-0.07
-0.02
-0.03
0.01
-0.045
-0.09
-0.2
-0.22
-0.245
-0.23
-0.25
-0.215
-0.285
-0.26
0.435
1.715
2.1
0.445
-0.15
-0.215
-0.155
-0.155
-0.18
-0.16
-0.175
-0.14
-0.155
-0.115
-0.115
-0.085
-0.08
-0.04
-0.02
0.02
0.05
0.115
0.165
0.235
0.295
0.375
0.43
0.485
0.475
0.415
0.305
0.2
0.095
0.035
-0.015
-0.035
-0.045
-0.045
-0.05
-0.045
-0.05
-0.045
-0.045
-0.045
-0.045
-0.045
-0.045
-0.05
-0.05
-0.055
-0.06
-0.065
-0.07
-0.07
-0.075
-0.075
-0.08
-0.08
-0.085
-0.09
-0.095
-0.1
-0.105
-0.1
-0.11
-0.105
-0.11
-0.11
-0.12
-0.12
-0.125
-0.12
-0.135
-0.135
-0.145
-0.14
-0.155
-0.145
-0.155
-0.095
-0.06
-0.035
-0.02
-0.025
0.0
-0.03
-0.14
-0.205
-0.23
-0.22
-0.24
-0.22
-0.225
-0.315
-0.045
0.945
2.065
1.34
0.16
-0.21
-0.185
-0.155
-0.185
-0.175
-0.175
-0.155
-0.155
-0.135
-0.13
-0.105
-0.09
-0.06
-0.04
0.0
0.025
0.075
0.13
0.195
0.255
0.33
0.395
0.46
0.5
0.495
0.425
0.315
0.195
0.1
0.025
-0.015
-0.04
-0.05
-0.06
-0.055
-0.055
-0.05
-0.05
-0.05
-0.05
-0.05
-0.05
-0.055
-0.06
-0.065
-0.07
-0.075
-0.075
-0.08
-0.085
-0.09
-0.09
-0.1
-0.1
-0.105
-0.105
-0.115
-0.115
-0.12
-0.125
-0.125
-0.125
-0.135
-0.135
-0.14
-0.145
-0.15
-0.155
-0.155
-0.16
-0.16
-0.12
-0.065
-0.055
-0.025
-0.04
0.0
-0.05
-0.12
-0.22
-0.225
-0.235
-0.235
-0.235
-0.22
-0.31
-0.17
0.675
1.905
1.75
0.285
-0.195
-0.2
-0.155
-0.17
-0.175
-0.165
-0.16
-0.15
-0.14
-0.12
-0.11
-0.09
-0.07
-0.04
-0.015
0.015
0.065
0.12
0.19
0.255
0.33
0.405
0.465
0.515
0.51
0.435
0.325
0.205
0.105
0.03
-0.015
-0.04
-0.055
-0.055
-0.055
-0.055
-0.05
-0.05
-0.045
-0.045
-0.045
-0.045
-0.05
-0.05
-0.055
-0.06
-0.065
-0.065
-0.07
-0.075
-0.08
-0.085
-0.09
-0.09
-0.09
-0.09
-0.1
-0.1
-0.105
-0.105
-0.115
-0.11
-0.12
-0.115
-0.13
-0.12
-0.135
-0.125
-0.14
-0.13
-0.15
-0.135
-0.155
-0.14
-0.165
-0.145
-0.165
-0.08
-0.075
-0.03
-0.025
-0.01
-0.035
-0.045
-0.18
-0.215
-0.25
-0.23
-0.26
-0.22
-0.255
-0.335
0.165
1.395
2.255
0.76
-0.04
-0.23
-0.17
-0.155
-0.195
-0.165
-0.185
-0.155
-0.16
-0.125
-0.135
-0.095
-0.1
-0.055
-0.05
0.0
0.025
0.09
0.135
0.22
0.275
0.365
0.42
0.495
0.515
0.5
0.4
0.29
0.165
0.07
0.0
-0.03
-0.06
-0.065
-0.07
-0.065
-0.065
-0.07
-0.07
-0.065
-0.06
-0.06
-0.065
-0.065
-0.065
-0.065
-0.07
-0.075
-0.08
-0.085
-0.085
-0.095
-0.095
-0.105
-0.105
-0.115
-0.11
-0.115
-0.115
-0.125
-0.125
-0.13
-0.125
-0.135
-0.13
-0.145
-0.135
-0.15
-0.145
-0.155
-0.155
-0.165
-0.16
-0.175
-0.17
-0.18
-0.115
-0.08
-0.05
-0.035
-0.045
-0.015
-0.05
-0.155
-0.215
-0.25
-0.235
-0.255
-0.23
-0.24
-0.335
-0.025
1.005
2.11
1.315
0.135
-0.22
-0.195
-0.17
-0.19
-0.18
-0.19
-0.165
-0.165
-0.145
-0.14
-0.115
-0.105
-0.08
-0.06
-0.025
0.005
0.055
0.115
0.185
0.255
0.34
0.405
0.47
0.515
0.505
0.43
0.31
0.18
0.08
0.0
-0.04
-0.065
-0.075
-0.09
-0.09
-0.09
-0.09
-0.085
-0.085
-0.085
-0.085
-0.085
-0.09
-0.085
-0.095
-0.1
-0.105
-0.12
-0.115
-0.115
-0.125
-0.13
-0.13
-0.125
-0.135
-0.14
-0.145
-0.145
-0.15
-0.155
-0.16
-0.16
-0.17
-0.165
-0.18
-0.175
-0.17
-0.125
-0.08
-0.065
-0.035
-0.05
-0.02
-0.06
-0.145
-0.23
-0.245
-0.245
-0.255
-0.235
-0.225
-0.325
-0.11
0.83
2.015
1.595
0.235
-0.21
-0.21
-0.17
-0.18
-0.185
-0.185
-0.175
-0.165
-0.15
-0.135
-0.115
-0.1
-0.07
-0.05
-0.02
0.015
0.06
0.12
0.195
0.265
0.34
0.415
0.485
0.53
0.515
0.44
0.31
0.185
0.075
0.0
-0.045
-0.075
-0.09
-0.1
-0.1
-0.095
-0.1
-0.095
-0.095
-0.095
-0.095
-0.09
-0.095
-0.1
-0.1
-0.105
-0.105
-0.115
-0.115
-0.125
-0.12
-0.135
-0.13
-0.14
-0.135
-0.145
-0.14
-0.15
-0.145
-0.165
-0.145
-0.17
-0.155
-0.175
-0.16
-0.16
-0.07
-0.085
-0.025
-0.045
-0.005
-0.06
-0.075
-0.2
-0.22
-0.26
-0.23
-0.26
-0.22
-0.27
-0.3
0.3
1.59
2.285
0.59
-0.11
-0.23
-0.17
-0.17
-0.2
-0.17
-0.19
-0.155
-0.165
-0.125
-0.14
-0.095
-0.095
-0.055
-0.045
0.005
0.035
0.105
0.15
0.245
0.305
0.4
0.465
0.53
0.535
0.495
0.375
0.255
0.125
0.035
-0.025
-0.055
-0.075
-0.085
-0.09
-0.09
-0.095
-0.09
-0.09
-0.085
-0.085
-0.085
-0.09
-0.09
-0.09
-0.095
-0.095
-0.105
-0.105
-0.115
-0.115
-0.12
-0.12
-0.135
-0.13
-0.14
-0.13
-0.145
-0.14
-0.155
-0.145
-0.16
-0.15
-0.17
-0.155
-0.17
-0.11
-0.09
-0.045
-0.105
-0.075
-0.09
-0.09
-0.16
-0.215
-0.25
-0.225
-0.245
-0.21
-0.235
-0.32
0.11
1.265
2.255
0.98
0.035
-0.21
-0.16
-0.145
-0.18
-0.16
-0.175
-0.145
-0.155
-0.12
-0.13
-0.095
-0.095
-0.06
-0.055
-0.005
0.015
0.08
0.135
0.22
0.285
0.375
0.445
0.52
0.535
0.505
0.405
0.275
0.145
0.045
-0.025
-0.055
-0.08
-0.09
-0.105
-0.095
-0.1
-0.1
-0.1
-0.095
-0.1
-0.1
-0.105
-0.1
-0.11
-0.105
-0.115
-0.115
-0.12
-0.12
-0.13
-0.13
-0.14
-0.14
-0.15
-0.145
-0.155
-0.15
-0.165
-0.155
-0.145
-0.095
-0.105
-0.055
-0.105
-0.095
-0.095
-0.115
-0.185
-0.23
-0.245
-0.22
-0.235
-0.205
-0.28
-0.215
0.515
1.805
2.07
0.43
-0.15
-0.205
-0.16
-0.16
-0.18
-0.16
-0.175
-0.145
-0.15
-0.12
-0.125
-0.095
-0.09
-0.055
-0.04
0.005
0.035
0.11
0.17
0.255
0.325
0.41
0.47
0.525
0.51
0.44
0.31
0.185
0.065
-0.005
-0.06
-0.09
-0.11
-0.115
-0.115
-0.11
-0.11
-0.115
-0.11
-0.11
-0.11
-0.115
-0.115
-0.12
-0.115
-0.125
-0.125
-0.135
-0.135
-0.145
-0.145
-0.155
-0.155
-0.17
-0.16
-0.17
-0.165
-0.175
-0.165
-0.16
-0.11
-0.115
-0.075
-0.125
-0.125
-0.115
-0.135
-0.2
-0.24
-0.255
-0.235
-0.25
-0.22
-0.305
-0.2
0.56
1.84
1.995
0.385
-0.165
-0.2
-0.16
-0.165
-0.18
-0.165
-0.175
-0.15
-0.155
-0.125
-0.13
-0.1
-0.095
-0.055
-0.045
0.0
0.035
0.1
0.165
0.25
0.325
0.41
0.47
0.535
0.515
0.44
0.315
0.185
0.07
0.0
-0.055
-0.075
-0.095
-0.1
-0.1
-0.1
-0.1
-0.1
-0.105
-0.1
-0.11
-0.105
-0.115
-0.11
-0.12
-0.115
-0.135
-0.125
-0.14
-0.135
-0.15
-0.145
-0.16
-0.15
-0.17
-0.155
-0.185
-0.165
-0.175
-0.125
-0.12
-0.06
-0.14
-0.12
-0.12
-0.125
-0.19
-0.23
-0.265
-0.23
-0.265
-0.225
-0.27
-0.305
0.275
1.54
2.27
0.645
-0.09
-0.215
-0.155
-0.155
-0.19
-0.155
-0.18
-0.145
-0.16
-0.13
-0.135
-0.09
-0.1
-0.05
-0.055
0.0
0.02
0.095
0.145
0.24
0.3
0.39
0.45
0.52
0.52
0.46
0.345
0.215
0.095
0.015
-0.045
-0.07
-0.09
-0.1
-0.105
-0.105
-0.105
-0.105
-0.1
-0.105
-0.11
-0.105
-0.105
-0.105
-0.115
-0.115
-0.13
-0.13
-0.135
-0.14
-0.15
-0.145
-0.155
-0.15
-0.16
-0.16
-0.17
-0.17
-0.19
-0.17
-0.175
-0.115
-0.125
-0.09
-0.12
-0.145
-0.13
-0.145
-0.21
-0.25
-0.265
-0.25
-0.26
-0.23
-0.315
-0.205
0.585
1.86
1.95
0.36
-0.18
-0.21
-0.165
-0.165
-0.19
-0.17
-0.18
-0.155
-0.155
-0.135
-0.135
-0.1
-0.09
-0.055
-0.05
0.0
0.04
0.1
0.165
0.255
0.325
0.405
0.46
0.515
0.505
0.42
0.3
0.175
0.065
-0.015
-0.06
-0.08
-0.1
-0.11
-0.105
-0.11
-0.105
-0.105
-0.105
-0.11
-0.105
-0.105
-0.11
-0.115
-0.115
-0.115
-0.125
-0.135
-0.135
-0.14
-0.145
-0.16
-0.155
-0.17
-0.17
-0.175
-0.175
-0.18
-0.18
-0.175
-0.16
-0.105
-0.105
-0.125
-0.115
-0.145
-0.125
-0.16
-0.21
-0.25
-0.25
-0.25
-0.24
-0.235
-0.33
-0.07
0.9
2.065
1.52
0.215
-0.195
-0.175
-0.155
-0.175
-0.17
-0.17
-0.155
-0.15
-0.14
-0.13
-0.11
-0.1
-0.08
-0.055
-0.02
0.015
0.065
0.12
0.2
0.275
0.345
0.42
0.49
0.525
0.5
0.41
0.285
0.155
0.055
-0.015
-0.06
-0.085
-0.095
-0.105
-0.1
-0.1
-0.1
-0.095
-0.095
-0.1
-0.1
-0.1
-0.105
-0.105
-0.105
-0.115
-0.115
-0.125
-0.125
-0.135
-0.135
-0.145
-0.145
-0.15
-0.15
-0.16
-0.16
-0.165
-0.165
-0.16
-0.15
-0.095
-0.09
-0.115
-0.11
-0.13
-0.125
-0.155
-0.205
-0.25
-0.245
-0.245
-0.235
-0.225
-0.32
-0.06
0.89
2.065
1.525
0.21
-0.185
-0.17
-0.155
-0.175
-0.17
-0.165
-0.16
-0.15
-0.135
-0.13
-0.11
-0.1
-0.08
-0.055
-0.025
0.005
0.06
0.12
0.195
0.27
0.355
0.43
0.5
0.54
0.515
0.425
0.3
0.17
0.065
-0.005
-0.05
-0.075
-0.085
-0.09
-0.095
-0.095
-0.095
-0.09
-0.095
-0.09
-0.095
-0.095
-0.1
-0.1
-0.105
-0.105
-0.115
-0.11
-0.125
-0.125
-0.14
-0.135
-0.145
-0.14
-0.155
-0.15
-0.165
-0.16
-0.175
-0.16
-0.165
-0.135
-0.095
-0.07
-0.125
-0.105
-0.12
-0.12
-0.165
-0.205
-0.245
-0.23
-0.245
-0.22
-0.225
-0.32
0.03
1.105
2.185
1.205
0.115
-0.195
-0.16
-0.15
-0.18
-0.16
-0.18
-0.145
-0.155
-0.125
-0.13
-0.1
-0.095
-0.055
-0.045
-0.01
0.015
0.08
0.13
0.215
0.285
0.365
0.435
0.51
0.535
0.51
0.41
0.285
0.155
0.055
-0.015
-0.055
-0.08
-0.09
-0.1
-0.095
-0.1
-0.095
-0.095
-0.09
-0.095
-0.095
-0.1
-0.095
-0.105
-0.105
-0.115
-0.11
-0.125
-0.12
-0.135
-0.13
-0.145
-0.14
-0.155
-0.145
-0.16
-0.15
-0.17
-0.16
-0.165
-0.14
-0.1
-0.075
-0.115
-0.1
-0.13
-0.12
-0.155
-0.2
-0.25
-0.225
-0.245
-0.215
-0.225
-0.315
0.02
1.085
2.185
1.24
0.135
-0.19
-0.165
-0.145
-0.17
-0.165
-0.17
-0.15
-0.15
-0.125
-0.125
-0.1
-0.1
-0.065
-0.055
-0.015
0.01
0.07
0.13
0.21
0.28
0.365
0.43
0.505
0.535
0.5
0.4
0.275
0.145
0.045
-0.025
-0.065
-0.09
-0.105
-0.105
-0.105
-0.11
-0.11
-0.105
-0.105
-0.105
-0.11
-0.11
-0.115
-0.11
-0.12
-0.125
-0.13
-0.135
-0.14
-0.155
-0.16
-0.155
-0.165
-0.16
-0.17
-0.165
-0.18
-0.17
-0.175
-0.16
-0.105
-0.1
-0.13
-0.115
-0.13
-0.12
-0.17
-0.225
-0.26
-0.245
-0.255
-0.23
-0.22
-0.33
-0.04
0.97
2.115
1.39
0.175
-0.21
-0.2
-0.16
-0.18
-0.18
-0.185
-0.165
-0.165
-0.14
-0.14
-0.115
-0.11
-0.075
-0.06
-0.03
0.005
0.06
0.12
0.195
0.26
0.345
0.415
0.49
0.52
0.495
0.395
0.275
0.15
0.035
-0.03
-0.065
-0.09
-0.11
-0.115
-0.115
-0.105
-0.115
-0.11
-0.1
-0.11
-0.1
-0.11
-0.105
-0.12
-0.12
-0.125
-0.13
-0.135
-0.14
-0.145
-0.15
-0.16
-0.155
-0.165
-0.165
-0.185
-0.16
-0.155
-0.095
-0.12
-0.095
-0.13
-0.125
-0.125
-0.135
-0.22
-0.235
-0.255
-0.23
-0.25
-0.22
-0.305
-0.21
0.59
1.89
2.1
0.39
-0.18
-0.21
-0.16
-0.16
-0.185
-0.155
-0.17
-0.145
-0.15
-0.115
-0.12
-0.09
-0.085
-0.055
-0.035
0.01
0.045
0.115
0.175
0.26
0.325
0.41
0.475
0.525
0.505
0.425
0.3
0.175
0.06
-0.01
-0.065
-0.09
-0.105
-0.11
-0.12
-0.115
-0.115
-0.115
-0.11
-0.11
-0.11
-0.11
-0.12
-0.115
-0.12
-0.12
-0.13
-0.13
-0.145
-0.145
-0.16
-0.155
-0.17
-0.16
-0.175
-0.165
-0.185
-0.17
-0.16
-0.095
-0.12
-0.09
-0.125
-0.11
-0.12
-0.14
-0.22
-0.245
-0.27
-0.245
-0.27
-0.23
-0.3
-0.255
0.455
1.76
2.17
0.44
-0.165
-0.21
-0.17
-0.17
-0.195
-0.17
-0.19
-0.155
-0.165
-0.135
-0.14
-0.105
-0.105
-0.065
-0.05
0.0
0.03
0.1
0.16
0.25
0.32
0.41
0.475
0.535
0.525
0.455
0.325
0.195
0.075
-0.005
-0.06
-0.085
-0.1
-0.105
-0.115
-0.11
-0.11
-0.11
-0.115
-0.11
-0.115
-0.11
-0.115
-0.115
-0.125
-0.125
-0.135
-0.135
-0.15
-0.145
-0.16
-0.155
-0.165
-0.155
-0.17
-0.16
-0.18
-0.16
-0.15
-0.08
-0.105
-0.09
-0.115
-0.1
-0.11
-0.125
-0.215
-0.235
-0.255
-0.225
-0.25
-0.21
-0.285
-0.23
0.485
1.775
2.11
0.445
-0.15
-0.205
-0.16
-0.16
-0.185
-0.165
-0.175
-0.145
-0.15
-0.12
-0.125
-0.095
-0.09
-0.05
-0.04
0.005
0.035
0.11
0.175
0.26
0.33
0.415
0.48
0.54
0.525
0.45
0.32
0.195
0.075
0.0
-0.045
-0.075
-0.095
-0.1
-0.1
-0.1
-0.1
-0.1
-0.095
-0.09
-0.095
-0.1
-0.1
-0.105
-0.105
-0.12
-0.115
-0.13
-0.125
-0.14
-0.135
-0.15
-0.145
-0.16
-0.15
-0.17
-0.155
-0.175
-0.16
-0.155
-0.085
-0.11
-0.075
-0.11
-0.115
-0.11
-0.125
-0.2
-0.23
-0.255
-0.225
-0.25
-0.21
-0.275
-0.25
0.425
1.725
2.185
0.5
-0.135
-0.205
-0.155
-0.155
-0.185
-0.155
-0.17
-0.14
-0.155
-0.12
-0.12
-0.085
-0.09
-0.045
-0.035
0.015
0.04
0.115
0.17
0.255
0.325
0.41
0.475
0.535
0.53
0.465
0.335
0.21
0.085
0.005
-0.055
-0.075
-0.095
-0.1
-0.105
-0.105
-0.105
-0.1
-0.11
-0.1
-0.105
-0.105
-0.11
-0.105
-0.12
-0.115
-0.135
-0.125
-0.145
-0.135
-0.155
-0.155
-0.165
-0.15
-0.17
-0.155
-0.175
-0.155
-0.17
-0.115
-0.125
-0.07
-0.13
-0.12
-0.115
-0.12
-0.19
-0.22
-0.265
-0.225
-0.265
-0.215
-0.255
-0.305
0.24
1.49
2.295
0.72
-0.055
-0.23
-0.17
-0.155
-0.195
-0.16
-0.18
-0.145
-0.165
-0.13
-0.14
-0.1
-0.1
-0.06
-0.05
-0.005
0.02
0.095
0.14
0.225
0.3
0.385
0.445
0.515
0.515
0.465
0.34
0.21
0.09
0.015
-0.055
-0.08
-0.105
-0.115
-0.13
-0.12
-0.11
-0.115
-0.125
-0.115
-0.11
-0.115
-0.125
-0.125
-0.125
-0.12
-0.135
-0.145
-0.145
-0.155
-0.15
-0.165
-0.165
-0.165
-0.175
-0.18
-0.17
-0.16
-0.095
-0.095
-0.115
-0.105
-0.12
-0.115
-0.145
-0.225
-0.24
-0.245
-0.24
-0.235
-0.22
-0.325
-0.12
0.83
2.045
1.73
0.24
-0.215
-0.21
-0.17
-0.17
-0.175
-0.17
-0.17
-0.155
-0.145
-0.13
-0.125
-0.1
-0.075
-0.05
-0.02
0.01
0.06
0.125
0.2
0.28
0.355
0.445
0.505
0.545
0.52
0.42
0.285
0.155
0.055
-0.01
-0.06
-0.085
-0.1
-0.1
-0.11
-0.105
-0.1
-0.1
-0.095
-0.105
-0.095
-0.1
-0.095
-0.11
-0.1
-0.115
-0.11
-0.13
-0.125
-0.145
-0.13
-0.16
-0.145
-0.17
-0.15
-0.185
-0.16
-0.165
-0.105
-0.115
-0.06
-0.14
-0.12
-0.11
-0.115
-0.195
-0.235
-0.27
-0.235
-0.27
-0.225
-0.27
-0.315
0.26
1.515
2.305
0.65
-0.095
-0.22
-0.165
-0.16
-0.2
-0.17
-0.19
-0.155
-0.17
-0.13
-0.145
-0.1
-0.11
-0.06
-0.055
0.0
0.02
0.095
0.155
0.245
0.315
0.405
0.47
0.54
0.54
0.485
0.36
0.23
0.105
0.02
-0.04
-0.065
-0.09
-0.095
-0.1
-0.09
-0.1
-0.09
-0.095
-0.09
-0.095
-0.095
-0.1
-0.095
-0.105
-0.1
-0.11
-0.11
-0.12
-0.12
-0.135
-0.13
-0.15
-0.14
-0.155
-0.15
-0.165
-0.16
-0.175
-0.165
-0.18
-0.165
-0.17
-0.125
-0.11
-0.065
-0.135
-0.12
-0.115
-0.13
-0.185
-0.23
-0.26
-0.235
-0.26
-0.225
-0.245
-0.33
0.09
1.225
2.225
1.03
0.045
-0.205
-0.16
-0.15
-0.185
-0.16
-0.18
-0.145
-0.16
-0.13
-0.14
-0.105
-0.105
-0.07
-0.06
-0.01
0.01
0.08
0.13
0.22
0.29
0.38
0.445
0.525
0.55
0.515
0.415
0.29
0.155
0.055
-0.015
-0.055
-0.08
-0.085
-0.09
-0.085
-0.09
-0.09
-0.085
-0.085
-0.09
-0.09
-0.09
-0.09
-0.09
-0.1
-0.1
-0.11
-0.105
-0.12
-0.115
-0.13
-0.125
-0.135
-0.13
-0.145
-0.135
-0.15
-0.14
-0.16
-0.145
-0.17
-0.15
-0.175
-0.15
-0.16
-0.1
-0.115
-0.055
-0.115
-0.115
-0.105
-0.12
-0.19
-0.22
-0.25
-0.22
-0.25
-0.21
-0.245
-0.305
0.21
1.445
2.3
0.775
-0.035
-0.21
-0.15
-0.145
-0.185
-0.155
-0.175
-0.14
-0.16
-0.12
-0.13
-0.09
-0.095
-0.05
-0.05
0.0
0.02
0.09
0.145
0.23
0.3
0.39
0.455
0.535
0.555
0.515
0.41
0.285
0.15
0.055
-0.015
-0.05
-0.075
-0.085
-0.085
-0.085
-0.09
-0.085
-0.085
-0.08
-0.085
-0.09
-0.095
-0.095
-0.1
-0.1
-0.105
-0.105
-0.12
-0.115
-0.125
-0.12
-0.135
-0.135
-0.145
-0.14
-0.15
-0.145
-0.16
-0.15
-0.165
-0.155
-0.17
-0.16
-0.165
-0.12
-0.095
-0.055
-0.12
-0.09
-0.1
-0.115
-0.16
-0.22
-0.245
-0.23
-0.25
-0.215
-0.225
-0.32
0.03
1.1
2.18
1.225
0.125
-0.205
-0.185
-0.16
-0.185
-0.17
-0.18
-0.155
-0.16
-0.14
-0.14
-0.115
-0.105
-0.075
-0.06
-0.02
0.005
0.07
0.13
0.205
0.28
0.365
0.435
0.505
0.545
0.53
0.43
0.305
0.17
0.065
-0.01
-0.06
-0.09
-0.105
-0.105
-0.11
-0.115
-0.11
-0.11
-0.125
-0.115
-0.105
-0.105
-0.11
-0.12
-0.125
-0.125
-0.13
-0.14
-0.135
-0.155
-0.145
-0.16
-0.155
-0.17
-0.16
-0.175
-0.17
-0.19
-0.165
-0.165
-0.095
-0.11
-0.115
-0.12
-0.11
-0.12
-0.15
-0.245
-0.245
-0.285
-0.25
-0.27
-0.24
-0.32
-0.235
0.555
1.845
2.05
0.365
-0.205
-0.245
-0.19
-0.185
-0.195
-0.185
-0.195
-0.17
-0.175
-0.14
-0.15
-0.11
-0.115
-0.08
-0.045
-0.005
0.02
0.09
0.16
0.25
0.315
0.4
0.465
0.525
0.52
0.45
0.32
0.19
0.07
-0.02
-0.075
-0.1
-0.11
-0.12
-0.135
-0.13
-0.125
-0.12
-0.14
-0.13
-0.115
-0.12
-0.135
-0.115
-0.135
-0.13
-0.145
-0.155
-0.135
-0.145
-0.155
-0.155
-0.16
-0.175
-0.18
-0.18
-0.175
-0.13
-0.105
-0.06
-0.13
-0.09
-0.09
-0.105
-0.175
-0.235
-0.25
-0.245
-0.255
-0.235
-0.23
-0.34
-0.005
1.105
2.22
1.375
0.12
-0.23
-0.185
-0.16
-0.18
-0.17
-0.17
-0.155
-0.15
-0.135
-0.13
-0.11
-0.105
-0.075
-0.055
-0.02
0.01
0.065
0.13
0.205
0.285
0.365
0.44
0.505
0.535
0.5
0.4
0.27
0.135
0.03
-0.035
-0.07
-0.1
-0.11
-0.115
-0.115
-0.115
-0.115
-0.115
-0.11
-0.105
-0.105
-0.11
-0.105
-0.11
-0.115
-0.12
-0.13
-0.13
-0.135
-0.145
-0.14
-0.15
-0.155
-0.16
-0.16
-0.165
-0.155
-0.11
-0.08
-0.05
-0.105
-0.09
-0.07
-0.085
-0.145
-0.23
-0.235
-0.24
-0.24
-0.235
-0.22
-0.315
-0.08
0.845
2.005
1.655
0.215
-0.19
-0.16
-0.16
-0.17
-0.175
-0.165
-0.16
-0.15
-0.14
-0.13
-0.115
-0.095
-0.075
-0.055
-0.025
0.015
0.06
0.13
0.2
0.285
0.37
0.45
0.52
0.555
0.53
0.43
0.3
0.16
0.05
-0.02
-0.065
-0.09
-0.105
-0.11
-0.11
-0.11
-0.115
-0.11
-0.11
-0.11
-0.115
-0.115
-0.125
-0.12
-0.13
-0.13
-0.14
-0.135
-0.15
-0.145
-0.16
-0.155
-0.17
-0.16
-0.175
-0.165
-0.18
-0.165
-0.17
-0.115
-0.115
-0.06
-0.13
-0.1
-0.11
-0.12
-0.19
-0.24
-0.26
-0.24
-0.265
-0.225
-0.24
-0.33
0.08
1.205
2.225
1.035
0.05
-0.21
-0.165
-0.155
-0.19
-0.17
-0.185
-0.155
-0.16
-0.135
-0.14
-0.105
-0.1
-0.065
-0.06
-0.015
0.01
0.075
0.135
0.225
0.29
0.375
0.445
0.52
0.535
0.495
0.39
0.26
0.125
0.025
-0.045
-0.075
-0.1
-0.11
-0.115
-0.115
-0.115
-0.115
-0.115
-0.11
-0.115
-0.11
-0.115
-0.12
-0.12
-0.125
-0.135
-0.14
-0.14
-0.15
-0.155
-0.16
-0.16
-0.17
-0.17
-0.175
-0.175
-0.175
-0.145
-0.095
-0.08
-0.14
-0.115
-0.105
-0.12
-0.17
-0.245
-0.25
-0.255
-0.25
-0.245
-0.23
-0.33
-0.115
0.8
2.0
1.63
0.265
-0.2
-0.21
-0.165
-0.18
-0.19
-0.18
-0.175
-0.16
-0.155
-0.145
-0.13
-0.115
-0.085
-0.07
-0.045
0.0
0.04
0.11
0.185
0.26
0.345
0.42
0.485
0.53
0.505
0.405
0.275
0.14
0.04
-0.035
-0.08
-0.1
-0.12
-0.125
-0.12
-0.12
-0.115
-0.115
-0.13
-0.125
-0.12
-0.125
-0.12
-0.13
-0.13
-0.14
-0.14
-0.145
-0.155
-0.155
-0.16
-0.165
-0.165
-0.175
-0.185
-0.18
-0.13
-0.1
-0.06
-0.13
-0.09
-0.08
-0.12
-0.175
-0.245
-0.25
-0.245
-0.255
-0.24
-0.225
-0.345
-0.085
0.91
2.11
1.59
0.195
-0.23
-0.205
-0.16
-0.185
-0.175
-0.165
-0.175
-0.165
-0.15
-0.12
-0.11
-0.1
-0.08
-0.065
-0.03
0.01
0.07
0.125
0.205
0.295
0.365
0.45
0.52
0.555
0.505
0.405
0.28
0.145
0.04
-0.025
-0.075
-0.095
-0.105
-0.115
-0.115
-0.12
-0.12
-0.12
-0.115
-0.105
-0.11
-0.115
-0.115
-0.115
-0.12
-0.12
-0.13
-0.14
-0.14
-0.15
-0.15
-0.16
-0.16
-0.175
-0.17
-0.17
-0.12
-0.11
-0.06
-0.135
-0.105
-0.105
-0.11
-0.18
-0.245
-0.26
-0.245
-0.26
-0.235
-0.24
-0.35
0.01
1.105
2.175
1.265
0.075
-0.22
-0.16
-0.17
-0.195
-0.18
-0.18
-0.165
-0.165
-0.145
-0.14
-0.12
-0.11
-0.08
-0.065
-0.02
0.01
0.075
0.13
0.22
0.305
0.385
0.46
0.535
0.56
0.51
0.395
0.26
0.125
0.025
-0.035
-0.07
-0.095
-0.105
-0.11
-0.11
-0.115
-0.115
-0.11
-0.115
-0.11
-0.11
-0.11
-0.115
-0.11
-0.115
-0.115
-0.135
-0.13
-0.145
-0.14
-0.16
-0.155
-0.175
-0.16
-0.175
-0.16
-0.18
-0.16
-0.16
-0.095
-0.115
-0.085
-0.13
-0.13
-0.125
-0.135
-0.21
-0.245
-0.27
-0.24
-0.26
-0.22
-0.29
-0.265
0.415
1.705
2.19
0.475
-0.145
-0.205
-0.165
-0.16
-0.2
-0.165
-0.185
-0.15
-0.165
-0.125
-0.135
-0.095
-0.1
-0.06
-0.05
0.0
0.03
0.105
0.165
0.26
0.335
0.43
0.495
0.555
0.545
0.47
0.335
0.205
0.085
0.005
-0.05
-0.075
-0.09
-0.1
-0.1
-0.095
-0.1
-0.095
-0.095
-0.095
-0.09
-0.09
-0.095
-0.095
-0.1
-0.1
-0.1
-0.105
-0.12
-0.115
-0.125
-0.125
-0.135
-0.135
-0.145
-0.14
-0.15
-0.145
-0.16
-0.155
-0.17
-0.155
-0.16
-0.09
-0.1
-0.085
-0.105
-0.125
-0.12
-0.125
-0.19
-0.23
-0.245
-0.22
-0.24
-0.205
-0.285
-0.21
0.52
1.81
2.08
0.425
-0.15
-0.195
-0.155
-0.155
-0.18
-0.155
-0.165
-0.14
-0.145
-0.12
-0.12
-0.09
-0.09
-0.055
-0.04
0.005
0.04
0.115
0.18
0.265
0.345
0.435
0.505
0.565
0.55
0.48
0.35
0.22
0.1
0.015
-0.04
-0.07
-0.095
-0.095
-0.1
-0.1
-0.1
-0.1
-0.095
-0.095
-0.095
-0.095
-0.1
-0.1
-0.105
-0.105
-0.115
-0.12
-0.125
-0.125
-0.14
-0.135
-0.15
-0.14
-0.16
-0.145
-0.165
-0.155
-0.175
-0.16
-0.185
-0.16
-0.175
-0.115
-0.115
-0.065
-0.135
-0.125
-0.115
-0.12
-0.19
-0.225
-0.255
-0.23
-0.255
-0.215
-0.245
-0.325
0.125
1.305
2.265
0.905
0.0
-0.22
-0.17
-0.155
-0.195
-0.16
-0.18
-0.15
-0.16
-0.13
-0.145
-0.105
-0.1
-0.065
-0.05
0.0
0.02
0.09
0.145
0.235
0.305
0.385
0.465
0.54
0.55
0.52
0.41
0.285
0.15
0.055
-0.015
-0.06
-0.085
-0.09
-0.09
-0.085
-0.095
-0.095
-0.1
-0.095
-0.09
-0.09
-0.085
-0.095
-0.09
-0.095
-0.1
-0.115
-0.1
-0.12
-0.135
-0.135
-0.13
-0.145
-0.14
-0.155
-0.155
-0.155
-0.15
-0.17
-0.16
-0.18
-0.175
-0.195
-0.18
-0.18
-0.1
-0.125
-0.1
-0.13
-0.14
-0.13
-0.135
-0.215
-0.245
-0.26
-0.235
-0.25
-0.215
-0.31
-0.21
0.605
1.88
2.03
0.345
-0.2
-0.235
-0.17
-0.17
-0.195
-0.17
-0.185
-0.165
-0.16
-0.125
-0.135
-0.1
-0.1
-0.055
-0.045
0.005
0.04
0.115
0.17
0.275
0.34
0.42
0.505
0.56
0.55
0.495
0.37
0.235
0.11
0.02
-0.035
-0.065
-0.085
-0.09
-0.085
-0.095
-0.09
-0.08
-0.09
-0.085
-0.095
-0.085
-0.085
-0.085
-0.09
-0.085
-0.095
-0.095
-0.11
-0.11
-0.12
-0.115
-0.13
-0.125
-0.135
-0.13
-0.145
-0.14
-0.16
-0.15
-0.17
-0.16
-0.175
-0.16
-0.175
-0.105
-0.125
-0.075
-0.135
-0.14
-0.12
-0.125
-0.195
-0.24
-0.265
-0.235
-0.265
-0.215
-0.295
-0.24
0.475
1.75
2.165
0.405
-0.18
-0.22
-0.17
-0.165
-0.195
-0.16
-0.185
-0.145
-0.16
-0.12
-0.135
-0.095
-0.095
-0.055
-0.045
0.01
0.04
0.115
0.175
0.27
0.34
0.435
0.5
0.575
0.575
0.51
0.39
0.255
0.125
0.035
-0.02
-0.05
-0.065
-0.075
-0.08
-0.08
-0.08
-0.08
-0.075
-0.075
-0.075
-0.075
-0.075
-0.07
-0.08
-0.08
-0.085
-0.09
-0.1
-0.1
-0.115
-0.11
-0.125
-0.12
-0.135
-0.13
-0.14
-0.13
-0.15
-0.135
-0.16
-0.145
-0.165
-0.15
-0.17
-0.15
-0.16
-0.105
-0.105
-0.055
-0.12
-0.12
-0.105
-0.12
-0.18
-0.22
-0.255
-0.22
-0.25
-0.205
-0.27
-0.255
0.395
1.68
2.23
0.52
-0.13
-0.21
-0.155
-0.15
-0.19
-0.155
-0.175
-0.13
-0.145
-0.11
-0.125
-0.085
-0.09
-0.045
-0.04
0.01
0.035
0.115
0.165
0.26
0.335
0.425
0.495
0.57
0.575
0.53
0.405
0.275
0.145
0.05
-0.015
-0.05
-0.07
-0.08
-0.085
-0.085
-0.085
-0.08
-0.075
-0.08
-0.08
-0.075
-0.08
-0.08
-0.085
-0.085
-0.09
-0.09
-0.1
-0.1
-0.11
-0.105
-0.12
-0.11
-0.13
-0.12
-0.135
-0.13
-0.145
-0.135
-0.155
-0.14
-0.165
-0.155
-0.175
-0.155
-0.17
-0.135
-0.105
-0.08
-0.13
-0.105
-0.13
-0.13
-0.17
-0.215
-0.255
-0.235
-0.26
-0.225
-0.24
-0.325
0.05
1.15
2.19
1.14
0.08
-0.21
-0.17
-0.16
-0.19
-0.17
-0.175
-0.15
-0.16
-0.13
-0.135
-0.1
-0.1
-0.065
-0.055
-0.005
0.02
0.08
0.135
0.22
0.295
0.39
0.46
0.545
0.585
0.57
0.47
0.355
0.215
0.1
0.015
-0.02
-0.045
-0.06
-0.07
-0.07
-0.065
-0.065
-0.065
-0.065
-0.06
-0.06
-0.06
-0.065
-0.065
-0.07
-0.08
-0.085
-0.08
-0.09
-0.1
-0.11
-0.11
-0.12
-0.115
-0.125
-0.11
-0.13
-0.12
-0.14
-0.13
-0.155
-0.14
-0.16
-0.15
-0.18
-0.16
-0.17
-0.125
-0.115
-0.075
-0.135
-0.115
-0.12
-0.125
-0.18
-0.22
-0.265
-0.23
-0.25
-0.21
-0.25
-0.305
0.185
1.415
2.29
0.81
-0.02
-0.235
-0.175
-0.16
-0.2
-0.165
-0.185
-0.145
-0.165
-0.125
-0.135
-0.105
-0.1
-0.06
-0.055
-0.01
0.01
0.09
0.135
0.225
0.29
0.39
0.46
0.535
0.565
0.545
0.45
0.325
0.18
0.08
-0.005
-0.045
-0.07
-0.08
-0.1
-0.09
-0.095
-0.09
-0.085
-0.09
-0.085
-0.085
-0.075
-0.095
-0.09
-0.095
-0.095
-0.12
-0.11
-0.11
-0.11
-0.125
-0.125
-0.14
-0.14
-0.16
-0.14
-0.165
-0.16
-0.175
-0.155
-0.18
-0.16
-0.19
-0.175
-0.18
-0.15
-0.12
-0.085
-0.15
-0.11
-0.13
-0.135
-0.185
-0.225
-0.265
-0.235
-0.26
-0.225
-0.255
-0.34
0.125
1.35
2.315
0.925
0.01
-0.245
-0.195
-0.16
-0.21
-0.17
-0.195
-0.165
-0.18
-0.145
-0.15
-0.11
-0.12
-0.075
-0.075
-0.025
0.01
0.07
0.125
0.215
0.285
0.385
0.455
0.53
0.57
0.55
0.445
0.325
0.18
0.07
-0.01
-0.045
-0.075
-0.09
-0.095
-0.095
-0.1
-0.095
-0.095
-0.095
-0.095
-0.095
-0.09
-0.09
-0.095
-0.095
-0.1
-0.1
-0.11
-0.11
-0.12
-0.115
-0.13
-0.13
-0.14
-0.14
-0.15
-0.15
-0.165
-0.155
-0.17
-0.165
-0.185
-0.17
-0.15
-0.09
-0.11
-0.1
-0.115
-0.11
-0.12
-0.145
-0.23
-0.25
-0.265
-0.245
-0.265
-0.23
-0.32
-0.175
0.65
1.89
1.96
0.305
-0.205
-0.205
-0.175
-0.18
-0.19
-0.175
-0.18
-0.155
-0.16
-0.13
-0.13
-0.1
-0.095
-0.05
-0.04
0.005
0.045
0.115
0.18
0.275
0.35
0.44
0.505
0.575
0.58
0.52
0.395
0.26
0.125
0.035
-0.03
-0.055
-0.08
-0.085
-0.09
-0.09
-0.09
-0.09
-0.09
-0.085
-0.085
-0.085
-0.095
-0.095
-0.095
-0.1
-0.1
-0.115
-0.115
-0.125
-0.125
-0.135
-0.135
-0.145
-0.14
-0.15
-0.15
-0.165
-0.155
-0.175
-0.165
-0.185
-0.17
-0.165
-0.095
-0.115
-0.085
-0.12
-0.13
-0.12
-0.135
-0.21
-0.245
-0.265
-0.24
-0.255
-0.22
-0.3
-0.22
0.525
1.805
2.085
0.395
-0.17
-0.21
-0.17
-0.165
-0.19
-0.165
-0.18
-0.15
-0.155
-0.125
-0.13
-0.1
-0.095
-0.06
-0.05
0.0
0.03
0.1
0.16
0.25
0.32
0.42
0.485
0.56
0.565
0.515
0.4
0.265
0.13
0.03
-0.03
-0.065
-0.085
-0.095
-0.105
-0.105
-0.105
-0.1
-0.1
-0.1
-0.1
-0.1
-0.1
-0.105
-0.11
-0.12
-0.12
-0.13
-0.13
-0.13
-0.14
-0.14
-0.14
-0.145
-0.15
-0.155
-0.155
-0.155
-0.16
-0.165
-0.165
-0.165
-0.12
-0.08
-0.055
-0.11
-0.085
-0.09
-0.105
-0.15
-0.225
-0.24
-0.235
-0.235
-0.225
-0.215
-0.31
-0.06
0.89
2.07
1.585
0.225
-0.195
-0.18
-0.155
-0.175
-0.17
-0.165
-0.16
-0.15
-0.13
-0.125
-0.11
-0.09
-0.075
-0.05
-0.025
0.01
0.055
0.12
0.19
0.27
0.36
0.44
0.52
0.57
0.565
0.495
0.36
0.225
0.105
0.015
-0.035
-0.07
-0.085
-0.09
-0.09
-0.095
-0.09
-0.09
-0.09
-0.095
-0.09
-0.1
-0.095
-0.1
-0.105
-0.115
-0.12
-0.125
-0.125
-0.14
-0.14
-0.145
-0.145
-0.155
-0.145
-0.155
-0.155
-0.17
-0.165
-0.175
-0.165
-0.135
-0.085
-0.095
-0.11
-0.105
-0.1
-0.115
-0.15
-0.23
-0.245
-0.265
-0.245
-0.245
-0.225
-0.32
-0.17
0.67
1.915
1.87
0.31
-0.205
-0.235
-0.185
-0.18
-0.2
-0.185
-0.185
-0.175
-0.17
-0.14
-0.135
-0.11
-0.095
-0.07
-0.06
-0.01
0.02
0.09
0.155
0.245
0.315
0.405
0.475
0.535
0.53
0.475
0.36
0.225
0.1
0.0
-0.06
-0.085
-0.115
-0.125
-0.115
-0.115
-0.12
-0.115
-0.11
-0.115
-0.135
-0.125
-0.115
-0.115
-0.12
-0.135
-0.135
-0.14
-0.15
-0.16
-0.155
-0.155
-0.16
-0.155
-0.175
-0.175
-0.175
-0.19
-0.185
-0.135
-0.1
-0.09
-0.125
-0.1
-0.105
-0.115
-0.16
-0.24
-0.245
-0.255
-0.24
-0.24
-0.225
-0.335
-0.09
0.89
2.09
1.67
0.22
-0.22
-0.21
-0.165
-0.18
-0.185
-0.175
-0.16
-0.15
-0.145
-0.13
-0.12
-0.095
-0.08
-0.05
-0.025
0.01
0.055
0.12
0.2
0.28
0.365
0.445
0.525
0.57
0.565
0.485
0.36
0.225
0.1
0.01
-0.04
-0.07
-0.085
-0.09
-0.095
-0.09
-0.09
-0.09
-0.085
-0.09
-0.09
-0.095
-0.09
-0.1
-0.095
-0.105
-0.105
-0.115
-0.115
-0.135
-0.13
-0.145
-0.135
-0.15
-0.14
-0.16
-0.15
-0.17
-0.15
-0.155
-0.1
-0.1
-0.045
-0.13
-0.1
-0.11
-0.105
-0.17
-0.22
-0.255
-0.23
-0.255
-0.22
-0.245
-0.32
0.175
1.4
2.305
0.87
-0.02
-0.21
-0.145
-0.15
-0.19
-0.16
-0.185
-0.15
-0.16
-0.13
-0.14
-0.105
-0.11
-0.065
-0.06
-0.01
0.01
0.085
0.135
0.225
0.3
0.395
0.465
0.55
0.575
0.55
0.44
0.315
0.17
0.065
-0.015
-0.05
-0.08
-0.09
-0.1
-0.1
-0.1
-0.095
-0.095
-0.095
-0.09
-0.095
-0.095
-0.1
-0.105
-0.11
-0.115
-0.12
-0.125
-0.135
-0.13
-0.14
-0.13
-0.14
-0.14
-0.15
-0.145
-0.16
-0.155
-0.17
-0.16
-0.165
-0.12
-0.09
-0.05
-0.115
-0.095
-0.1
-0.11
-0.165
-0.225
-0.25
-0.235
-0.25
-0.23
-0.235
-0.325
0.01
1.04
2.135
1.29
0.135
-0.205
-0.18
-0.165
-0.19
-0.18
-0.19
-0.17
-0.17
-0.145
-0.145
-0.12
-0.115
-0.085
-0.075
-0.04
-0.005
0.045
0.1
0.185
0.26
0.345
0.42
0.5
0.55
0.545
0.455
0.335
0.2
0.085
-0.005
-0.055
-0.085
-0.095
-0.105
-0.105
-0.105
-0.105
-0.105
-0.105
-0.1
-0.105
-0.105
-0.115
-0.11
-0.125
-0.115
-0.13
-0.13
-0.14
-0.13
-0.145
-0.14
-0.16
-0.145
-0.165
-0.15
-0.17
-0.155
-0.175
-0.155
-0.16
-0.095
-0.11
-0.05
-0.115
-0.1
-0.105
-0.115
-0.19
-0.23
-0.26
-0.225
-0.26
-0.215
-0.255
-0.305
0.22
1.455
2.295
0.75
-0.05
-0.225
-0.17
-0.16
-0.195
-0.165
-0.185
-0.15
-0.16
-0.125
-0.14
-0.1
-0.105
-0.065
-0.06
-0.01
0.01
0.085
0.135
0.225
0.295
0.39
0.455
0.535
0.555
0.53
0.425
0.295
0.15
0.05
-0.025
-0.065
-0.09
-0.1
-0.1
-0.105
-0.1
-0.095
-0.1
-0.1
-0.1
-0.105
-0.1
-0.11
-0.11
-0.12
-0.125
-0.13
-0.135
-0.14
-0.14
-0.15
-0.155
-0.155
-0.16
-0.17
-0.17
-0.175
-0.175
-0.18
-0.18
-0.175
-0.15
-0.1
-0.085
-0.125
-0.115
-0.115
-0.125
-0.16
-0.23
-0.25
-0.255
-0.26
-0.245
-0.235
-0.33
-0.1
0.815
2.015
1.605
0.23
-0.21
-0.215
-0.175
-0.2
-0.2
-0.185
-0.18
-0.165
-0.155
-0.145
-0.13
-0.125
-0.1
-0.08
-0.045
-0.005
0.03
0.09
0.165
0.24
0.32
0.41
0.48
0.535
0.54
0.47
0.35
0.215
0.095
0.005
-0.06
-0.08
-0.105
-0.115
-0.11
-0.105
-0.12
-0.105
-0.105
-0.105
-0.11
-0.11
-0.12
-0.12
-0.125
-0.12
-0.135
-0.13
-0.14
-0.145
-0.155
-0.145
-0.16
-0.15
-0.17
-0.16
-0.175
-0.17
-0.18
-0.18
-0.18
-0.135
-0.115
-0.065
-0.135
-0.105
-0.12
-0.13
-0.18
-0.245
-0.265
-0.245
-0.255
-0.225
-0.25
-0.34
0.04
1.155
2.22
1.18
0.09
-0.23
-0.2
-0.17
-0.205
-0.185
-0.185
-0.175
-0.18
-0.145
-0.155
-0.125
-0.115
-0.07
-0.07
-0.035
-0.005
0.055
0.115
0.19
0.26
0.365
0.44
0.51
0.545
0.53
0.445
0.335
0.19
0.08
-0.005
-0.06
-0.09
-0.095
