signal
-1.075
-1.0
-0.955
-0.945
-0.94
-0.965
-0.965
-0.96
-0.95
-0.945
-0.955
-0.98
-0.96
-1.0
-1.02
-1.015
-1.025
-1.02
-1.025
-1.035
-1.04
-1.025
-0.965
-0.9
-0.88
-0.845
-0.705
-0.64
-0.66
-0.72
-0.835
-0.95
-1.055
-1.095
-1.095
-1.115
-1.115
-1.115
-1.04
-0.6
0.45
1.665
0.86
-0.605
-0.795
-1.005
-1.265
-1.265
-1.28
-1.275
-1.28
-1.27
-1.245
-1.235
-1.225
-1.2
-1.175
-1.165
-1.15
-1.155
-1.14
-1.145
-1.155
-1.21
-1.245
-1.285
-1.31
-1.315
-1.25
-1.17
-1.045
-0.965
-0.925
-0.895
-0.895
-0.88
-0.88
-0.885
-0.885
-0.88
-0.88
-0.895
-0.88
-0.895
-0.915
-0.925
-0.945
-0.955
-0.94
-0.94
-0.94
-0.94
-0.895
-0.845
-0.805
-0.795
-0.68
-0.56
-0.575
-0.625
-0.695
-0.795
-0.915
-0.98
-0.995
-1.01
-1.01
-1.03
-0.99
-0.695
0.225
1.605
1.875
0.345
-0.45
-0.64
-1.145
-1.17
-1.21
-1.225
-1.22
-1.22
-1.2
-1.19
-1.17
-1.155
-1.135
-1.13
-1.13
-1.115
-1.095
-1.115
-1.14
-1.17
-1.21
-1.275
-1.32
-1.345
-1.315
-1.225
-1.115
-1.01
-0.915
-0.875
-0.855
-0.84
-0.845
-0.845
-0.85
-0.86
-0.86
-0.855
-0.865
-0.88
-0.875
-0.895
-0.9
-0.905
-0.92
-0.92
-0.925
-0.935
-0.935
-0.93
-0.925
-0.905
-0.83
-0.78
-0.765
-0.69
-0.56
-0.535
-0.57
-0.65
-0.755
-0.87
-0.945
-0.975
-0.985
-0.99
-0.995
-0.995
-0.785
-0.075
1.185
1.91
0.585
-0.41
-0.51
-1.055
-1.155
-1.185
-1.2
-1.19
-1.19
-1.185
-1.185
-1.155
-1.145
-1.135
-1.125
-1.1
-1.1
-1.095
-1.105
-1.105
-1.135
-1.19
-1.23
-1.27
-1.285
-1.28
-1.22
-1.11
-0.98
-0.88
-0.835
-0.835
-0.815
-0.815
-0.805
-0.815
-0.835
-0.85
-0.87
-0.855
-0.86
-0.875
-0.88
-0.9
-0.94
-0.94
-0.945
-0.92
-0.93
-0.925
-0.935
-0.94
-0.93
-0.92
-0.92
-0.91
-0.89
-0.845
-0.76
-0.745
-0.72
-0.62
-0.515
-0.535
-0.595
-0.69
-0.78
-0.905
-0.985
-0.975
-0.985
-1.025
-1.005
-0.965
-0.675
0.205
1.47
1.3
-0.265
-0.78
-0.815
-1.2
-1.165
-1.18
-1.185
-1.195
-1.15
-1.185
-1.195
-1.14
-1.125
-1.13
-1.125
-1.09
-1.1
-1.115
-1.11
-1.135
-1.155
-1.17
-1.22
-1.27
-1.245
-1.195
-1.13
-1.035
-0.945
-0.905
-0.865
-0.86
-0.86
-0.87
-0.88
-0.885
-0.86
-0.88
-0.915
-0.905
-0.925
-0.935
-0.925
-0.96
-0.96
-0.96
-0.97
-1.005
-0.985
-0.985
-0.965
-0.955
-0.895
-0.855
-0.825
-0.765
-0.645
-0.585
-0.59
-0.68
-0.815
-0.92
-0.985
-1.025
-1.04
-1.045
-1.055
-1.07
-0.96
-0.425
0.72
1.715
0.5
-0.775
-0.765
-1.085
-1.245
-1.235
-1.245
-1.255
-1.245
-1.24
-1.23
-1.225
-1.205
-1.19
-1.18
-1.165
-1.145
-1.115
-1.12
-1.145
-1.155
-1.175
-1.22
-1.26
-1.28
-1.265
-1.215
-1.13
-1.025
-0.96
-0.925
-0.9
-0.89
-0.91
-0.89
-0.905
-0.9
-0.9
-0.88
-0.885
-0.895
-0.915
-0.905
-0.905
-0.925
-0.93
-0.93
-0.925
-0.93
-0.925
-0.935
-0.88
-0.795
-0.755
-0.735
-0.625
-0.505
-0.51
-0.545
-0.62
-0.73
-0.835
-0.9
-0.915
-0.91
-0.925
-0.925
-0.89
-0.56
0.38
1.78
1.93
0.36
-0.405
-0.565
-1.045
-1.04
-1.075
-1.075
-1.075
-1.065
-1.045
-1.02
-1.01
-0.985
-0.965
-0.93
-0.925
-0.92
-0.92
-0.915
-0.935
-0.965
-1.015
-1.07
-1.12
-1.145
-1.12
-1.035
-0.925
-0.805
-0.715
-0.65
-0.635
-0.62
-0.605
-0.595
-0.6
-0.585
-0.595
-0.585
-0.6
-0.605
-0.6
-0.595
-0.605
-0.615
-0.62
-0.605
-0.605
-0.6
-0.585
-0.57
-0.555
-0.51
-0.43
-0.36
-0.345
-0.23
-0.1
-0.07
-0.095
-0.155
-0.265
-0.35
-0.41
-0.42
-0.41
-0.395
-0.375
-0.335
-0.035
0.855
2.205
2.605
1.145
0.345
0.24
-0.265
-0.275
-0.285
-0.24
-0.22
-0.18
-0.145
-0.095
-0.035
0.01
0.06
0.1
0.16
0.195
0.24
0.265
0.28
0.295
0.28
0.255
0.24
0.255
0.31
0.41
0.55
0.72
0.84
0.915
0.99
1.035
1.075
1.1
1.135
1.17
1.2
1.23
1.265
1.29
1.325
1.355
1.38
1.39
1.44
1.46
1.495
1.52
1.56
1.59
1.63
1.655
1.695
1.725
1.745
1.78
1.81
1.85
1.94
2.035
2.08
2.135
2.285
2.395
2.405
2.385
2.31
2.235
2.17
2.13
2.15
2.15
2.165
2.185
2.275
2.715
3.765
5.01
4.435
3.07
2.805
2.5
2.16
2.195
2.165
2.185
2.21
2.235
2.255
2.27
2.305
2.33
2.355
2.365
2.385
2.41
2.425
2.43
2.415
2.37
2.315
2.275
2.255
2.255
2.3
2.385
2.51
2.61
2.685
2.725
2.725
2.73
2.725
2.725
2.715
2.715
2.73
2.715
2.685
2.695
2.695
2.685
2.68
2.66
2.66
2.655
2.64
2.635
2.615
2.615
2.64
2.625
2.635
2.615
2.61
2.625
2.65
2.715
2.755
2.755
2.85
2.96
2.99
2.96
2.855
2.75
2.65
2.565
2.52
2.505
2.525
2.495
2.495
2.69
3.4
4.655
5.035
3.47
2.675
2.715
2.305
2.285
2.255
2.23
2.22
2.23
2.23
2.24
2.265
2.25
2.25
2.275
2.27
2.265
2.28
2.27
2.255
2.225
2.175
2.135
2.1
2.075
2.08
2.16
2.255
2.32
2.355
2.39
2.395
2.355
2.365
2.355
2.34
2.31
2.305
2.295
2.275
2.25
2.235
2.195
2.185
2.165
2.145
2.12
2.095
2.085
2.08
2.06
2.06
2.04
2.055
2.105
2.155
2.175
2.235
2.335
2.335
2.295
2.21
2.085
1.97
1.89
1.845
1.785
1.78
1.765
1.755
1.96
2.685
3.945
4.34
2.75
1.86
1.935
1.53
1.49
1.45
1.435
1.435
1.415
1.415
1.41
1.425
1.43
1.425
1.425
1.415
1.415
1.42
1.395
1.385
1.335
1.295
1.24
1.2
1.165
1.165
1.215
1.3
1.38
1.43
1.45
1.45
1.44
1.425
1.41
1.41
1.395
1.375
1.36
1.345
1.32
1.305
1.285
1.265
1.235
1.215
1.18
1.175
1.15
1.15
1.135
1.16
1.225
1.275
1.255
1.345
1.45
1.445
1.38
1.29
1.185
1.05
0.965
0.935
0.915
0.895
0.88
0.9
1.235
2.205
3.575
3.6
2.02
1.33
1.1
0.62
0.605
0.545
0.525
0.53
0.53
0.525
0.515
0.52
0.52
0.52
0.53
0.535
0.53
0.535
0.515
0.485
0.435
0.37
0.295
0.23
0.185
0.185
0.24
0.34
0.46
0.545
0.59
0.615
0.605
0.6
0.59
0.595
0.585
0.575
0.55
0.54
0.535
0.52
0.49
0.48
0.465
0.445
0.43
0.41
0.395
0.39
0.375
0.375
0.42
0.5
0.495
0.535
0.655
0.72
0.68
0.62
0.505
0.385
0.28
0.23
0.2
0.17
0.16
0.155
0.255
0.815
1.955
3.035
2.11
0.835
0.63
0.17
-0.11
-0.1
-0.155
-0.15
-0.16
-0.16
-0.165
-0.15
-0.15
-0.14
-0.14
-0.125
-0.115
-0.12
-0.135
-0.155
-0.18
-0.235
-0.305
-0.355
-0.41
-0.425
-0.4
-0.305
-0.195
-0.095
-0.025
0.015
0.02
0.025
0.02
0.02
0.01
0.01
-0.01
-0.01
-0.03
-0.045
-0.045
-0.065
-0.08
-0.09
-0.105
-0.125
-0.13
-0.135
-0.14
-0.145
-0.155
-0.155
-0.155
-0.17
-0.185
-0.09
-0.04
-0.06
-0.005
0.14
0.175
0.145
0.065
-0.045
-0.17
-0.27
-0.31
-0.315
-0.325
-0.355
-0.385
-0.235
0.345
1.465
2.395
1.21
0.035
-0.005
-0.445
-0.615
-0.61
-0.645
-0.65
-0.65
-0.67
-0.655
-0.63
-0.605
-0.605
-0.615
-0.615
-0.59
-0.595
-0.59
-0.62
-0.665
-0.685
-0.705
-0.77
-0.805
-0.815
-0.78
-0.675
-0.585
-0.5
-0.45
-0.445
-0.435
-0.43
-0.445
-0.46
-0.45
-0.47
-0.475
-0.485
-0.485
-0.515
-0.535
-0.54
-0.56
-0.57
-0.575
-0.575
-0.6
-0.61
-0.605
-0.595
-0.555
-0.495
-0.465
-0.42
-0.3
-0.235
-0.255
-0.35
-0.465
-0.575
-0.65
-0.71
-0.755
-0.755
-0.75
-0.785
-0.675
-0.155
0.93
1.87
0.69
-0.535
-0.505
-0.815
-0.995
-0.995
-1.005
-1.02
-1.005
-1.01
-0.985
-0.965
-0.965
-0.975
-0.965
-0.94
-0.92
-0.94
-0.95
-0.95
-0.965
-0.99
-1.035
-1.065
-1.095
-1.09
-1.02
-0.945
-0.865
-0.795
-0.79
-0.785
-0.795
-0.765
-0.775
-0.795
-0.795
-0.81
-0.79
-0.81
-0.83
-0.82
-0.82
-0.845
-0.87
-0.875
-0.88
-0.88
-0.875
-0.86
-0.82
-0.765
-0.745
-0.695
-0.56
-0.505
-0.54
-0.61
-0.735
-0.855
-0.925
-0.97
-0.99
-1.0
-0.99
-1.015
-0.905
-0.42
0.655
1.725
0.65
-0.71
-0.745
-1.01
-1.195
-1.195
-1.215
-1.21
-1.195
-1.185
-1.18
-1.17
-1.15
-1.145
-1.135
-1.115
-1.095
-1.1
-1.09
-1.095
-1.105
-1.145
-1.175
-1.23
-1.255
-1.255
-1.2
-1.13
-1.035
-0.965
-0.925
-0.91
-0.925
-0.925
-0.925
-0.915
-0.92
-0.925
-0.915
-0.91
-0.925
-0.925
-0.925
-0.935
-0.945
-0.965
-0.965
-0.98
-0.985
-0.975
-0.9
-0.835
-0.83
-0.78
-0.645
-0.605
-0.62
-0.66
-0.775
-0.895
-0.985
-1.02
-1.04
-1.055
-1.055
-1.055
-0.9
-0.26
0.98
2.04
0.99
-0.325
-0.505
-0.995
-1.235
-1.23
-1.25
-1.255
-1.25
-1.235
-1.225
-1.225
-1.2
-1.185
-1.175
-1.155
-1.15
-1.145
-1.135
-1.16
-1.19
-1.225
-1.285
-1.355
-1.385
-1.395
-1.36
-1.27
-1.155
-1.04
-0.97
-0.94
-0.915
-0.915
-0.91
-0.91
-0.895
-0.9
-0.91
-0.91
-0.9
-0.915
-0.91
-0.92
-0.935
-0.935
-0.935
-0.945
-0.955
-0.96
-0.945
-0.935
-0.87
-0.795
-0.785
-0.75
-0.61
-0.55
-0.56
-0.625
-0.745
-0.85
-0.94
-0.99
-1.005
-1.03
-1.025
-1.04
-0.925
-0.375
0.73
1.855
1.005
-0.295
-0.49
-0.92
-1.2
-1.2
-1.23
-1.225
-1.215
-1.22
-1.2
-1.2
-1.17
-1.17
-1.15
-1.145
-1.115
-1.11
-1.115
-1.13
-1.145
-1.17
-1.215
-1.265
-1.32
-1.34
-1.295
-1.215
-1.095
-1.0
-0.915
-0.88
-0.885
-0.875
-0.87
-0.875
-0.895
-0.905
-0.89
-0.88
-0.885
-0.92
-0.92
-0.905
-0.915
-0.94
-0.925
-0.955
-0.95
-0.945
-0.965
-0.965
-0.95
-0.965
-0.945
-0.88
-0.81
-0.82
-0.765
-0.64
-0.56
-0.6
-0.65
-0.77
-0.87
-0.97
-1.025
-1.035
-1.025
-1.055
-1.04
-0.97
-0.555
0.445
1.615
0.79
-0.63
-0.765
-0.965
-1.225
-1.225
-1.255
-1.225
-1.24
-1.22
-1.215
-1.2
-1.185
-1.165
-1.155
-1.145
-1.145
-1.125
-1.135
-1.125
-1.14
-1.165
-1.2
-1.235
-1.275
-1.275
-1.22
-1.14
-1.04
-1.0
-0.945
-0.915
-0.91
-0.925
-0.94
-0.94
-0.945
-0.915
-0.93
-0.925
-0.925
-0.935
-0.955
-0.95
-0.96
-0.96
-0.97
-0.985
-0.985
-0.97
-0.965
-0.88
-0.8
-0.815
-0.74
-0.605
-0.595
-0.635
-0.72
-0.855
-0.98
-1.03
-1.035
-1.055
-1.065
-1.065
-1.045
-0.85
-0.125
1.11
1.505
-0.065
-0.915
-0.795
-1.2
-1.245
-1.255
-1.23
-1.235
-1.225
-1.215
-1.2
-1.195
-1.195
-1.165
-1.145
-1.135
-1.13
-1.125
-1.13
-1.15
-1.155
-1.19
-1.2
-1.23
-1.23
-1.21
-1.145
-1.065
-0.995
-0.955
-0.94
-0.945
-0.945
-0.95
-0.955
-0.94
-0.935
-0.94
-0.93
-0.925
-0.92
-0.925
-0.92
-0.935
-0.935
-0.945
-0.945
-0.96
-0.95
-0.93
-0.845
-0.795
-0.775
-0.715
-0.59
-0.565
-0.59
-0.665
-0.765
-0.87
-0.95
-0.98
-0.985
-1.005
-1.01
-1.005
-0.81
-0.085
1.22
2.04
0.665
-0.5
-0.56
-1.025
-1.135
-1.165
-1.17
-1.16
-1.145
-1.145
-1.125
-1.105
-1.085
-1.08
-1.05
-1.04
-1.025
-1.02
-1.01
-1.03
-1.05
-1.085
-1.13
-1.185
-1.22
-1.235
-1.175
-1.085
-0.97
-0.875
-0.81
-0.8
-0.785
-0.785
-0.775
-0.77
-0.765
-0.765
-0.76
-0.765
-0.76
-0.765
-0.77
-0.775
-0.775
-0.79
-0.795
-0.795
-0.795
-0.805
-0.795
-0.805
-0.775
-0.705
-0.63
-0.625
-0.57
-0.455
-0.39
-0.42
-0.475
-0.59
-0.69
-0.785
-0.82
-0.825
-0.84
-0.84
-0.85
-0.71
-0.08
1.095
2.165
1.19
-0.105
-0.305
-0.755
-1.005
-0.99
-1.03
-1.015
-1.02
-1.0
-1.015
-0.985
-0.97
-0.95
-0.93
-0.915
-0.9
-0.89
-0.9
-0.9
-0.92
-0.95
-1.0
-1.045
-1.075
-1.1
-1.07
-0.98
-0.87
-0.78
-0.7
-0.665
-0.665
-0.65
-0.655
-0.64
-0.645
-0.645
-0.66
-0.64
-0.65
-0.655
-0.665
-0.66
-0.675
-0.67
-0.675
-0.685
-0.7
-0.685
-0.685
-0.685
-0.7
-0.685
-0.685
-0.67
-0.59
-0.51
-0.515
-0.445
-0.32
-0.24
-0.27
-0.325
-0.43
-0.53
-0.63
-0.665
-0.665
-0.655
-0.645
-0.655
-0.55
-0.04
1.045
2.22
1.42
0.06
-0.125
-0.455
-0.755
-0.72
-0.745
-0.705
-0.695
-0.67
-0.665
-0.62
-0.56
-0.52
-0.515
-0.49
-0.46
-0.425
-0.39
-0.365
-0.36
-0.36
-0.4
-0.4
-0.395
-0.38
-0.31
-0.225
-0.125
0.0
0.08
0.135
0.17
0.185
0.2
0.24
0.265
0.29
0.31
0.355
0.375
0.375
0.405
0.45
0.465
0.485
0.505
0.535
0.55
0.58
0.6
0.635
0.655
0.68
0.705
0.77
0.825
0.93
0.975
1.03
1.15
1.27
1.32
1.31
1.225
1.145
1.06
1.015
1.025
1.03
1.055
1.075
1.065
1.26
1.85
3.01
3.83
2.455
1.38
1.505
1.185
1.13
1.135
1.145
1.155
1.175
1.215
1.25
1.285
1.31
1.34
1.37
1.37
1.41
1.44
1.45
1.47
1.475
1.45
1.43
1.425
1.44
1.455
1.52
1.59
1.695
1.75
1.755
1.78
1.795
1.785
1.8
1.82
1.83
1.84
1.84
1.84
1.9
1.865
1.85
1.865
1.835
1.845
1.855
1.82
1.84
1.815
1.83
1.855
1.895
1.965
2.01
2.005
2.12
2.215
2.23
2.215
2.135
1.99
1.885
1.81
1.79
1.77
1.735
1.725
1.735
1.855
2.41
3.6
4.485
3.095
1.88
1.985
1.69
1.555
1.555
1.545
1.545
1.535
1.555
1.58
1.595
1.59
1.615
1.635
1.645
1.64
1.66
1.655
1.65
1.635
1.62
1.59
1.56
1.525
1.53
1.565
1.635
1.695
1.74
1.755
1.745
1.74
1.735
1.715
1.71
1.72
1.725
1.715
1.715
1.71
1.71
1.7
1.69
1.67
1.66
1.635
1.63
1.615
1.61
1.605
1.595
1.585
1.625
1.68
1.735
1.73
1.82
1.915
1.915
1.865
1.79
1.68
1.55
1.465
1.43
1.4
1.385
1.36
1.37
1.6
2.385
3.69
4.465
3.085
1.945
1.795
1.26
1.12
1.095
1.06
1.055
1.045
1.05
1.055
1.05
1.065
1.06
1.06
1.075
1.07
1.075
1.05
1.035
1.0
0.955
0.885
0.835
0.77
0.755
0.775
0.845
0.945
1.025
1.085
1.11
1.115
1.11
1.09
1.08
1.08
1.07
1.055
1.045
1.03
1.005
0.995
0.975
0.975
0.95
0.925
0.93
0.91
0.885
0.875
0.865
0.845
0.84
0.835
0.825
0.805
0.805
0.8
0.775
0.77
0.77
0.755
0.815
0.88
0.865
0.88
1.01
1.04
0.995
0.925
0.825
0.73
0.645
0.575
0.545
0.535
0.525
0.495
0.575
1.035
2.085
3.345
2.845
1.375
0.99
0.65
0.23
0.245
0.185
0.185
0.175
0.155
0.17
0.16
0.165
0.165
0.175
0.175
0.18
0.175
0.175
0.155
0.135
0.105
0.065
0.025
-0.03
-0.08
-0.09
-0.045
0.035
0.12
0.205
0.26
0.275
0.265
0.275
0.265
0.24
0.235
0.23
0.215
0.21
0.195
0.175
0.17
0.16
0.13
0.125
0.115
0.105
0.08
0.08
0.08
0.065
0.07
0.08
0.065
0.08
0.08
0.08
0.085
0.09
0.12
0.15
0.2
0.275
0.33
0.365
0.35
0.315
0.26
0.24
0.19
0.155
0.16
0.18
0.195
0.215
0.23
0.375
0.965
2.095
3.085
1.88
0.62
0.645
0.345
0.2
0.235
0.245
0.25
0.295
0.32
0.335
0.365
0.405
0.44
0.475
0.465
0.505
0.545
0.585
0.595
0.6
0.595
0.595
0.565
0.565
0.575
0.6
0.665
0.785
0.86
0.94
0.965
0.98
1.015
1.025
1.06
1.05
1.045
1.13
1.13
1.11
1.135
1.165
1.155
1.175
1.16
1.165
1.2
1.2
1.23
1.21
1.21
1.21
1.235
1.265
1.295
1.33
1.4
1.485
1.535
1.515
1.495
1.45
1.395
1.35
1.295
1.3
1.325
1.345
1.33
1.305
1.38
1.815
2.885
4.08
3.15
1.64
1.54
1.41
1.19
1.215
1.2
1.195
1.205
1.215
1.235
1.225
1.25
1.26
1.255
1.27
1.275
1.28
1.315
1.315
1.325
1.31
1.295
1.275
1.245
1.245
1.265
1.31
1.37
1.41
1.43
1.45
1.435
1.425
1.425
1.43
1.435
1.445
1.445
1.455
1.45
1.455
1.445
1.445
1.44
1.43
1.425
1.415
1.405
1.4
1.395
1.39
1.375
1.375
1.37
1.38
1.435
1.5
1.54
1.56
1.56
1.51
1.465
1.405
1.335
1.29
1.27
1.275
1.27
1.26
1.255
1.455
2.16
3.445
4.4
3.13
1.83
1.685
1.23
1.035
1.04
1.005
1.005
0.995
0.99
1.0
1.01
1.005
1.005
1.005
1.01
1.01
1.01
1.015
0.995
0.955
0.915
0.865
0.8
0.75
0.715
0.72
0.775
0.855
0.955
1.0
1.035
1.04
1.05
1.04
1.035
1.03
1.03
1.02
1.005
1.0
0.995
0.96
0.95
0.94
0.93
0.9
0.885
0.87
0.85
0.845
0.835
0.835
0.835
0.81
0.805
0.805
0.79
0.765
0.775
0.765
0.75
0.73
0.755
0.81
0.835
0.855
0.855
0.825
0.765
0.725
0.665
0.595
0.57
0.55
0.53
0.505
0.5
0.565
0.99
1.99
3.285
2.895
1.29
0.835
0.64
0.205
0.23
0.175
0.175
0.15
0.14
0.155
0.145
0.13
0.125
0.155
0.15
0.14
0.135
0.09
0.085
0.08
0.045
0.02
-0.055
-0.115
-0.125
-0.145
-0.155
-0.075
0.005
0.045
0.095
0.1
0.095
0.11
0.105
0.08
0.08
0.07
0.08
0.025
0.015
0.005
-0.025
-0.01
-0.03
-0.06
-0.06
-0.06
-0.09
-0.11
-0.125
-0.155
-0.165
-0.19
-0.19
-0.2
-0.14
-0.08
-0.055
-0.04
-0.07
-0.12
-0.17
-0.205
-0.27
-0.345
-0.355
-0.345
-0.34
-0.335
-0.365
-0.175
0.59
1.93
2.66
0.9
-0.365
-0.165
-0.475
-0.545
-0.585
-0.605
-0.585
-0.615
-0.58
-0.56
-0.6
-0.585
-0.59
-0.59
-0.56
-0.59
-0.585
-0.605
-0.63
-0.615
-0.645
-0.72
-0.78
-0.815
-0.815
-0.855
-0.81
-0.72
-0.66
-0.615
-0.59
-0.6
-0.605
-0.595
-0.605
-0.6
-0.605
-0.62
-0.61
-0.61
-0.595
-0.62
-0.635
-0.63
-0.645
-0.675
-0.67
-0.67
-0.69
-0.73
-0.725
-0.69
-0.65
-0.6
-0.59
-0.525
-0.52
-0.585
-0.635
-0.67
-0.72
-0.775
-0.795
-0.82
-0.805
-0.805
-0.785
-0.545
0.285
1.75
2.32
0.375
-0.865
-0.64
-0.96
-0.995
-1.005
-1.045
-1.015
-1.03
-1.04
-1.035
-1.01
-1.01
-1.015
-0.985
-0.965
-0.975
-0.97
-0.965
-0.98
-1.0
-1.015
-1.04
-1.095
-1.155
-1.17
-1.15
-1.095
-1.005
-0.925
-0.9
-0.895
-0.915
-0.9
-0.895
-0.89
-0.895
-0.89
-0.88
-0.875
-0.87
-0.87
-0.885
-0.875
-0.865
-0.875
-0.895
-0.9
-0.91
-0.91
-0.935
-0.925
-0.855
-0.795
-0.775
-0.725
-0.735
-0.775
-0.815
-0.845
-0.93
-0.97
-0.98
-1.005
-1.0
-0.99
-0.985
-0.655
0.335
1.855
2.25
0.31
-0.805
-0.71
-1.13
-1.165
-1.195
-1.195
-1.195
-1.185
-1.185
-1.17
-1.175
-1.175
-1.17
-1.15
-1.14
-1.125
-1.14
-1.14
-1.15
-1.16
-1.2
-1.25
-1.3
-1.345
-1.355
-1.325
-1.255
-1.165
-1.09
-1.035
-1.015
-1.0
-0.995
-1.0
-0.985
-0.985
-0.98
-0.97
-0.99
-0.99
-0.995
-0.99
-1.005
-1.005
-1.01
-1.02
-1.04
-1.05
-1.045
-1.04
-1.055
-1.04
-1.015
-0.95
-0.915
-0.885
-0.87
-0.89
-0.915
-0.955
-0.995
-1.06
-1.095
-1.095
-1.105
-1.105
-1.115
-0.965
-0.33
0.975
2.255
1.37
-0.23
-0.57
-0.975
-1.29
-1.285
-1.315
-1.315
-1.31
-1.305
-1.315
-1.305
-1.29
-1.28
-1.275
-1.275
-1.26
-1.255
-1.255
-1.255
-1.26
-1.3
-1.34
-1.37
-1.4
-1.42
-1.405
-1.345
-1.255
-1.185
-1.115
-1.075
-1.05
-1.045
-1.04
-1.035
-1.035
-1.05
-1.04
-1.04
-1.05
-1.06
-1.06
-1.065
-1.065
-1.075
-1.075
-1.085
-1.075
-1.065
-1.06
-1.085
-1.095
-1.1
-1.08
-1.08
-1.075
-1.09
-1.065
-1.005
-0.93
-0.91
-0.88
-0.905
-0.955
-0.975
-1.01
-1.085
-1.13
-1.135
-1.145
-1.145
-1.135
-1.145
-0.86
-0.05
1.25
1.915
0.355
-0.795
-0.77
-1.21
-1.315
-1.315
-1.325
-1.32
-1.315
-1.315
-1.325
-1.335
-1.305
-1.275
-1.26
-1.275
-1.285
-1.275
-1.255
-1.27
-1.295
-1.3
-1.32
-1.36
-1.41
-1.42
-1.37
-1.32
-1.245
-1.18
-1.12
-1.09
-1.12
-1.105
-1.115
-1.135
-1.125
-1.12
-1.125
-1.115
-1.125
-1.125
-1.14
-1.16
-1.15
-1.125
-1.115
-1.155
-1.17
-1.165
-1.18
-1.17
-1.185
-1.165
-1.145
-1.095
-1.05
-1.025
-0.965
-0.99
-1.05
-1.06
-1.105
-1.2
-1.23
-1.225
-1.24
-1.245
-1.245
-1.245
-1.065
-0.45
0.775
1.815
0.41
-1.08
-1.005
-1.255
-1.4
-1.375
-1.425
-1.405
-1.37
-1.37
-1.38
-1.365
-1.325
-1.33
-1.34
-1.35
-1.32
-1.29
-1.275
-1.3
-1.33
-1.31
-1.33
-1.405
-1.43
-1.435
-1.415
-1.38
-1.305
-1.235
-1.215
-1.21
-1.2
-1.185
-1.2
-1.195
-1.195
-1.205
-1.195
-1.155
-1.17
-1.175
-1.145
-1.14
-1.165
-1.185
-1.165
-1.165
-1.17
-1.18
-1.18
-1.19
-1.17
-1.19
-1.165
-1.07
-1.025
-0.99
-0.965
-0.995
-1.055
-1.095
-1.135
-1.2
-1.215
-1.21
-1.23
-1.235
-1.23
-1.135
-0.69
0.46
1.865
1.265
-0.61
-1.065
-1.07
-1.375
-1.355
-1.38
-1.355
-1.365
-1.355
-1.37
-1.34
-1.32
-1.32
-1.315
-1.29
-1.285
-1.285
-1.265
-1.275
-1.28
-1.295
-1.32
-1.36
-1.415
-1.435
-1.425
-1.37
-1.305
-1.225
-1.17
-1.125
-1.105
-1.1
-1.1
-1.1
-1.11
-1.105
-1.08
-1.07
-1.07
-1.075
-1.06
-1.065
-1.065
-1.085
-1.085
-1.085
-1.085
-1.09
-1.1
-1.11
-1.105
-1.095
-1.095
-1.075
-1.015
-0.945
-0.925
-0.89
-0.895
-0.925
-0.965
-1.0
-1.06
-1.115
-1.13
-1.13
-1.135
-1.135
-1.11
-0.815
0.115
1.595
2.31
0.72
-0.505
-0.655
-1.17
-1.26
-1.285
-1.295
-1.295
-1.285
-1.28
-1.265
-1.265
-1.25
-1.25
-1.24
-1.235
-1.225
-1.225
-1.22
-1.225
-1.24
-1.275
-1.315
-1.36
-1.39
-1.395
-1.36
-1.3
-1.2
-1.11
-1.06
-1.03
-0.995
-0.985
-0.98
-0.99
-0.98
-0.985
-0.995
-0.995
-0.985
-0.99
-1.01
-1.01
-1.01
-1.015
-1.015
-1.025
-1.02
-1.035
-1.025
-1.03
-1.025
-1.025
-1.035
-1.025
-1.02
-1.015
-0.995
-0.935
-0.88
-0.85
-0.79
-0.805
-0.835
-0.89
-0.925
-1.005
-1.05
-1.055
-1.06
-1.055
-1.065
-1.05
-0.815
-0.025
1.295
2.16
0.775
-0.445
-0.555
-1.065
-1.2
-1.22
-1.245
-1.235
-1.235
-1.24
-1.23
-1.22
-1.2
-1.195
-1.18
-1.17
-1.16
-1.15
-1.15
-1.145
-1.16
-1.19
-1.22
-1.27
-1.295
-1.3
-1.275
-1.21
-1.115
-1.04
-0.975
-0.955
-0.935
-0.93
-0.925
-0.92
-0.91
-0.925
-0.93
-0.93
-0.925
-0.925
-0.945
-0.96
-0.965
-0.965
-0.965
-0.955
-0.975
-0.995
-0.99
-1.005
-1.01
-1.0
-0.99
-1.0
-1.005
-1.0
-1.01
-1.005
-0.975
-0.965
-0.915
-0.87
-0.83
-0.78
-0.79
-0.84
-0.875
-0.915
-0.995
-1.04
-1.04
-1.045
-1.03
-1.03
-1.04
-0.945
-0.435
0.67
1.935
1.065
-0.485
-0.71
-0.93
-1.18
-1.15
-1.19
-1.18
-1.165
-1.17
-1.155
-1.125
-1.09
-1.095
-1.115
-1.085
-1.045
-1.025
-1.02
-1.03
-1.025
-1.01
-1.02
-1.07
-1.075
-1.09
-1.08
-1.005
-0.905
-0.815
-0.765
-0.695
-0.655
-0.63
-0.63
-0.645
-0.61
-0.56
-0.54
-0.535
-0.53
-0.485
-0.46
-0.46
-0.425
-0.425
-0.38
-0.37
-0.37
-0.35
-0.34
-0.295
-0.265
-0.255
-0.23
-0.21
-0.18
-0.12
-0.12
-0.105
-0.06
0.065
0.145
0.2
0.26
0.265
0.24
0.225
0.195
0.165
0.145
0.18
0.21
0.24
0.265
0.265
0.455
1.11
2.385
3.345
1.915
0.635
0.695
0.435
0.35
0.375
0.39
0.41
0.42
0.455
0.475
0.515
0.55
0.59
0.605
0.625
0.665
0.705
0.72
0.725
0.745
0.75
0.725
0.7
0.685
0.695
0.73
0.82
0.93
0.995
1.06
1.095
1.105
1.12
1.135
1.15
1.165
1.185
1.205
1.215
1.22
1.23
1.235
1.235
1.245
1.245
1.25
1.24
1.235
1.245
1.255
1.26
1.25
1.265
1.275
1.275
1.29
1.305
1.315
1.33
1.375
1.47
1.495
1.53
1.555
1.525
1.48
1.44
1.41
1.345
1.32
1.325
1.335
1.325
1.32
1.465
2.025
3.215
4.535
3.815
2.25
1.875
1.51
1.175
1.175
1.13
1.14
1.145
1.145
1.145
1.155
1.155
1.16
1.175
1.18
1.18
1.175
1.185
1.175
1.155
1.125
1.085
1.03
0.965
0.935
0.925
0.97
1.05
1.15
1.25
1.295
1.34
1.345
1.365
1.35
1.34
1.345
1.345
1.33
1.315
1.305
1.29
1.28
1.255
1.255
1.24
1.22
1.205
1.2
1.185
1.18
1.185
1.165
1.155
1.155
1.15
1.145
1.15
1.13
1.13
1.115
1.105
1.105
1.095
1.095
1.155
1.215
1.225
1.25
1.265
1.21
1.155
1.115
1.045
0.975
0.945
0.935
0.925
0.91
0.91
1.07
1.725
2.94
4.02
2.965
1.6
1.395
0.92
0.66
0.65
0.6
0.605
0.585
0.575
0.57
0.57
0.58
0.585
0.575
0.58
0.575
0.56
0.565
0.555
0.535
0.49
0.43
0.38
0.325
0.285
0.28
0.31
0.38
0.485
0.575
0.625
0.645
0.645
0.655
0.65
0.635
0.63
0.615
0.605
0.59
0.58
0.56
0.535
0.515
0.505
0.49
0.47
0.45
0.44
0.425
0.41
0.405
0.405
0.4
0.385
0.375
0.38
0.375
0.36
0.355
0.35
0.34
0.32
0.325
0.315
0.315
0.375
0.425
0.44
0.475
0.475
0.415
0.365
0.325
0.26
0.195
0.175
0.165
0.15
0.15
0.16
0.37
1.11
2.37
3.17
1.82
0.705
0.61
0.08
-0.05
-0.07
-0.105
-0.105
-0.1
-0.105
-0.115
-0.11
-0.11
-0.105
-0.08
-0.08
-0.08
-0.065
-0.08
-0.08
-0.115
-0.155
-0.185
-0.235
-0.305
-0.34
-0.34
-0.29
-0.185
-0.095
-0.015
0.03
0.03
0.055
0.065
0.055
0.035
0.025
0.02
0.01
0.005
0.01
-0.01
-0.01
-0.035
-0.05
-0.07
-0.08
-0.09
-0.09
-0.08
-0.105
-0.12
-0.11
-0.12
-0.12
-0.135
-0.145
-0.15
-0.15
-0.15
-0.145
-0.14
-0.155
-0.165
-0.115
-0.06
-0.02
0.025
0.025
-0.015
-0.055
-0.105
-0.18
-0.24
-0.255
-0.25
-0.25
-0.25
-0.255
-0.105
0.48
1.68
2.62
1.29
0.005
-0.015
-0.36
-0.495
-0.485
-0.515
-0.51
-0.495
-0.51
-0.51
-0.5
-0.495
-0.495
-0.495
-0.505
-0.505
-0.495
-0.49
-0.505
-0.53
-0.56
-0.58
-0.61
-0.675
-0.7
-0.685
-0.64
-0.535
-0.46
-0.395
-0.37
-0.375
-0.38
-0.365
-0.37
-0.4
-0.39
-0.38
-0.39
-0.41
-0.405
-0.42
-0.455
-0.48
-0.485
-0.495
-0.505
-0.51
-0.52
-0.53
-0.535
-0.525
-0.52
-0.545
-0.545
-0.545
-0.54
-0.545
-0.545
-0.55
-0.54
-0.495
-0.425
-0.39
-0.35
-0.355
-0.395
-0.43
-0.485
-0.55
-0.59
-0.605
-0.605
-0.615
-0.615
-0.61
-0.385
0.385
1.735
2.345
0.775
-0.34
-0.34
-0.745
-0.79
-0.825
-0.825
-0.83
-0.825
-0.83
-0.825
-0.81
-0.815
-0.8
-0.795
-0.8
-0.79
-0.77
-0.78
-0.8
-0.82
-0.855
-0.9
-0.95
-1.01
-1.035
-1.02
-0.965
-0.855
-0.75
-0.675
-0.625
-0.6
-0.6
-0.605
-0.595
-0.6
-0.59
-0.6
-0.61
-0.61
-0.625
-0.62
-0.63
-0.66
-0.67
-0.665
-0.68
-0.695
-0.69
-0.7
-0.705
-0.7
-0.705
-0.705
-0.7
-0.705
-0.695
-0.695
-0.71
-0.705
-0.705
-0.705
-0.705
-0.66
-0.575
-0.54
-0.52
-0.5
-0.53
-0.575
-0.615
-0.675
-0.735
-0.76
-0.75
-0.76
-0.765
-0.76
-0.555
0.175
1.46
2.43
1.225
-0.025
-0.225
-0.745
-0.945
-0.96
-0.99
-0.98
-0.985
-0.99
-0.985
-0.975
-0.96
-0.955
-0.955
-0.94
-0.93
-0.935
-0.935
-0.94
-0.965
-0.995
-1.05
-1.1
-1.16
-1.2
-1.2
-1.15
-1.055
-0.93
-0.83
-0.745
-0.705
-0.7
-0.695
-0.685
-0.695
-0.7
-0.695
-0.705
-0.715
-0.715
-0.74
-0.745
-0.76
-0.765
-0.76
-0.785
-0.785
-0.79
-0.785
-0.785
-0.805
-0.785
-0.79
-0.78
-0.785
-0.77
-0.775
-0.76
-0.765
-0.76
-0.755
-0.75
-0.73
-0.675
-0.585
-0.555
-0.505
-0.485
-0.52
-0.55
-0.575
-0.63
-0.68
-0.68
-0.665
-0.67
-0.65
-0.635
-0.45
0.195
1.405
2.45
1.4
0.15
0.01
-0.445
-0.65
-0.625
-0.645
-0.61
-0.61
-0.57
-0.545
-0.515
-0.495
-0.45
-0.41
-0.375
-0.355
-0.325
-0.295
-0.265
-0.24
-0.265
-0.29
-0.31
-0.335
-0.345
-0.325
-0.24
-0.12
0.045
0.155
0.245
0.32
0.37
0.4
0.415
0.445
0.47
0.495
0.51
0.53
0.55
0.565
0.59
0.61
0.625
0.63
0.665
0.67
0.69
0.71
0.735
0.75
0.77
0.785
0.81
0.835
0.85
0.88
0.915
0.94
0.935
0.96
0.975
1.005
1.09
1.175
1.22
1.275
1.335
1.295
1.275
1.255
1.215
1.155
1.165
1.185
1.18
1.205
1.215
1.33
1.775
2.82
4.08
3.325
1.875
1.65
1.405
1.145
1.17
1.17
1.185
1.155
1.195
1.19
1.2
1.25
1.25
1.255
1.285
1.295
1.285
1.29
1.295
1.305
1.295
1.245
1.22
1.195
1.175
1.185
1.22
1.295
1.415
1.52
1.54
1.55
1.575
1.56
1.555
1.55
1.545
1.555
1.55
1.54
1.535
1.53
1.51
1.505
1.495
1.485
1.455
1.445
1.47
1.45
1.43
1.43
1.42
1.43
1.435
1.415
1.425
1.415
1.41
1.395
1.405
1.46
1.525
1.565
1.59
1.57
1.525
1.47
1.43
1.365
1.315
1.32
1.315
1.3
1.295
1.325
1.595
2.5
3.845
3.87
2.225
1.51
1.47
1.1
1.105
1.055
1.06
1.055
1.055
1.05
1.05
1.05
1.06
1.045
1.055
1.06
1.06
1.05
1.035
1.005
0.985
0.95
0.89
0.84
0.805
0.785
0.81
0.875
0.99
1.07
1.125
1.15
1.145
1.125
1.12
1.1
1.085
1.085
1.075
1.055
1.035
1.02
1.01
0.995
0.97
0.945
0.93
0.895
0.885
0.865
0.865
0.845
0.84
0.83
0.815
0.815
0.81
0.795
0.795
0.775
0.79
0.835
0.91
0.915
0.935
0.945
0.91
0.845
0.795
0.725
0.66
0.635
0.65
0.63
0.635
0.66
0.995
1.93
3.33
3.685
2.165
1.275
1.075
0.54
0.49
0.46
0.45
0.455
0.455
0.47
0.5
0.515
0.545
0.545
0.575
0.595
0.62
0.63
0.65
0.655
0.64
0.63
0.59
0.55
0.52
0.505
0.535
0.615
0.755
0.915
1.045
1.13
1.195
1.225
1.255
1.275
1.305
1.315
1.34
1.36
1.375
1.39
1.39
1.41
1.425
1.45
1.455
1.465
1.48
1.5
1.525
1.55
1.565
1.585
1.6
1.63
1.66
1.68
1.695
1.71
1.735
1.78
1.86
1.945
2.0
2.035
2.045
2.0
1.99
1.96
1.91
1.875
1.89
1.91
1.915
1.92
2.01
2.455
3.475
4.795
4.47
2.99
2.555
2.275
1.86
1.885
1.84
1.84
1.845
1.865
1.875
1.88
1.905
1.915
1.925
1.935
1.96
1.965
1.965
1.965
1.955
1.92
1.89
1.825
1.775
1.735
1.73
1.745
1.84
1.965
2.085
2.165
2.215
2.225
2.225
2.225
2.235
2.22
2.215
2.22
2.215
2.215
2.2
2.185
2.165
2.15
2.14
2.13
2.13
2.115
2.095
2.085
2.08
2.095
2.085
2.095
2.08
2.09
2.085
2.09
2.16
2.225
2.255
2.285
2.255
2.2
2.15
2.085
2.025
1.975
1.975
1.98
1.97
1.955
2.0
2.345
3.275
4.55
4.28
2.75
2.3
2.145
1.74
1.735
1.695
1.695
1.69
1.685
1.68
1.685
1.695
1.685
1.685
1.685
1.68
1.67
1.68
1.68
1.635
1.605
1.575
1.53
1.475
1.435
1.435
1.465
1.535
1.645
1.73
1.745
1.77
1.76
1.77
1.745
1.735
1.73
1.73
1.7
1.69
1.71
1.69
1.635
1.63
1.63
1.595
1.57
1.565
1.545
1.53
1.52
1.52
1.51
1.495
1.475
1.49
1.53
1.595
1.615
1.66
1.675
1.62
1.545
1.5
1.43
1.375
1.335
1.35
1.34
1.33
1.31
1.435
2.0
3.145
4.07
2.765
1.55
1.555
1.19
1.05
1.04
1.01
1.025
1.01
0.975
0.98
0.985
0.975
0.985
0.99
0.985
0.99
0.99
0.985
0.965
0.93
0.895
0.87
0.835
0.8
0.79
0.805
0.855
0.935
1.01
1.055
1.065
1.06
1.04
1.035
1.04
1.015
0.995
0.99
0.98
0.975
0.955
0.95
0.925
0.905
0.89
0.88
0.845
0.84
0.83
0.83
0.815
0.795
0.785
0.78
0.795
0.85
0.9
0.915
0.925
0.905
0.865
0.82
0.775
0.72
0.655
0.655
0.635
0.635
0.615
0.715
1.21
2.335
3.62
2.95
1.455
1.11
0.735
0.385
0.39
0.335
0.315
0.31
0.305
0.305
0.29
0.29
0.295
0.305
0.285
0.285
0.285
0.285
0.245
0.225
0.19
0.12
0.055
-0.005
-0.065
-0.08
-0.05
0.055
0.18
0.285
0.34
0.365
0.375
0.38
0.385
0.38
0.355
0.34
0.335
0.345
0.32
0.305
0.29
0.275
0.24
0.25
0.235
0.215
0.195
0.195
0.19
0.17
0.17
0.16
0.155
0.155
0.15
0.175
0.24
0.27
0.295
0.3
0.275
0.23
0.2
0.17
0.095
0.06
0.06
0.055
0.045
0.045
0.255
0.995
2.235
3.045
1.765
0.655
0.535
0.01
-0.14
-0.165
-0.185
-0.185
-0.19
-0.19
-0.185
-0.165
-0.155
-0.155
-0.15
-0.13
-0.135
-0.12
-0.13
-0.14
-0.165
-0.175
-0.245
-0.285
-0.35
-0.365
-0.345
-0.28
-0.165
-0.05
0.065
0.125
0.15
0.175
0.165
0.185
0.175
0.185
0.17
0.18
0.185
0.2
0.175
0.175
0.165
0.17
0.165
0.175
0.18
0.165
0.17
0.165
0.175
0.195
0.2
0.205
0.23
0.255
0.31
0.365
0.405
0.445
0.425
0.41
0.375
0.32
0.275
0.26
0.265
0.26
0.27
0.275
0.33
0.675
1.605
2.895
2.58
1.065
0.665
0.515
0.15
0.165
0.135
0.15
0.15
0.175
0.165
0.175
0.22
0.215
0.225
0.225
0.235
0.25
0.24
0.245
0.235
0.24
0.205
0.145
0.11
0.09
0.095
0.15
0.245
0.33
0.41
0.475
0.515
0.49
0.49
0.47
0.475
0.495
0.49
0.485
0.475
0.47
0.45
0.46
0.445
0.435
0.4
0.425
0.415
0.4
0.4
0.4
0.38
0.385
0.4
0.395
0.425
0.495
0.545
0.58
0.59
0.575
0.525
0.475
0.42
0.375
0.335
0.315
0.33
0.315
0.295
0.405
0.775
1.755
3.0
2.335
0.835
0.56
0.43
0.145
0.145
0.13
0.125
0.095
0.125
0.12
0.105
0.13
0.13
0.135
0.135
0.14
0.14
0.135
0.135
0.12
0.08
0.05
0.01
-0.01
-0.045
-0.04
-0.01
0.09
0.16
0.225
0.255
0.265
0.25
0.255
0.24
0.235
0.22
0.215
0.215
0.215
0.19
0.185
0.17
0.16
0.14
0.145
0.11
0.105
0.095
0.095
0.085
0.065
0.08
0.085
0.07
0.125
0.19
0.215
0.255
0.25
0.215
0.155
0.105
0.035
-0.02
-0.035
-0.03
-0.03
-0.045
-0.055
0.165
0.92
2.25
3.005
1.53
0.37
0.29
-0.165
-0.25
-0.27
-0.295
-0.29
-0.285
-0.29
-0.29
-0.285
-0.275
-0.275
-0.265
-0.27
-0.27
-0.28
-0.29
-0.3
-0.34
-0.375
-0.435
-0.495
-0.555
-0.585
-0.59
-0.505
-0.4
-0.29
-0.21
-0.16
-0.15
-0.145
-0.145
-0.15
-0.16
-0.165
-0.165
-0.165
-0.19
-0.19
-0.225
-0.225
-0.245
-0.255
-0.275
-0.285
-0.3
-0.3
-0.305
-0.305
-0.335
-0.335
-0.33
-0.34
-0.34
-0.335
-0.335
-0.325
-0.265
-0.205
-0.195
-0.185
-0.19
-0.23
-0.29
-0.315
-0.39
-0.425
-0.435
-0.44
-0.455
-0.45
-0.35
0.205
1.335
2.605
1.945
0.49
0.12
-0.265
-0.645
-0.635
-0.68
-0.685
-0.705
-0.7
-0.695
-0.69
-0.69
-0.675
-0.68
-0.67
-0.67
-0.665
-0.685
-0.685
-0.715
-0.75
-0.8
-0.855
-0.92
-0.95
-0.97
-0.925
-0.84
-0.72
-0.61
-0.525
-0.49
-0.475
-0.465
-0.46
-0.465
-0.465
-0.465
-0.465
-0.485
-0.5
-0.51
-0.52
-0.545
-0.555
-0.565
-0.565
-0.575
-0.585
-0.615
-0.615
-0.61
-0.6
-0.605
-0.61
-0.63
-0.615
-0.625
-0.615
-0.615
-0.57
-0.515
-0.505
-0.465
-0.435
-0.47
-0.52
-0.545
-0.605
-0.695
-0.71
-0.69
-0.69
-0.705
-0.705
-0.625
-0.14
0.925
2.135
1.315
-0.155
-0.355
-0.615
-0.9
-0.885
-0.915
-0.94
-0.93
-0.905
-0.925
-0.92
-0.89
-0.89
-0.9
-0.895
-0.91
-0.885
-0.895
-0.91
-0.925
-0.93
-0.96
-1.025
-1.065
-1.07
-1.075
-1.065
-0.965
-0.845
-0.785
-0.73
-0.705
-0.695
-0.715
-0.73
-0.705
-0.69
-0.705
-0.72
-0.735
-0.735
-0.715
-0.74
-0.745
-0.725
-0.765
-0.76
-0.765
-0.8
-0.815
-0.77
-0.78
-0.785
-0.785
-0.795
-0.815
-0.77
-0.7
-0.62
-0.59
-0.565
-0.595
-0.645
-0.65
-0.69
-0.775
-0.835
-0.81
-0.81
-0.83
-0.81
-0.81
-0.61
0.04
1.315
2.01
0.47
-0.635
-0.565
-0.935
-0.955
-0.97
-0.985
-1.0
-0.99
-0.975
-0.96
-0.94
-0.925
-0.93
-0.935
-0.915
-0.905
-0.915
-0.88
-0.905
-0.9
-0.93
-0.97
-1.015
-1.025
-1.07
-1.055
-0.975
-0.88
-0.83
-0.78
-0.745
-0.75
-0.765
-0.755
-0.745
-0.735
-0.745
-0.745
-0.735
-0.73
-0.74
-0.735
-0.745
-0.75
-0.76
-0.775
-0.775
-0.775
-0.785
-0.78
-0.785
-0.775
-0.765
-0.765
-0.785
-0.77
-0.705
-0.63
-0.595
-0.56
-0.58
-0.63
-0.65
-0.705
-0.76
-0.81
-0.815
-0.81
-0.81
-0.805
-0.795
-0.54
0.295
1.665
2.32
0.775
-0.36
-0.42
-0.875
-0.945
-0.98
-0.98
-0.985
-0.985
-0.975
-0.96
-0.965
-0.945
-0.935
-0.915
-0.93
-0.905
-0.915
-0.905
-0.925
-0.945
-1.0
-1.04
-1.095
-1.15
-1.185
-1.18
-1.125
-1.01
-0.895
-0.81
-0.755
-0.735
-0.725
-0.725
-0.72
-0.71
-0.715
-0.705
-0.7
-0.71
-0.715
-0.715
-0.725
-0.74
-0.74
-0.75
-0.765
-0.77
-0.775
-0.78
-0.79
-0.775
-0.78
-0.785
-0.795
-0.79
-0.795
-0.785
-0.79
-0.785
-0.75
-0.665
-0.635
-0.61
-0.59
-0.615
-0.66
-0.685
-0.745
-0.79
-0.83
-0.83
-0.83
-0.825
-0.835
-0.725
-0.21
0.905
2.22
1.69
0.165
-0.235
-0.58
-0.985
-0.99
-1.035
-1.03
-1.035
-1.04
-1.025
-1.025
-1.01
-1.015
-0.995
-0.97
-0.96
-0.975
-0.945
-0.96
-0.985
-1.035
-1.065
-1.145
-1.185
-1.185
-1.21
-1.22
-1.135
-1.025
-0.91
-0.835
-0.78
-0.775
-0.765
-0.77
-0.755
-0.745
-0.745
-0.77
-0.765
-0.75
-0.78
-0.805
-0.775
-0.775
-0.77
-0.795
-0.8
-0.8
-0.79
-0.805
-0.795
-0.78
-0.775
-0.77
-0.755
-0.755
-0.77
-0.745
-0.715
-0.71
-0.68
-0.605
-0.51
-0.475
-0.45
-0.46
-0.485
-0.515
-0.56
-0.615
-0.615
-0.63
-0.61
-0.585
-0.59
-0.545
-0.25
0.625
1.945
2.175
0.555
-0.26
-0.2
-0.59
-0.605
-0.585
-0.58
-0.57
-0.53
-0.53
-0.51
-0.475
-0.46
-0.43
-0.39
-0.4
-0.37
-0.355
-0.325
-0.325
-0.315
-0.315
-0.345
-0.375
-0.385
-0.39
-0.37
-0.315
-0.185
-0.09
-0.04
-0.005
0.025
0.035
0.065
0.065
0.06
0.08
0.105
0.105
0.1
0.135
0.145
0.15
0.155
0.125
0.125
0.15
0.155
0.135
0.11
0.13
0.16
0.185
0.175
0.17
0.165
0.25
0.33
0.345
0.385
0.395
0.335
0.31
0.27
0.195
0.16
0.165
0.195
0.19
0.2
0.19
0.295
0.795
1.965
3.135
2.05
0.515
0.42
0.275
0.085
0.085
0.055
0.08
0.085
0.1
0.1
0.09
0.11
0.145
0.15
0.15
0.175
0.175
0.17
0.17
0.17
0.145
0.11
0.08
0.05
0.005
0.005
0.05
0.15
0.22
0.285
0.31
0.31
0.315
0.32
0.315
0.315
0.325
0.33
0.325
0.325
0.31
0.305
0.29
0.29
0.28
0.27
0.245
0.24
0.23
0.225
0.215
0.22
0.2
0.21
0.205
0.21
0.22
0.24
0.295
0.35
0.365
0.385
0.37
0.345
0.295
0.255
0.185
0.13
0.115
0.11
0.095
0.105
0.135
0.505
1.485
2.905
3.155
1.575
0.72
0.505
-0.045
-0.09
-0.15
-0.165
-0.175
-0.185
-0.17
-0.165
-0.17
-0.165
-0.17
-0.165
-0.18
-0.165
-0.175
-0.185
-0.2
-0.235
-0.285
-0.34
-0.4
-0.45
-0.485
-0.47
-0.425
-0.325
-0.215
-0.11
-0.07
-0.035
-0.04
-0.035
-0.04
-0.04
-0.065
-0.06
-0.07
-0.08
-0.105
-0.105
-0.125
-0.13
-0.145
-0.155
-0.175
-0.19
-0.205
-0.205
-0.225
-0.22
-0.235
-0.235
-0.245
-0.24
-0.255
-0.24
-0.215
-0.15
-0.115
-0.085
-0.08
-0.1
-0.145
-0.18
-0.24
-0.295
-0.35
-0.345
-0.355
-0.35
-0.355
-0.295
0.1
1.09
2.415
2.355
0.79
0.21
-0.005
-0.48
-0.485
-0.535
-0.535
-0.535
-0.535
-0.53
-0.54
-0.52
-0.51
-0.5
-0.505
-0.485
-0.505
-0.47
-0.495
-0.5
-0.52
-0.555
-0.595
-0.64
-0.68
-0.685
-0.655
-0.595
-0.505
-0.41
-0.325
-0.295
-0.26
-0.23
-0.24
-0.255
-0.275
-0.26
-0.265
-0.265
-0.24
-0.24
-0.27
-0.265
-0.28
-0.285
-0.26
-0.275
-0.29
-0.27
-0.28
-0.29
-0.27
-0.28
-0.285
-0.26
-0.24
-0.22
-0.145
-0.095
-0.04
-0.015
-0.06
-0.105
-0.165
-0.22
-0.27
-0.28
-0.28
-0.295
-0.295
-0.24
-0.22
0.115
1.07
2.315
1.895
0.315
-0.07
-0.145
-0.45
-0.43
-0.455
-0.475
-0.49
-0.465
-0.44
-0.43
-0.44
-0.4
-0.4
-0.41
-0.425
-0.4
-0.375
-0.375
-0.4
-0.385
-0.42
-0.455
-0.5
-0.51
-0.515
-0.495
-0.44
-0.32
-0.25
-0.25
-0.205
-0.225
-0.265
-0.245
-0.24
-0.225
-0.205
-0.24
-0.275
-0.25
-0.24
-0.25
-0.27
-0.275
-0.305
-0.305
-0.285
-0.295
-0.35
-0.325
-0.31
-0.31
-0.335
-0.34
-0.33
-0.275
-0.19
-0.135
-0.11
-0.115
-0.155
-0.225
-0.28
-0.305
-0.385
-0.415
-0.425
-0.42
-0.415
-0.395
-0.275
0.26
1.43
2.515
1.275
-0.16
-0.195
-0.395
-0.58
-0.57
-0.595
-0.59
-0.59
-0.57
-0.56
-0.56
-0.545
-0.54
-0.54
-0.525
-0.53
-0.515
-0.52
-0.51
-0.515
-0.525
-0.56
-0.59
-0.64
-0.64
-0.62
-0.585
-0.5
-0.425
-0.385
-0.365
-0.38
-0.385
-0.39
-0.395
-0.4
-0.395
-0.395
-0.4
-0.385
-0.4
-0.41
-0.42
-0.435
-0.445
-0.455
-0.47
-0.48
-0.49
-0.49
-0.5
-0.505
-0.5
-0.51
-0.48
-0.425
-0.365
-0.34
-0.3
-0.31
-0.34
-0.41
-0.435
-0.505
-0.56
-0.575
-0.58
-0.58
-0.585
-0.57
-0.24
0.65
2.05
2.585
1.075
0.06
-0.105
-0.67
-0.76
-0.79
-0.81
-0.82
-0.81
-0.815
-0.81
-0.805
-0.8
-0.795
-0.78
-0.785
-0.785
-0.785
-0.785
-0.81
-0.825
-0.875
-0.92
-0.985
-1.03
-1.055
-1.055
-1.0
-0.895
-0.79
-0.68
-0.635
-0.605
-0.6
-0.595
-0.585
-0.59
-0.595
-0.585
-0.605
-0.605
-0.61
-0.625
-0.635
-0.635
-0.655
-0.665
-0.685
-0.675
-0.68
-0.685
-0.695
-0.685
-0.7
-0.705
-0.7
-0.7
-0.695
-0.675
-0.615
-0.56
-0.55
-0.525
-0.54
-0.56
-0.595
-0.635
-0.705
-0.76
-0.77
-0.765
-0.77
-0.77
-0.735
-0.39
0.525
1.865
2.055
0.525
-0.23
-0.38
-0.89
-0.925
-0.965
-0.97
-0.99
-0.985
-0.985
-0.975
-0.965
-0.955
-0.95
-0.935
-0.945
-0.93
-0.93
-0.935
-0.945
-0.965
-1.015
-1.04
-1.08
-1.12
-1.15
-1.135
-1.085
-0.99
-0.88
-0.775
-0.74
-0.725
-0.72
-0.73
-0.72
-0.71
-0.71
-0.72
-0.74
-0.75
-0.75
-0.765
-0.78
-0.79
-0.785
-0.815
-0.835
-0.83
-0.83
-0.84
-0.845
-0.845
-0.86
-0.85
-0.855
-0.83
-0.81
-0.74
-0.7
-0.64
-0.63
-0.665
-0.7
-0.75
-0.805
-0.895
-0.905
-0.9
-0.9
-0.895
-0.9
-0.875
-0.595
0.265
1.55
1.63
-0.01
-0.66
-0.645
-1.055
-1.05
-1.065
-1.09
-1.085
-1.06
-1.065
-1.06
-1.04
-1.04
-1.01
-1.03
-1.04
-1.01
-0.98
-1.005
-1.005
-1.005
-1.04
-1.07
-1.09
-1.145
-1.135
-1.125
-1.045
-0.935
-0.855
-0.815
-0.81
-0.815
-0.78
-0.77
-0.785
-0.78
-0.76
-0.76
-0.76
-0.765
-0.76
-0.78
-0.76
-0.77
-0.76
-0.775
-0.775
-0.785
-0.795
-0.775
-0.79
-0.78
-0.76
-0.695
-0.625
-0.56
-0.49
-0.525
-0.555
-0.565
-0.63
-0.68
-0.74
-0.74
-0.715
-0.72
-0.7
-0.72
-0.6
-0.015
1.15
2.15
0.93
-0.4
-0.395
-0.645
-0.805
-0.81
-0.82
-0.795
-0.77
-0.795
-0.765
-0.735
-0.715
-0.695
-0.69
-0.69
-0.67
-0.675
-0.655
-0.645
-0.63
-0.63
-0.68
-0.7
-0.71
-0.75
-0.715
-0.63
-0.575
-0.51
-0.45
-0.44
-0.455
-0.465
-0.445
-0.425
-0.41
-0.41
-0.4
-0.39
-0.365
-0.375
-0.37
-0.38
-0.37
-0.385
-0.415
-0.415
-0.4
-0.4
-0.395
-0.385
-0.385
-0.39
-0.34
-0.265
-0.215
-0.175
-0.14
-0.185
-0.22
-0.25
-0.295
-0.37
-0.38
-0.375
-0.375
-0.375
-0.375
-0.225
0.375
1.62
2.795
1.705
0.245
0.055
-0.295
-0.515
-0.495
-0.525
-0.515
-0.52
-0.505
-0.51
-0.49
-0.485
-0.465
-0.46
-0.445
-0.455
-0.445
-0.435
-0.43
-0.455
-0.485
-0.525
-0.575
-0.635
-0.665
-0.67
-0.61
-0.515
-0.4
-0.315
-0.255
-0.23
-0.23
-0.23
-0.225
-0.22
-0.205
-0.215
-0.205
-0.22
-0.215
-0.225
-0.24
-0.25
-0.265
-0.285
-0.29
-0.305
-0.305
-0.315
-0.315
-0.325
-0.305
-0.315
-0.295
-0.25
-0.2
-0.165
-0.145
-0.14
-0.165
-0.22
-0.23
-0.285
-0.35
-0.38
-0.375
-0.39
-0.375
-0.375
-0.11
0.735
2.045
2.73
1.355
0.29
0.14
-0.425
-0.555
-0.595
-0.6
-0.61
-0.615
-0.615
-0.615
-0.615
-0.605
-0.6
-0.59
-0.59
-0.595
-0.595
-0.605
-0.61
-0.635
-0.67
-0.71
-0.775
-0.825
-0.85
-0.845
-0.785
-0.68
-0.57
-0.485
-0.44
-0.4
-0.415
-0.41
-0.42
-0.41
-0.42
-0.425
-0.435
-0.44
-0.45
-0.455
-0.47
-0.465
-0.485
-0.475
-0.505
-0.505
-0.52
-0.525
-0.535
-0.535
-0.53
-0.535
-0.53
-0.53
-0.52
-0.44
-0.39
-0.365
-0.345
-0.36
-0.39
-0.435
-0.485
-0.52
-0.585
-0.59
-0.595
-0.595
-0.6
-0.56
-0.275
0.585
1.87
2.265
0.795
-0.045
-0.15
-0.67
-0.715
-0.76
-0.79
-0.79
-0.785
-0.795
-0.79
-0.79
-0.775
-0.75
-0.75
-0.735
-0.745
-0.745
-0.75
-0.75
-0.775
-0.82
-0.855
-0.88
-0.93
-0.935
-0.91
-0.835
-0.765
-0.68
-0.595
-0.56
-0.555
-0.545
-0.535
-0.555
-0.56
-0.57
-0.555
-0.54
-0.565
-0.575
-0.56
-0.575
-0.595
-0.6
-0.605
-0.62
-0.63
-0.615
-0.61
-0.62
-0.645
-0.645
-0.61
-0.61
-0.59
-0.495
-0.45
-0.405
-0.4
-0.445
-0.505
-0.54
-0.575
-0.64
-0.685
-0.675
-0.695
-0.685
-0.67
-0.63
-0.345
0.52
1.785
1.615
0.035
-0.46
-0.48
-0.81
-0.81
-0.85
-0.83
-0.835
-0.83
-0.835
-0.835
-0.81
-0.785
-0.795
-0.805
-0.775
-0.78
-0.76
-0.745
-0.755
-0.795
-0.79
-0.84
-0.86
-0.87
-0.88
-0.86
-0.77
-0.685
-0.645
-0.615
-0.57
-0.59
-0.605
-0.605
-0.6
-0.605
-0.595
-0.6
-0.605
-0.605
-0.625
-0.62
-0.61
-0.63
-0.635
-0.65
-0.655
-0.645
-0.625
-0.66
-0.66
-0.65
-0.625
-0.52
-0.46
-0.43
-0.395
-0.415
-0.48
-0.505
-0.555
-0.6
-0.635
-0.62
-0.625
-0.615
-0.6
-0.57
-0.325
0.485
1.795
2.085
0.415
-0.4
-0.265
-0.61
-0.6
-0.615
-0.585
-0.56
-0.555
-0.525
-0.485
-0.455
-0.445
-0.43
-0.395
-0.37
-0.355
-0.31
-0.265
-0.24
-0.195
-0.195
-0.195
-0.21
-0.21
-0.18
-0.11
-0.03
0.055
0.135
0.195
0.22
0.25
0.265
0.305
0.335
0.36
0.385
0.415
0.445
0.475
0.505
0.525
0.54
0.565
0.575
0.585
0.605
0.63
0.65
0.67
0.69
0.72
0.805
0.89
0.93
0.99
1.04
1.01
0.975
0.965
0.91
0.88
0.9
0.915
0.925
0.935
0.95
1.16
1.875
3.2
4.225
2.99
1.67
1.55
1.115
0.94
0.96
0.965
0.955
0.985
0.99
1.005
1.025
1.05
1.065
1.085
1.105
1.12
1.135
1.145
1.14
1.13
1.09
1.06
1.015
0.965
0.93
0.935
0.985
1.095
1.2
1.29
1.345
1.38
1.39
1.395
1.395
1.41
1.405
1.41
1.415
1.41
1.4
1.395
1.4
1.385
1.365
1.36
1.375
1.36
1.33
1.33
1.325
1.32
1.315
1.32
1.33
1.375
1.42
1.435
1.455
1.48
1.45
1.415
1.405
1.345
1.3
1.295
1.29
1.27
1.26
1.245
1.47
2.225
3.49
4.285
2.91
1.765
1.675
1.165
1.03
1.02
0.985
0.97
0.96
0.975
0.955
0.965
0.955
0.98
0.965
0.985
0.975
0.945
0.96
0.94
0.925
0.91
0.855
0.79
0.755
0.735
0.71
0.765
0.83
0.95
1.005
1.015
1.03
1.04
1.04
1.04
1.015
1.015
1.015
0.965
0.955
0.955
0.94
0.925
0.91
0.895
0.87
0.865
0.825
0.835
0.835
0.785
0.8
0.82
0.845
0.925
0.94
0.915
0.88
0.88
0.82
0.765
0.705
0.625
0.625
0.665
0.615
0.595
0.675
1.085
2.15
3.425
2.785
1.045
0.675
0.66
0.35
0.37
0.34
0.33
0.35
0.34
0.315
0.325
0.345
0.325
0.295
0.315
0.305
0.315
0.315
0.305
0.265
0.25
0.24
0.19
0.105
0.065
0.05
0.075
0.145
0.195
0.24
0.295
0.275
0.28
0.285
0.28
0.285
0.275
0.26
0.28
0.255
0.225
0.245
0.24
0.185
0.2
0.195
0.145
0.12
0.135
0.145
0.165
0.185
0.205
0.225
0.28
0.245
0.175
0.115
0.08
0.04
0.005
-0.02
-0.025
-0.045
-0.065
0.125
0.845
2.2
3.13
1.525
0.04
0.13
-0.115
-0.28
-0.255
-0.24
-0.275
-0.285
-0.265
-0.295
-0.3
-0.26
-0.275
-0.295
-0.28
-0.265
-0.25
-0.265
-0.28
-0.315
-0.325
-0.365
-0.415
-0.47
-0.535
-0.53
-0.445
-0.375
-0.315
-0.245
-0.235
-0.245
-0.245
-0.255
-0.24
-0.235
-0.205
-0.23
-0.25
-0.23
-0.235
-0.25
-0.235
-0.26
-0.285
-0.295
-0.285
-0.295
-0.255
-0.235
-0.205
-0.23
-0.19
-0.145
-0.19
-0.265
-0.285
-0.35
-0.415
-0.4
-0.39
-0.405
-0.43
-0.295
0.315
1.625
2.9
1.685
-0.065
-0.195
-0.34
-0.59
-0.56
-0.62
-0.595
-0.595
-0.58
-0.595
-0.595
-0.575
-0.56
-0.55
-0.54
-0.53
-0.53
-0.55
-0.535
-0.535
-0.56
-0.62
-0.665
-0.72
-0.75
-0.745
-0.69
-0.62
-0.515
-0.465
-0.435
-0.425
-0.41
-0.415
-0.435
-0.415
-0.4
-0.4
-0.395
-0.41
-0.4
-0.415
-0.42
-0.425
-0.435
-0.46
-0.465
-0.445
-0.4
-0.325
-0.32
-0.325
-0.27
-0.285
-0.355
-0.395
-0.41
-0.485
-0.545
-0.54
-0.535
-0.56
-0.56
-0.495
-0.095
0.98
2.495
2.48
0.585
-0.205
-0.25
-0.695
-0.705
-0.74
-0.73
-0.745
-0.74
-0.725
-0.72
-0.7
-0.68
-0.695
-0.68
-0.685
-0.68
-0.685
-0.69
-0.695
-0.72
-0.755
-0.78
-0.845
-0.875
-0.88
-0.83
-0.755
-0.665
-0.59
-0.54
-0.51
-0.49
-0.48
-0.49
-0.475
-0.48
-0.485
-0.475
-0.495
-0.505
-0.495
-0.51
-0.525
-0.535
-0.535
-0.53
-0.545
-0.505
-0.425
-0.39
-0.39
-0.31
-0.27
-0.34
-0.39
-0.43
-0.495
-0.575
-0.615
-0.615
-0.615
-0.61
-0.625
-0.55
-0.07
1.07
2.48
2.07
0.435
-0.08
-0.39
-0.805
-0.775
-0.83
-0.82
-0.82
-0.825
-0.82
-0.81
-0.795
-0.79
-0.785
-0.785
-0.77
-0.775
-0.765
-0.77
-0.785
-0.815
-0.865
-0.905
-0.94
-0.98
-0.955
-0.89
-0.79
-0.705
-0.62
-0.575
-0.535
-0.525
-0.525
-0.52
-0.52
-0.525
-0.53
-0.53
-0.535
-0.55
-0.555
-0.56
-0.565
-0.575
-0.57
-0.595
-0.58
-0.595
-0.59
-0.59
-0.555
-0.525
-0.46
-0.425
-0.415
-0.38
-0.345
-0.405
-0.465
-0.49
-0.52
-0.57
-0.615
-0.64
-0.645
-0.645
-0.655
-0.6
-0.22
0.77
2.155
2.12
0.43
-0.265
-0.365
-0.805
-0.785
-0.81
-0.83
-0.845
-0.83
-0.82
-0.795
-0.795
-0.795
-0.78
-0.77
-0.765
-0.76
-0.785
-0.775
-0.76
-0.78
-0.805
-0.85
-0.905
-0.89
-0.9
-0.865
-0.79
-0.7
-0.605
-0.575
-0.58
-0.545
-0.575
-0.59
-0.57
-0.57
-0.575
-0.595
-0.585
-0.56
-0.585
-0.595
-0.6
-0.61
-0.6
-0.595
-0.605
-0.615
-0.545
-0.48
-0.465
-0.445
-0.34
-0.275
-0.34
-0.395
-0.48
-0.58
-0.63
-0.67
-0.69
-0.695
-0.715
-0.715
-0.595
-0.025
1.165
2.295
1.11
-0.43
-0.465
-0.67
-0.9
-0.83
-0.87
-0.89
-0.88
-0.865
-0.84
-0.825
-0.825
-0.82
-0.795
-0.79
-0.8
-0.755
-0.76
-0.765
-0.785
-0.785
-0.815
-0.865
-0.895
-0.93
-0.905
-0.835
-0.78
-0.665
-0.595
-0.635
-0.645
-0.62
-0.615
-0.6
-0.59
-0.615
-0.6
-0.575
-0.6
-0.625
-0.615
-0.61
-0.605
-0.625
-0.645
-0.585
-0.535
-0.49
-0.47
-0.39
-0.27
-0.285
-0.335
-0.425
-0.545
-0.64
-0.715
-0.705
-0.725
-0.735
-0.735
-0.645
-0.145
1.09
2.35
1.38
-0.335
-0.57
-0.665
-0.925
-0.87
-0.91
-0.915
-0.92
-0.91
-0.88
-0.88
-0.865
-0.84
-0.81
-0.815
-0.835
-0.81
-0.78
-0.78
-0.805
-0.82
-0.845
-0.895
-0.915
-0.935
-0.925
-0.845
-0.775
-0.7
-0.65
-0.625
-0.615
-0.62
-0.61
-0.63
-0.605
-0.585
-0.585
-0.59
-0.6
-0.585
-0.59
-0.585
-0.56
-0.555
-0.475
-0.46
-0.455
-0.325
-0.225
-0.26
-0.285
-0.37
-0.49
-0.625
-0.665
-0.67
-0.69
-0.69
-0.69
-0.605
-0.06
1.2
2.56
1.69
-0.055
-0.375
-0.565
-0.89
-0.86
-0.875
-0.87
-0.875
-0.86
-0.855
-0.83
-0.815
-0.815
-0.785
-0.77
-0.785
-0.765
-0.75
-0.765
-0.765
-0.795
-0.83
-0.875
-0.92
-0.935
-0.925
-0.85
-0.75
-0.66
-0.59
-0.56
-0.555
-0.53
-0.525
-0.53
-0.525
-0.52
-0.53
-0.525
-0.53
-0.53
-0.535
-0.535
-0.55
-0.56
-0.565
-0.5
-0.42
-0.41
-0.39
-0.255
-0.175
-0.19
-0.25
-0.345
-0.445
-0.545
-0.61
-0.62
-0.63
-0.62
-0.64
-0.515
0.07
1.325
2.595
1.715
0.155
-0.15
-0.515
-0.82
-0.805
-0.835
-0.815
-0.81
-0.81
-0.795
-0.785
-0.77
-0.765
-0.745
-0.72
-0.72
-0.72
-0.7
-0.715
-0.745
-0.76
-0.805
-0.865
-0.895
-0.905
-0.875
-0.795
-0.68
-0.58
-0.505
-0.475
-0.455
-0.44
-0.45
-0.45
-0.45
-0.44
-0.45
-0.47
-0.465
-0.475
-0.47
-0.49
-0.48
-0.485
-0.495
-0.51
-0.505
-0.5
-0.51
-0.51
-0.495
-0.505
-0.5
-0.505
-0.49
-0.455
-0.375
-0.33
-0.325
-0.23
-0.125
-0.115
-0.15
-0.24
-0.34
-0.445
-0.525
-0.55
-0.56
-0.575
-0.575
-0.57
-0.26
0.635
2.025
2.545
1.02
0.03
-0.12
-0.66
-0.715
-0.755
-0.76
-0.76
-0.75
-0.745
-0.75
-0.72
-0.715
-0.705
-0.695
-0.68
-0.66
-0.665
-0.655
-0.66
-0.695
-0.72
-0.755
-0.81
-0.83
-0.83
-0.785
-0.705
-0.6
-0.495
-0.425
-0.395
-0.38
-0.385
-0.38
-0.38
-0.385
-0.385
-0.375
-0.38
-0.395
-0.4
-0.4
-0.425
-0.415
-0.43
-0.435
-0.43
-0.435
-0.46
-0.465
-0.455
-0.455
-0.455
-0.445
-0.47
-0.445
-0.43
-0.45
-0.445
-0.445
-0.44
-0.425
-0.445
-0.45
-0.455
-0.455
-0.43
-0.435
-0.435
-0.44
-0.44
-0.445
-0.42
-0.43
-0.45
-0.425
-0.355
-0.3
-0.3
-0.23
-0.13
-0.095
-0.15
-0.21
-0.3
-0.395
-0.465
-0.49
-0.49
-0.49
-0.52
-0.5
-0.24
0.555
1.895
2.41
0.785
-0.255
-0.26
-0.65
-0.675
-0.71
-0.68
-0.675
-0.71
-0.695
-0.685
-0.66
-0.66
-0.65
-0.62
-0.64
-0.645
-0.615
-0.635
-0.645
-0.635
-0.655
-0.695
-0.705
-0.735
-0.75
-0.715
-0.635
-0.55
-0.435
-0.355
-0.32
-0.32
-0.315
-0.335
-0.335
-0.325
-0.345
-0.35
-0.355
-0.345
-0.355
-0.39
-0.39
-0.385
-0.4
-0.43
-0.43
-0.435
-0.43
-0.425
-0.425
-0.445
-0.44
-0.435
-0.43
-0.43
-0.435
-0.445
-0.43
-0.425
-0.43
-0.425
-0.39
-0.31
-0.25
-0.275
-0.205
-0.075
-0.07
-0.125
-0.155
-0.25
-0.365
-0.445
-0.45
-0.465
-0.475
-0.475
-0.455
-0.185
0.77
2.11
2.095
0.36
-0.335
-0.28
-0.62
-0.61
-0.65
-0.635
-0.62
-0.635
-0.61
-0.6
-0.595
-0.575
-0.555
-0.55
-0.545
-0.55
-0.525
-0.53
-0.53
-0.54
-0.55
-0.605
-0.64
-0.665
-0.68
-0.645
-0.58
-0.48
-0.385
-0.34
-0.3
-0.29
-0.3
-0.285
-0.285
-0.285
-0.285
-0.275
-0.28
-0.285
-0.285
-0.295
-0.305
-0.32
-0.325
-0.33
-0.335
-0.34
-0.335
-0.345
-0.34
-0.325
-0.33
-0.335
-0.315
-0.305
-0.315
-0.315
-0.3
-0.24
-0.17
-0.135
-0.135
-0.055
0.025
-0.025
-0.07
-0.115
-0.18
-0.265
-0.31
-0.325
-0.335
-0.335
-0.335
-0.24
0.325
1.535
2.85
2.11
0.565
0.18
-0.18
-0.515
-0.505
-0.54
-0.525
-0.535
-0.535
-0.51
-0.51
-0.505
-0.49
-0.49
-0.475
-0.465
-0.455
-0.445
-0.435
-0.465
-0.485
-0.53
-0.58
-0.63
-0.675
-0.695
-0.665
-0.575
-0.455
-0.36
-0.27
-0.215
-0.2
-0.19
-0.18
-0.175
-0.175
-0.175
-0.175
-0.19
-0.205
-0.215
-0.215
-0.225
-0.215
-0.235
-0.235
-0.25
-0.24
-0.245
-0.24
-0.255
-0.265
-0.255
-0.245
-0.25
-0.25
-0.25
-0.245
-0.24
-0.235
-0.23
-0.23
-0.195
-0.125
-0.08
-0.045
-0.015
-0.02
-0.065
-0.11
-0.15
-0.215
-0.265
-0.27
-0.275
-0.265
-0.27
-0.205
0.195
1.195
2.56
2.455
0.89
0.275
0.045
-0.425
-0.42
-0.47
-0.475
-0.47
-0.465
-0.465
-0.46
-0.44
-0.445
-0.425
-0.41
-0.4
-0.41
-0.4
-0.41
-0.405
-0.445
-0.475
-0.53
-0.58
-0.625
-0.64
-0.615
-0.56
-0.45
-0.325
-0.24
-0.195
-0.175
-0.165
-0.155
-0.155
-0.16
-0.17
-0.175
-0.18
-0.2
-0.205
-0.21
-0.22
-0.235
-0.23
-0.24
-0.245
-0.255
-0.25
-0.255
-0.24
-0.24
-0.255
-0.255
-0.255
-0.24
-0.25
-0.255
-0.26
-0.245
-0.24
-0.245
-0.205
-0.12
-0.07
-0.035
0.005
-0.04
-0.08
-0.125
-0.175
-0.25
-0.285
-0.285
-0.29
-0.28
-0.275
-0.21
0.165
1.125
2.455
2.21
0.655
0.175
-0.025
-0.46
-0.44
-0.475
-0.475
-0.485
-0.475
-0.48
-0.47
-0.445
-0.44
-0.445
-0.43
-0.435
-0.405
-0.395
-0.4
-0.44
-0.435
-0.48
-0.525
-0.56
-0.59
-0.595
-0.55
-0.485
-0.37
-0.285
-0.185
-0.135
-0.12
-0.125
-0.11
-0.12
-0.09
-0.075
-0.095
-0.1
-0.08
-0.09
-0.09
-0.065
-0.065
-0.08
-0.07
-0.06
-0.065
-0.065
-0.025
-0.01
0.01
0.015
0.02
0.07
0.08
0.08
0.115
0.135
0.155
0.17
0.21
0.31
0.38
0.44
0.51
0.475
0.46
0.43
0.4
0.36
0.35
0.355
0.375
0.415
0.445
0.47
0.75
1.595
2.935
3.125
1.535
0.79
0.81
0.455
0.475
0.44
0.505
0.5
0.515
0.56
0.585
0.6
0.63
0.65
0.69
0.71
0.725
0.745
0.785
0.775
0.745
0.785
0.78
0.725
0.73
0.735
0.775
0.875
1.005
1.095
1.17
1.2
1.22
1.215
1.235
1.235
1.25
1.255
1.275
1.255
1.27
1.255
1.255
1.26
1.27
1.28
1.285
1.285
1.29
1.295
1.305
1.295
1.31
1.325
1.33
1.34
1.345
1.37
1.37
1.375
1.42
1.5
1.56
1.61
1.63
1.595
1.555
1.51
1.455
1.405
1.39
1.395
1.4
1.415
1.41
1.55
2.115
3.32
4.435
3.27
1.865
1.735
1.435
1.265
1.285
1.255
1.255
1.255
1.265
1.27
1.275
1.295
1.31
1.3
1.32
1.325
1.32
1.325
1.325
1.3
1.27
1.21
1.16
1.125
1.09
1.09
1.145
1.245
1.365
1.435
1.505
1.51
1.52
1.52
1.51
1.505
1.5
1.5
1.505
1.485
1.465
1.46
1.44
1.435
1.425
1.4
1.385
1.37
1.365
1.36
1.345
1.34
1.345
1.335
1.34
1.325
1.335
1.33
1.325
1.32
1.32
1.33
1.395
1.445
1.47
1.48
1.47
1.415
1.375
1.325
1.26
1.205
1.2
1.2
1.185
1.17
1.255
1.725
2.82
4.15
3.67
2.155
1.705
1.34
0.92
0.935
0.89
0.87
0.865
0.845
0.845
0.845
0.845
0.845
0.84
0.84
0.845
0.845
0.84
0.82
0.8
0.77
0.715
0.65
0.6
0.535
0.52
0.545
0.63
0.755
0.88
0.96
1.025
1.045
1.05
1.065
1.075
1.055
1.07
1.07
1.075
1.065
1.065
1.065
1.07
1.065
1.07
1.08
1.075
1.085
1.1
1.12
1.125
1.15
1.175
1.2
1.215
1.235
1.255
1.275
1.295
1.33
1.375
1.465
1.545
1.59
1.655
1.66
1.64
1.625
1.615
1.555
1.535
1.555
1.58
1.595
1.615
1.7
2.11
3.095
4.455
4.335
2.84
2.32
2.105
1.655
1.685
1.655
1.68
1.695
1.71
1.74
1.77
1.785
1.825
1.84
1.865
1.875
1.9
1.9
1.92
1.91
1.89
1.86
1.815
1.755
1.735
1.735
1.77
1.86
1.99
2.1
2.195
2.225
2.255
2.265
2.25
2.245
2.25
2.245
2.235
2.235
2.23
2.21
2.2
2.185
2.175
2.165
2.155
2.16
2.16
2.145
2.145
2.13
2.13
2.125
2.135
2.13
2.13
2.125
2.125
2.105
2.115
2.12
2.115
2.135
2.23
2.235
2.265
2.32
2.27
2.205
2.175
2.105
2.025
2.0
2.015
1.995
1.99
1.985
2.095
2.565
3.65
4.81
3.87
2.49
2.32
1.985
1.755
1.745
1.725
1.735
1.725
1.705
1.705
1.705
1.72
1.725
1.72
1.695
1.705
1.715
1.715
1.68
1.655
1.615
1.59
1.545
1.5
1.475
1.495
1.55
1.63
1.7
1.8
1.84
1.85
1.86
1.845
1.83
1.83
1.82
1.815
1.8
1.795
1.77
1.755
1.735
1.73
1.715
1.69
1.67
1.665
1.65
1.65
1.65
1.635
1.62
1.62
1.615
1.625
1.605
1.595
1.605
1.595
1.615
1.68
1.715
1.74
1.745
1.695
1.65
1.61
1.55
1.49
1.45
1.46
1.44
1.44
1.435
1.585
2.17
3.355
4.335
3.125
1.88
1.785
1.365
1.225
1.19
1.17
1.165
1.16
1.15
1.155
1.15
1.15
1.145
1.155
1.145
1.15
1.145
1.145
1.115
1.095
1.055
1.005
0.955
0.895
0.88
0.88
0.935
1.04
1.145
1.235
1.285
1.305
1.305
1.3
1.28
1.27
1.275
1.26
1.25
1.245
1.225
1.21
1.19
1.185
1.16
1.16
1.125
1.125
1.11
1.11
1.09
1.09
1.085
1.08
1.08
1.085
1.075
1.065
1.075
1.075
1.07
1.125
1.175
1.205
1.215
1.21
1.175
1.14
1.1
1.04
0.975
0.98
0.965
0.965
0.965
1.035
1.475
2.545
3.815
3.315
1.875
1.5
1.15
0.77
0.78
0.725
0.715
0.71
0.7
0.705
0.705
0.715
0.72
0.72
0.72
0.715
0.71
0.71
0.695
0.68
0.645
0.595
0.52
0.465
0.41
0.4
0.43
0.53
0.645
0.74
0.815
0.86
0.855
0.855
0.845
0.835
0.815
0.82
0.805
0.79
0.755
0.765
0.75
0.735
0.72
0.705
0.675
0.66
0.635
0.62
0.6
0.6
0.58
0.575
0.565
0.555
0.545
0.54
0.54
0.535
0.565
0.625
0.64
0.665
0.665
0.615
0.575
0.54
0.46
0.41
0.385
0.39
0.37
0.365
0.41
0.775
1.705
2.975
2.685
1.235
0.79
0.535
0.095
0.105
0.045
0.03
0.015
0.01
0.005
0.005
-0.015
-0.005
-0.025
-0.025
-0.03
-0.035
-0.055
-0.07
-0.115
-0.15
-0.195
-0.25
-0.32
-0.36
-0.39
-0.355
-0.28
-0.165
-0.07
-0.01
0.015
0.04
0.02
0.01
-0.005
-0.025
-0.045
-0.045
-0.055
-0.055
-0.095
-0.105
-0.13
-0.14
-0.155
-0.175
-0.19
-0.185
-0.23
-0.22
-0.24
-0.275
-0.295
-0.29
-0.265
-0.265
-0.255
-0.21
-0.17
-0.14
-0.145
-0.18
-0.24
-0.255
-0.33
-0.385
-0.395
-0.41
-0.42
-0.4
-0.375
-0.13
0.73
1.975
1.92
0.385
-0.195
-0.235
-0.65
-0.635
-0.66
-0.67
-0.69
-0.67
-0.65
-0.67
-0.685
-0.645
-0.645
-0.67
-0.685
-0.66
-0.675
-0.685
-0.695
-0.705
-0.755
-0.8
-0.83
-0.855
-0.86
-0.795
-0.715
-0.64
-0.56
-0.5
-0.485
-0.465
-0.495
-0.505
-0.475
-0.5
-0.515
-0.5
-0.515
-0.53
-0.535
-0.535
-0.56
-0.56
-0.585
-0.58
-0.575
-0.595
-0.605
-0.59
-0.575
-0.57
-0.57
-0.535
-0.48
-0.425
-0.375
-0.365
-0.415
-0.44
-0.445
-0.505
-0.59
-0.585
-0.575
-0.575
-0.57
-0.52
-0.235
0.72
2.015
1.93
0.2
-0.415
-0.35
-0.7
-0.675
-0.705
-0.675
-0.695
-0.72
-0.685
-0.675
-0.665
-0.675
-0.67
-0.66
-0.64
-0.63
-0.615
-0.635
-0.65
-0.645
-0.655
-0.705
-0.745
-0.79
-0.76
-0.715
-0.645
-0.545
-0.46
-0.425
-0.41
-0.405
-0.395
-0.4
-0.39
-0.4
-0.39
-0.38
-0.4
-0.395
-0.39
-0.4
-0.395
-0.415
-0.425
-0.425
-0.39
-0.42
-0.435
-0.43
-0.415
-0.39
-0.31
-0.265
-0.235
-0.24
-0.24
-0.275
-0.31
-0.375
-0.41
-0.41
-0.4
-0.41
-0.405
-0.33
0.06
1.13
2.505
2.135
0.355
-0.17
-0.185
-0.53
-0.495
-0.545
-0.525
-0.535
-0.525
-0.51
-0.49
-0.485
-0.475
-0.465
-0.435
-0.43
-0.435
-0.435
-0.435
-0.45
-0.455
-0.495
-0.545
-0.6
-0.625
-0.635
-0.59
-0.495
-0.385
-0.31
-0.24
-0.23
-0.215
-0.205
-0.2
-0.19
-0.185
-0.185
-0.18
-0.18
-0.17
-0.18
-0.185
-0.195
-0.205
-0.215
-0.215
-0.215
-0.225
-0.225
-0.21
-0.205
-0.165
-0.11
-0.065
-0.035
-0.035
-0.065
-0.08
-0.105
-0.165
-0.235
-0.235
-0.225
-0.23
-0.23
-0.14
0.37
1.56
2.965
2.43
0.815
0.34
0.015
-0.365
-0.355
-0.395
-0.39
-0.385
-0.39
-0.375
-0.375
-0.365
-0.355
-0.335
-0.34
-0.335
-0.325
-0.325
-0.34
-0.36
-0.385
-0.43
-0.5
-0.545
-0.61
-0.61
-0.57
-0.465
-0.34
-0.22
-0.145
-0.095
-0.08
-0.07
-0.06
-0.05
-0.055
-0.055
-0.065
-0.055
-0.07
-0.07
-0.08
-0.08
-0.09
-0.1
-0.11
-0.105
-0.11
-0.115
-0.11
-0.095
-0.1
-0.075
-0.02
0.03
0.055
0.08
0.075
0.045
0.015
-0.01
-0.07
-0.12
-0.115
-0.11
-0.11
-0.115
0.05
0.72
1.95
2.99
1.925
0.615
0.445
-0.015
-0.255
-0.24
-0.29
-0.29
-0.285
-0.27
-0.27
-0.26
-0.255
-0.24
-0.24
-0.23
-0.22
-0.22
-0.22
-0.22
-0.245
-0.285
-0.34
-0.385
-0.435
-0.47
-0.465
-0.4
-0.3
-0.17
-0.07
-0.025
0.01
0.015
0.03
0.045
0.045
0.045
0.03
0.025
0.0
0.01
0.0
0.005
-0.005
-0.005
-0.025
-0.035
-0.035
-0.03
-0.035
-0.03
-0.04
-0.045
-0.03
-0.035
-0.02
0.01
-0.005
0.05
0.105
0.135
0.175
0.16
0.125
0.105
0.05
-0.005
-0.06
-0.05
-0.055
-0.045
-0.045
0.005
0.275
1.155
2.46
2.59
0.965
0.255
0.225
-0.185
-0.195
-0.23
-0.24
-0.24
-0.235
-0.225
-0.245
-0.22
-0.21
-0.185
-0.19
-0.19
-0.185
-0.185
-0.205
-0.195
-0.215
-0.25
-0.305
-0.355
-0.38
-0.385
-0.355
-0.275
-0.18
-0.08
-0.035
-0.005
0.015
0.015
-0.015
0.005
-0.005
-0.005
-0.01
0.0
-0.015
-0.025
-0.05
-0.035
-0.05
-0.055
-0.075
-0.07
-0.065
-0.08
-0.08
-0.075
-0.09
-0.08
-0.065
-0.045
0.025
0.08
0.11
0.165
0.13
0.085
0.04
-0.03
-0.095
-0.125
-0.125
-0.115
-0.12
-0.11
-0.07
0.245
1.17
2.455
2.185
0.56
0.05
0.035
-0.285
-0.27
-0.305
-0.295
-0.295
-0.27
-0.275
-0.275
-0.27
-0.24
-0.255
-0.24
-0.23
-0.225
-0.225
-0.235
-0.23
-0.24
-0.29
-0.325
-0.365
-0.39
-0.39
-0.33
-0.26
-0.175
-0.12
-0.065
-0.07
-0.08
-0.075
-0.065
-0.095
-0.095
-0.095
-0.1
-0.09
-0.085
-0.1
-0.1
-0.12
-0.11
-0.125
-0.14
-0.145
-0.125
-0.135
-0.125
-0.14
-0.145
-0.105
-0.025
0.02
0.08
0.11
0.07
0.035
-0.01
-0.07
-0.12
-0.155
-0.16
-0.155
-0.15
-0.15
-0.075
0.33
1.405
2.75
2.245
0.58
0.16
0.015
-0.295
-0.29
-0.325
-0.325
-0.3
-0.3
-0.295
-0.29
-0.26
-0.26
-0.25
-0.245
-0.23
-0.225
-0.23
-0.23
-0.25
-0.28
-0.325
-0.38
-0.435
-0.485
-0.47
-0.43
-0.325
-0.215
-0.135
-0.08
-0.06
-0.05
-0.055
-0.055
-0.065
-0.065
-0.055
-0.06
-0.06
-0.06
-0.07
-0.08
-0.085
-0.11
-0.11
-0.13
-0.14
-0.145
-0.145
-0.165
-0.17
-0.175
-0.17
-0.165
-0.095
-0.055
-0.025
0.0
0.005
-0.04
-0.07
-0.125
-0.185
-0.24
-0.255
-0.265
-0.265
-0.27
-0.23
0.16
1.175
2.61
2.675
1.06
0.32
0.08
-0.45
-0.465
-0.51
-0.525
-0.52
-0.525
-0.52
-0.525
-0.525
-0.515
-0.505
-0.51
-0.505
-0.495
-0.49
-0.52
-0.53
-0.56
-0.615
-0.675
-0.73
-0.785
-0.81
-0.785
-0.7
-0.59
-0.49
-0.42
-0.36
-0.35
-0.34
-0.34
-0.345
-0.35
-0.35
-0.35
-0.365
-0.375
-0.39
-0.39
-0.395
-0.415
-0.415
-0.425
-0.44
-0.445
-0.445
-0.445
-0.455
-0.46
-0.46
-0.465
-0.445
-0.455
-0.4
-0.33
-0.305
-0.265
-0.24
-0.295
-0.325
-0.37
-0.435
-0.495
-0.52
-0.51
-0.51
-0.525
-0.515
-0.29
0.475
1.73
2.515
1.185
0.07
-0.025
-0.515
-0.665
-0.67
-0.705
-0.695
-0.705
-0.695
-0.685
-0.685
-0.69
-0.675
-0.67
-0.655
-0.65
-0.645
-0.65
-0.66
-0.685
-0.71
-0.765
-0.82
-0.86
-0.875
-0.865
-0.795
-0.685
-0.58
-0.51
-0.455
-0.44
-0.415
-0.41
-0.4
-0.44
-0.45
-0.45
-0.445
-0.455
-0.45
-0.465
-0.46
-0.47
-0.475
-0.495
-0.485
-0.495
-0.495
-0.49
-0.49
-0.5
-0.485
-0.495
-0.49
-0.465
-0.46
-0.46
-0.39
-0.34
-0.28
-0.235
-0.27
-0.305
-0.34
-0.425
-0.485
-0.5
-0.495
-0.495
-0.485
-0.5
-0.45
-0.1
0.835
2.135
1.92
0.32
-0.18
-0.275
-0.645
-0.64
-0.67
-0.685
-0.685
-0.66
-0.655
-0.65
-0.63
-0.63
-0.625
-0.605
-0.595
-0.585
-0.575
-0.59
-0.6
-0.63
-0.655
-0.695
-0.735
-0.765
-0.745
-0.695
-0.595
-0.515
-0.425
-0.395
-0.37
-0.365
-0.36
-0.365
-0.35
-0.365
-0.355
-0.37
-0.365
-0.355
-0.375
-0.385
-0.385
-0.385
-0.415
-0.43
-0.41
-0.4
-0.445
-0.44
-0.425
-0.425
-0.405
-0.4
-0.4
-0.38
-0.28
-0.24
-0.195
-0.165
-0.195
-0.265
-0.29
-0.33
-0.41
-0.425
-0.415
-0.44
-0.435
-0.425
-0.345
0.07
1.125
2.355
1.525
0.03
-0.18
-0.325
-0.55
-0.545
-0.55
-0.555
-0.545
-0.55
-0.535
-0.53
-0.525
-0.52
-0.51
-0.5
-0.485
-0.48
-0.46
-0.475
-0.485
-0.5
-0.51
-0.55
-0.585
-0.595
-0.58
-0.51
-0.425
-0.345
-0.28
-0.25
-0.225
-0.24
-0.255
-0.25
-0.235
-0.235
-0.23
-0.225
-0.22
-0.225
-0.225
-0.235
-0.235
-0.26
-0.25
-0.26
-0.265
-0.27
-0.265
-0.275
-0.27
-0.265
-0.26
-0.25
-0.24
-0.205
-0.13
-0.08
-0.04
-0.01
-0.04
-0.075
-0.125
-0.165
-0.225
-0.27
-0.26
-0.265
-0.25
-0.275
-0.12
0.51
1.735
2.915
1.975
0.565
0.315
-0.125
-0.4
-0.4
-0.44
-0.435
-0.425
-0.43
-0.415
-0.395
-0.385
-0.375
-0.375
-0.365
-0.345
-0.345
-0.335
-0.355
-0.375
-0.41
-0.445
-0.495
-0.56
-0.6
-0.605
-0.55
-0.44
-0.335
-0.215
-0.135
-0.09
-0.095
-0.08
-0.075
-0.07
-0.075
-0.065
-0.08
-0.08
-0.08
-0.08
-0.1
-0.095
-0.11
-0.11
-0.115
-0.13
-0.125
-0.125
-0.125
-0.125
-0.115
-0.105
-0.11
-0.105
-0.09
-0.07
0.02
0.065
0.105
0.145
0.095
0.06
0.015
-0.03
-0.105
-0.115
-0.125
-0.125
-0.12
-0.125
0.06
0.71
1.92
2.91
1.82
0.575
0.425
-0.04
-0.265
-0.255
-0.295
-0.275
-0.29
-0.275
-0.27
-0.25
-0.26
-0.235
-0.23
-0.23
-0.21
-0.195
-0.2
-0.205
-0.23
-0.25
-0.31
-0.355
-0.41
-0.435
-0.41
-0.37
-0.265
-0.145
-0.065
0.01
0.035
0.055
0.045
0.06
0.06
0.055
0.045
0.045
0.035
0.035
0.03
0.025
0.005
-0.01
-0.015
-0.005
-0.005
-0.025
-0.015
-0.01
-0.025
-0.02
-0.005
0.005
0.0
0.01
0.06
0.145
0.18
0.225
0.225
0.195
0.15
0.115
0.035
-0.01
-0.025
-0.03
-0.025
-0.02
-0.02
0.185
0.87
2.095
2.815
1.42
0.35
0.35
-0.08
-0.16
-0.18
-0.185
-0.185
-0.175
-0.18
-0.18
-0.175
-0.16
-0.145
-0.115
-0.135
-0.115
-0.125
-0.125
-0.13
-0.14
-0.175
-0.205
-0.245
-0.28
-0.29
-0.265
-0.195
-0.09
-0.01
0.06
0.09
0.105
0.105
0.105
0.09
0.095
0.095
0.105
0.1
0.095
0.09
0.08
0.05
0.055
0.05
0.04
0.025
0.04
0.035
0.015
0.01
0.035
0.015
0.015
0.045
0.07
0.13
0.2
0.255
0.275
0.225
0.19
0.165
0.115
0.045
0.02
0.01
-0.005
0.005
0.025
0.05
0.355
1.245
2.515
2.41
0.835
0.28
0.23
-0.14
-0.13
-0.155
-0.155
-0.17
-0.155
-0.155
-0.155
-0.125
-0.11
-0.135
-0.105
-0.1
-0.095
-0.085
-0.08
-0.105
-0.115
-0.13
-0.16
-0.205
-0.225
-0.225
-0.15
-0.065
0.015
0.09
0.13
0.14
0.145
0.145
0.135
0.115
0.115
0.11
0.12
0.13
0.115
0.09
0.09
0.085
0.105
0.08
0.05
0.05
0.03
0.045
0.055
0.035
0.04
0.055
0.075
0.145
0.215
0.275
0.305
0.305
0.265
0.215
0.175
0.11
0.065
0.07
0.08
0.08
0.085
0.115
0.375
1.225
2.56
2.835
1.21
0.36
0.395
0.015
0.015
0.005
0.005
0.01
0.025
0.03
0.05
0.065
0.08
0.095
0.11
0.115
0.145
0.15
0.145
0.15
0.145
0.105
0.08
0.035
0.01
0.005
0.05
0.14
0.24
0.33
0.405
0.43
0.44
0.44
0.445
0.45
0.455
0.445
0.455
0.46
0.465
0.455
0.445
0.43
0.415
0.4
0.4
0.39
0.39
0.37
0.385
0.39
0.375
0.38
0.385
0.4
0.445
0.52
0.545
0.575
0.6
0.545
0.5
0.455
0.4
0.325
0.3
0.305
0.3
0.285
0.305
0.59
1.5
2.875
3.38
1.875
0.895
0.705
0.145
0.08
0.035
0.0
0.0
0.005
0.0
-0.02
-0.015
-0.02
-0.015
-0.02
-0.015
-0.02
-0.03
-0.045
-0.07
-0.105
-0.165
-0.22
-0.275
-0.35
-0.385
-0.38
-0.295
-0.195
-0.08
0.005
0.05
0.08
0.08
0.075
0.065
0.055
0.045
0.035
0.02
0.005
-0.015
-0.03
-0.035
-0.055
-0.07
-0.08
-0.1
-0.11
-0.12
-0.13
-0.13
-0.14
-0.145
-0.15
-0.145
-0.13
-0.05
-0.01
0.02
0.055
0.02
-0.04
-0.075
-0.13
-0.2
-0.255
-0.265
-0.27
-0.27
-0.285
-0.195
0.255
1.305
2.54
2.015
0.585
0.245
-0.09
-0.475
-0.48
-0.52
-0.52
-0.51
-0.525
-0.525
-0.53
-0.525
-0.515
-0.52
-0.505
-0.5
-0.495
-0.5
-0.51
-0.525
-0.565
-0.615
-0.675
-0.735
-0.775
-0.755
-0.72
-0.63
-0.525
-0.42
-0.355
-0.315
-0.31
-0.305
-0.32
-0.305
-0.31
-0.335
-0.35
-0.35
-0.355
-0.365
-0.375
-0.385
-0.385
-0.4
-0.41
-0.41
-0.425
-0.435
-0.44
-0.425
-0.43
-0.435
-0.435
-0.435
-0.425
-0.405
-0.36
-0.28
-0.245
-0.215
-0.19
-0.24
-0.28
-0.355
-0.445
-0.465
-0.465
-0.465
-0.45
-0.45
-0.46
-0.275
0.415
1.625
2.325
0.92
-0.115
-0.08
-0.515
-0.59
-0.625
-0.63
-0.62
-0.625
-0.615
-0.595
-0.605
-0.56
-0.57
-0.575
-0.55
-0.555
-0.545
-0.53
-0.555
-0.58
-0.595
-0.635
-0.665
-0.685
-0.715
-0.67
-0.6
-0.505
-0.415
-0.36
-0.355
-0.345
-0.345
-0.335
-0.335
-0.385
-0.395
-0.38
-0.4
-0.41
-0.43
-0.43
-0.46
-0.49
-0.49
-0.51
-0.53
-0.545
-0.585
-0.59
-0.59
-0.59
-0.61
-0.615
-0.635
-0.59
-0.545
-0.525
-0.47
-0.455
-0.535
-0.59
-0.655
-0.725
-0.805
-0.845
-0.87
-0.885
-0.895
-0.91
-0.855
-0.5
0.445
1.65
1.015
-0.48
-0.775
-0.935
-1.225
-1.225
-1.265
-1.265
-1.285
-1.3
-1.32
-1.31
-1.315
-1.335
-1.335
-1.345
-1.375
-1.375
-1.36
-1.4
-1.425
-1.44
-1.495
-1.515
-1.57
-1.585
-1.585
-1.535
-1.46
-1.415
-1.355
-1.325
-1.355
-1.385
-1.41
-1.42
-1.445
-1.45
-1.465
-1.47
-1.485
-1.5
-1.515
-1.51
-1.53
-1.54
-1.555
-1.57
-1.585
-1.605
-1.615
-1.615
-1.62
-1.615
-1.615
-1.615
-1.6
-1.52
-1.475
-1.44
-1.425
-1.48
-1.54
-1.575
-1.655
-1.72
-1.74
-1.74
-1.755
-1.755
-1.765
-1.635
-1.115
0.065
1.225
0.145
-1.315
-1.46
-1.75
-1.95
-1.94
-1.955
-1.965
-1.96
-1.96
-1.955
-1.94
-1.935
-1.925
-1.92
-1.91
-1.915
-1.905
-1.905
-1.91
-1.93
-1.965
-2.005
-2.06
-2.095
-2.13
-2.125
-2.06
-1.965
-1.855
-1.765
-1.73
-1.68
-1.7
-1.695
-1.69
-1.685
-1.685
-1.68
-1.68
-1.675
-1.68
-1.69
-1.69
-1.695
-1.7
-1.72
-1.72
-1.73
-1.73
-1.725
-1.71
-1.68
-1.69
-1.68
-1.68
-1.665
-1.655
-1.62
-1.565
-1.495
-1.47
-1.425
-1.405
-1.435
-1.485
-1.51
-1.58
-1.625
-1.625
-1.615
-1.61
-1.605
-1.58
-1.255
-0.34
1.04
1.52
0.035
-0.905
-1.06
-1.605
-1.67
-1.705
-1.705
-1.72
-1.7
-1.69
-1.67
-1.655
-1.64
-1.615
-1.605
-1.6
-1.575
-1.565
-1.565
-1.56
-1.575
-1.615
-1.66
-1.72
-1.76
-1.775
-1.75
-1.67
-1.555
-1.435
-1.335
-1.28
-1.235
-1.215
-1.205
-1.2
-1.18
-1.185
-1.175
-1.185
-1.17
-1.165
-1.17
-1.17
-1.16
-1.15
-1.155
-1.155
-1.145
-1.15
-1.13
-1.125
-1.125
-1.11
-1.1
-1.09
-1.08
-1.075
-1.055
-1.03
-0.95
-0.875
-0.84
-0.805
-0.8
-0.84
-0.875
-0.895
-0.955
-0.99
-0.99
-0.985
-0.985
-0.975
-0.95
-0.675
0.17
1.47
1.985
0.53
-0.365
-0.455
-0.97
-1.05
-1.065
-1.075
-1.06
-1.035
-1.035
-1.03
-1.01
-1.0
-0.97
-0.97
-0.95
-0.935
-0.94
-0.94
-0.93
-0.945
-0.955
-1.0
-1.04
-1.085
-1.095
-1.07
-1.0
-0.895
-0.775
-0.705
-0.65
-0.64
-0.62
-0.605
-0.605
-0.6
-0.615
-0.61
-0.605
-0.6
-0.595
-0.605
-0.61
-0.61
-0.6
-0.605
-0.61
-0.61
-0.615
-0.595
-0.605
-0.63
-0.58
-0.585
-0.59
-0.56
-0.485
-0.42
-0.375
-0.34
-0.34
-0.355
-0.4
-0.455
-0.5
-0.555
-0.55
-0.54
-0.535
-0.54
-0.51
-0.355
0.225
1.41
2.245
0.89
-0.27
-0.21
-0.55
-0.635
-0.625
-0.655
-0.665
-0.625
-0.635
-0.635
-0.59
-0.58
-0.58
-0.545
-0.545
-0.555
-0.53
-0.525
-0.52
-0.525
-0.535
-0.585
-0.6
-0.625
-0.645
-0.62
-0.545
-0.44
-0.36
-0.325
-0.3
-0.29
-0.28
-0.29
-0.285
-0.285
-0.28
-0.3
-0.28
-0.26
-0.255
-0.27
-0.27
-0.275
-0.3
-0.295
-0.305
-0.305
-0.295
-0.315
-0.335
-0.29
-0.265
-0.295
-0.26
-0.16
-0.095
-0.06
-0.03
-0.07
-0.115
-0.16
-0.195
-0.275
-0.295
-0.29
-0.27
-0.295
-0.32
-0.225
0.165
1.18
2.47
1.825
0.2
-0.085
-0.145
-0.445
-0.4
-0.435
-0.415
-0.415
-0.395
-0.385
-0.365
-0.36
-0.345
-0.335
-0.31
-0.31
-0.295
-0.29
-0.29
-0.29
-0.29
-0.305
-0.33
-0.375
-0.39
-0.38
-0.315
-0.235
-0.16
-0.105
-0.075
-0.065
-0.05
-0.07
-0.075
-0.07
-0.045
-0.04
-0.04
-0.025
-0.01
-0.025
-0.03
-0.04
-0.03
-0.055
-0.055
-0.065
-0.065
-0.075
-0.07
-0.055
-0.06
-0.03
0.065
0.115
0.155
0.18
0.145
0.11
0.07
0.015
-0.04
-0.055
-0.065
-0.065
-0.065
-0.065
0.055
0.615
1.79
3.095
2.395
0.885
0.525
0.15
-0.195
-0.17
-0.21
-0.215
-0.2
-0.2
-0.19
-0.19
-0.17
-0.165
-0.145
-0.13
-0.125
-0.125
-0.12
-0.125
-0.135
-0.185
-0.23
-0.28
-0.33
-0.38
-0.4
-0.35
-0.25
-0.125
-0.015
0.06
0.095
0.095
0.115
0.12
0.125
0.13
0.13
0.13
0.135
0.125
0.125
0.115
0.115
0.105
0.115
0.095
0.085
0.095
0.095
0.09
0.1
0.1
0.105
0.11
0.12
0.19
0.25
0.28
0.31
0.325
0.29
0.24
0.22
0.155
0.105
0.09
0.085
0.08
0.09
0.1
0.37
1.205
2.495
3.115
1.71
0.715
0.595
0.055
-0.035
-0.06
-0.075
-0.06
-0.065
-0.07
-0.06
-0.045
-0.045
-0.035
-0.015
-0.015
0.005
0.02
0.015
-0.005
-0.025
-0.06
-0.09
-0.15
-0.2
-0.22
-0.19
-0.13
-0.025
0.095
0.18
0.225
0.245
0.265
0.265
0.265
0.265
0.27
0.275
0.26
0.275
0.265
0.255
0.255
0.26
0.255
0.25
0.26
0.26
0.245
0.25
0.24
0.255
0.245
0.245
0.255
0.265
0.265
0.33
0.405
0.425
0.45
0.475
0.45
0.425
0.365
0.31
0.24
0.24
0.225
0.245
0.24
0.225
0.335
0.845
1.875
3.035
2.21
0.815
0.64
0.35
0.08
0.115
0.08
0.085
0.09
0.08
0.08
0.11
0.125
0.135
0.125
0.13
0.15
0.155
0.165
0.16
0.165
0.155
0.09
0.06
0.01
-0.025
0.01
0.055
0.13
0.225
0.305
0.36
0.365
0.365
0.375
0.365
0.37
0.365
0.355
0.365
0.36
0.365
0.365
0.345
0.335
0.34
0.33
0.325
0.33
0.33
0.3
0.31
0.295
0.295
0.325
0.315
0.335
0.415
0.465
0.545
0.57
0.52
0.49
0.435
0.4
0.32
0.27
0.3
0.28
0.275
0.29
0.315
0.505
1.23
2.465
2.9
1.345
0.435
0.545
0.17
0.155
0.135
0.13
0.15
0.13
0.135
0.175
0.21
0.2
0.19
0.19
0.195
0.245
0.26
0.225
0.22
0.23
0.23
0.17
0.15
0.14
0.155
0.165
0.225
0.32
0.4
0.425
0.43
0.415
0.4
0.415
0.425
0.425
0.415
0.425
0.415
0.455
0.43
0.405
0.405
0.38
0.37
0.34
0.365
0.36
0.36
0.375
0.375
0.37
0.39
0.4
0.435
0.515
0.56
0.595
0.635
0.58
0.545
0.505
0.46
0.4
0.37
0.37
0.37
0.38
0.37
0.485
1.01
2.16
3.355
2.325
0.835
0.695
0.44
0.235
0.255
0.235
0.23
0.24
0.245
0.24
0.26
0.275
0.285
0.29
0.3
0.305
0.31
0.31
0.31
0.285
0.25
0.215
0.17
0.115
0.095
0.08
0.135
0.24
0.335
0.4
0.45
0.46
0.47
0.485
0.49
0.475
0.495
0.475
0.48
0.49
0.475
0.47
0.465
0.455
0.445
0.43
0.42
0.4
0.415
0.41
0.405
0.4
0.405
0.405
0.405
0.405
0.45
0.52
0.57
0.575
0.61
0.56
0.525
0.475
0.42
0.35
0.32
0.325
0.32
0.31
0.31
0.475
1.145
2.385
3.475
2.48
1.145
0.9
0.42
0.15
0.15
0.105
0.105
0.095
0.11
0.11
0.115
0.12
0.13
0.145
0.155
0.155
0.155
0.145
0.135
0.115
0.085
0.025
-0.035
-0.08
-0.12
-0.12
-0.07
0.015
0.13
0.23
0.29
0.315
0.325
0.305
0.31
0.315
0.3
0.31
0.29
0.265
0.255
0.24
0.24
0.215
0.195
0.175
0.165
0.155
0.145
0.12
0.105
0.095
0.095
0.065
0.065
0.05
0.055
0.115
0.155
0.16
0.185
0.175
0.125
0.065
-0.005
-0.08
-0.145
-0.145
-0.165
-0.17
-0.2
-0.19
0.065
0.835
2.09
2.69
1.285
0.305
0.21
-0.35
-0.47
-0.515
-0.545
-0.555
-0.575
-0.595
-0.595
-0.615
-0.62
-0.615
-0.625
-0.635
-0.655
-0.675
-0.695
-0.705
-0.735
-0.79
-0.85
-0.915
-0.985
-1.01
-1.015
-0.97
-0.87
-0.785
-0.745
-0.73
-0.695
-0.715
-0.735
-0.735
-0.765
-0.785
-0.805
-0.815
-0.815
-0.835
-0.875
-0.875
-0.895
-0.915
-0.925
-0.935
-0.955
-0.965
-0.97
-1.01
-0.99
-1.0
-1.02
-1.03
-1.025
-0.98
-0.91
-0.875
-0.825
-0.825
-0.88
-0.935
-0.97
-1.035
-1.095
-1.15
-1.135
-1.135
-1.145
-1.155
-1.115
-0.84
0.05
1.325
1.175
-0.42
-0.94
-0.975
-1.34
-1.345
-1.375
-1.36
-1.36
-1.36
-1.36
-1.355
-1.34
-1.335
-1.325
-1.325
-1.305
-1.31
-1.325
-1.325
-1.32
-1.325
-1.34
-1.385
-1.425
-1.445
-1.445
-1.415
-1.325
-1.25
-1.18
-1.15
-1.125
-1.13
-1.135
-1.14
-1.155
-1.145
-1.125
-1.12
-1.13
-1.13
-1.135
-1.15
-1.15
-1.15
-1.16
-1.165
-1.165
-1.165
-1.165
-1.175
-1.165
-1.155
-1.165
-1.125
-1.05
-1.0
-0.95
-0.905
-0.92
-0.955
-1.0
-1.06
-1.115
-1.15
-1.135
-1.12
-1.135
-1.15
-1.135
-0.935
-0.305
0.9
1.69
0.24
-0.905
-0.8
-1.145
-1.2
-1.22
-1.255
-1.215
-1.205
-1.21
-1.23
-1.2
-1.175
-1.14
-1.125
-1.115
-1.09
-1.065
-1.07
-1.05
-1.05
-1.065
-1.09
-1.115
-1.125
-1.13
-1.09
-1.02
-0.945
-0.875
-0.835
-0.795
-0.8
-0.79
-0.775
-0.77
-0.775
-0.745
-0.745
-0.73
-0.72
-0.705
-0.71
-0.705
-0.71
-0.715
-0.71
-0.72
-0.705
-0.71
-0.71
-0.69
-0.69
-0.675
-0.665
-0.595
-0.52
-0.485
-0.435
-0.405
-0.455
-0.51
-0.54
-0.58
-0.625
-0.64
-0.645
-0.63
-0.62
-0.6
-0.385
0.365
1.665
2.59
1.305
0.055
-0.075
-0.56
-0.7
-0.695
-0.73
-0.72
-0.715
-0.7
-0.685
-0.665
-0.66
-0.645
-0.625
-0.605
-0.6
-0.585
-0.585
-0.585
-0.595
-0.625
-0.67
-0.715
-0.775
-0.8
-0.78
-0.725
-0.615
-0.49
-0.39
-0.33
-0.305
-0.29
-0.27
-0.275
-0.26
-0.24
-0.24
-0.24
-0.24
-0.235
-0.24
-0.25
-0.24
-0.245
-0.24
-0.245
-0.26
-0.26
-0.245
-0.24
-0.235
-0.23
-0.225
-0.21
-0.195
-0.19
-0.165
-0.08
-0.02
0.0
0.04
0.025
-0.025
-0.05
-0.09
-0.145
-0.185
-0.19
-0.195
-0.175
-0.17
-0.115
0.29
1.26
2.605
2.585
1.065
0.445
0.215
-0.27
-0.285
-0.325
-0.325
-0.315
-0.31
-0.305
-0.305
-0.28
-0.275
-0.245
-0.24
-0.22
-0.22
-0.215
-0.22
-0.225
-0.26
-0.285
-0.34
-0.38
-0.42
-0.445
-0.415
-0.33
-0.23
-0.115
-0.045
0.005
0.035
0.055
0.065
0.06
0.05
0.055
0.05
0.055
0.045
0.055
0.025
0.035
0.025
0.025
0.025
0.03
0.025
0.025
0.015
0.015
0.035
0.025
0.045
0.05
0.065
0.065
0.075
0.13
0.2
0.235
0.26
0.305
0.265
0.215
0.18
0.125
0.05
0.035
0.04
0.06
0.045
0.04
0.115
0.505
1.475
2.76
2.445
0.925
0.485
0.33
-0.075
-0.08
-0.12
-0.105
-0.105
-0.115
-0.095
-0.065
-0.055
-0.035
-0.05
-0.045
-0.03
-0.025
-0.025
-0.005
-0.02
-0.03
-0.065
-0.125
-0.145
-0.17
-0.175
-0.12
-0.075
0.03
0.12
0.155
0.195
0.225
0.24
0.2
0.215
0.225
0.21
0.22
0.21
0.21
0.215
0.19
0.17
0.19
0.18
0.175
0.18
0.175
0.17
0.18
0.17
0.165
0.16
0.175
0.205
0.185
0.24
0.35
0.4
0.43
0.41
0.36
0.275
0.245
0.205
0.16
0.17
0.155
0.145
0.155
0.155
0.3
0.855
2.01
2.87
1.55
0.375
0.44
0.13
0.015
0.03
0.03
0.01
0.0
0.025
0.065
0.07
0.07
0.08
0.08
0.085
0.11
0.115
0.11
0.085
0.11
0.12
0.075
0.005
0.01
-0.01
0.015
0.09
0.205
0.245
0.255
0.285
0.31
0.315
0.3
0.28
0.295
0.31
0.305
0.315
0.325
0.315
0.31
0.29
0.275
0.26
0.255
0.285
0.28
0.24
0.24
0.23
0.25
0.255
0.275
0.275
0.295
0.405
0.455
0.49
0.475
0.435
0.38
0.325
0.28
0.225
0.24
0.245
0.26
0.255
0.245
0.365
0.9
2.065
3.16
1.965
0.525
0.5
0.3
0.125
0.13
0.13
0.15
0.15
0.155
0.16
0.185
0.19
0.19
0.22
0.245
0.23
0.255
0.26
0.265
0.255
0.25
0.215
0.185
0.15
0.135
0.15
0.21
0.29
0.37
0.43
0.445
0.46
0.455
0.46
0.465
0.46
0.465
0.475
0.475
0.475
0.485
0.48
0.475
0.475
0.47
0.45
0.45
0.44
0.455
0.435
0.445
0.455
0.455
0.465
0.465
0.475
0.51
0.6
0.65
0.69
0.72
0.685
0.655
0.615
0.575
0.515
0.475
0.475
0.475
0.475
0.485
0.545
0.975
2.025
3.43
3.375
1.81
1.15
0.88
0.375
0.375
0.325
0.33
0.33
0.32
0.335
0.32
0.33
0.35
0.345
0.355
0.355
0.355
0.36
0.345
0.315
0.295
0.24
0.175
0.115
0.065
0.03
0.05
0.105
0.2
0.295
0.365
0.4
0.4
0.405
0.4
0.39
0.375
0.345
0.32
0.295
0.28
0.25
0.215
0.185
0.165
0.13
0.11
0.065
0.045
0.015
-0.01
-0.04
-0.07
-0.1
-0.105
-0.14
-0.165
-0.19
-0.225
-0.225
-0.255
-0.27
-0.23
-0.2
-0.205
-0.2
-0.235
-0.3
-0.365
-0.435
-0.535
-0.6
-0.625
-0.665
-0.685
-0.71
-0.735
-0.56
0.11
1.275
2.185
1.025
-0.195
-0.34
-0.86
-1.095
-1.11
-1.165
-1.18
-1.2
-1.2
-1.215
-1.22
-1.225
-1.225
-1.235
-1.24
-1.25
-1.255
-1.265
-1.28
-1.31
-1.335
-1.395
-1.465
-1.53
-1.575
-1.58
-1.545
-1.46
-1.36
-1.28
-1.23
-1.215
-1.215
-1.22
-1.22
-1.23
-1.255
-1.26
-1.255
-1.275
-1.29
-1.31
-1.325
-1.335
-1.335
-1.355
-1.375
-1.385
-1.39
-1.395
-1.395
-1.41
-1.43
-1.44
-1.415
-1.415
-1.42
-1.42
-1.43
-1.44
-1.395
-1.325
-1.29
-1.25
-1.21
-1.25
-1.28
-1.31
-1.395
-1.465
-1.5
-1.5
-1.475
-1.475
-1.485
-1.485
-1.36
-0.86
0.22
1.35
0.305
-1.065
-1.15
-1.425
-1.63
-1.625
-1.65
-1.635
-1.61
-1.615
-1.625
-1.605
-1.585
-1.59
-1.565
-1.55
-1.555
-1.52
-1.51
-1.54
-1.54
-1.545
-1.56
-1.59
-1.615
-1.635
-1.625
-1.585
-1.53
-1.425
-1.35
-1.315
-1.295
-1.28
-1.285
-1.285
-1.24
-1.255
-1.23
-1.23
-1.23
-1.215
-1.215
-1.23
-1.215
-1.22
-1.225
-1.2
-1.225
-1.235
-1.185
-1.205
-1.2
-1.18
-1.185
-1.145
-1.145
-1.13
-1.03
-0.985
-0.895
-0.86
-0.915
-0.945
-0.965
-1.02
-1.055
-1.105
-1.085
-1.04
-1.075
-1.07
-1.04
-0.84
-0.11
1.2
1.83
0.19
-0.88
-0.745
-1.095
-1.12
-1.13
-1.11
-1.105
-1.085
-1.055
-1.07
-1.06
-1.045
-1.02
-1.015
-0.995
-0.97
-0.935
-0.905
-0.895
-0.905
-0.915
-0.93
-0.94
-0.96
-0.975
-0.945
-0.87
-0.79
-0.715
-0.66
-0.65
-0.655
-0.635
-0.625
-0.61
-0.605
-0.58
-0.56
-0.55
-0.54
-0.52
-0.525
-0.52
-0.525
-0.535
-0.545
-0.535
-0.52
-0.525
-0.52
-0.505
-0.51
-0.5
-0.485
-0.465
-0.425
-0.35
-0.29
-0.24
-0.21
-0.245
-0.28
-0.315
-0.37
-0.415
-0.445
-0.42
-0.415
-0.4
-0.4
-0.315
0.155
1.285
2.685
2.27
0.625
0.11
-0.11
-0.485
-0.475
-0.495
-0.485
-0.485
-0.475
-0.465
-0.45
-0.435
-0.425
-0.4
-0.385
-0.37
-0.345
-0.34
-0.34
-0.36
-0.37
-0.4
-0.47
-0.505
-0.55
-0.575
-0.55
-0.46
-0.34
-0.245
-0.165
-0.105
-0.07
-0.065
-0.045
-0.04
-0.03
-0.02
-0.025
-0.025
-0.015
0.0
-0.015
-0.005
-0.01
-0.02
-0.03
-0.03
-0.035
-0.035
-0.025
-0.025
-0.025
-0.01
-0.015
-0.005
0.01
0.03
0.105
0.175
0.195
0.245
0.255
0.225
0.185
0.145
0.085
0.04
0.02
0.03
0.03
0.04
0.055
0.335
1.16
2.49
3.19
1.8
0.735
0.59
0.065
-0.065
-0.09
-0.105
-0.095
-0.09
-0.1
-0.075
-0.07
-0.07
-0.055
-0.025
-0.025
-0.02
0.005
0.005
-0.005
-0.015
-0.045
-0.085
-0.115
-0.145
-0.18
-0.16
-0.105
-0.05
0.065
0.16
0.21
0.245
0.28
0.275
0.27
0.255
0.25
0.26
0.285
0.285
0.255
0.25
0.25
0.265
0.255
0.25
0.24
0.23
0.215
0.215
0.235
0.235
0.22
0.215
0.25
0.24
0.23
0.32
0.385
0.405
0.445
0.445
0.42
0.385
0.3
0.245
0.23
0.215
0.19
0.21
0.205
0.24
0.435
1.085
2.28
3.125
1.715
0.46
0.475
0.14
0.065
0.05
0.045
0.02
0.04
0.055
0.055
0.04
0.05
0.085
0.075
0.095
0.11
0.09
0.085
0.115
0.09
0.065
0.03
-0.005
-0.025
-0.06
-0.07
-0.045
0.02
0.145
0.225
0.235
0.245
0.25
0.24
0.255
0.245
0.25
0.255
0.26
0.285
0.285
0.24
0.255
0.27
0.24
0.24
0.24
0.23
0.225
0.21
0.21
0.205
0.22
0.295
0.345
0.4
0.44
0.4
0.35
0.34
0.275
0.21
0.15
0.135
0.18
0.175
0.155
0.17
0.485
1.485
2.865
2.96
1.04
0.19
0.4
0.04
0.055
0.025
0.03
0.06
0.045
0.04
0.05
0.07
0.08
0.085
0.1
0.105
0.09
0.13
0.155
0.145
0.145
0.14
0.09
0.045
0.015
-0.025
0.0
0.04
0.15
0.225
0.285
0.28
0.255
0.26
0.275
0.3
0.285
0.285
0.315
0.335
0.33
0.305
0.33
0.345
0.335
0.315
0.315
0.31
0.315
0.31
0.325
0.365
0.425
0.455
0.495
0.505
0.47
0.425
0.405
0.355
0.285
0.265
0.265
0.28
0.29
0.305
0.575
1.46
2.935
3.435
1.52
0.375
0.56
0.185
0.175
0.155
0.155
0.17
0.18
0.175
0.19
0.195
0.21
0.24
0.24
0.24
0.265
0.265
0.265
0.255
0.265
0.25
0.21
0.155
0.11
0.095
0.13
0.18
0.245
0.33
0.395
0.415
0.435
0.435
0.43
0.435
0.445
0.445
0.47
0.475
0.465
0.47
0.465
0.46
0.465
0.45
0.445
0.445
0.44
0.435
0.455
0.515
0.575
0.59
0.635
0.65
0.61
0.575
0.545
0.48
0.43
0.41
0.415
0.41
0.425
0.46
0.835
1.905
3.43
3.6
1.795
0.88
0.76
0.295
0.29
0.255
0.25
0.265
0.26
0.275
0.275
0.29
0.295
0.31
0.32
0.33
0.33
0.335
0.34
0.33
0.315
0.27
0.245
0.19
0.155
0.13
0.17
0.245
0.34
0.435
0.495
0.525
0.555
0.57
0.56
0.575
0.58
0.57
0.575
0.58
0.57
0.565
0.555
0.55
0.56
0.545
0.53
0.53
0.53
0.52
0.535
0.54
0.545
0.565
0.665
0.705
0.7
0.73
0.78
0.71
0.655
0.635
0.59
0.525
0.49
0.495
0.505
0.49
0.495
0.69
1.41
2.685
3.715
2.55
1.2
1.025
0.585
0.355
0.375
0.335
0.345
0.34
0.355
0.36
0.37
0.375
0.39
0.385
0.405
0.41
0.425
0.425
0.415
0.415
0.4
0.355
0.32
0.275
0.25
0.27
0.325
0.39
0.475
0.545
0.595
0.605
0.62
0.625
0.61
0.63
0.625
0.615
0.615
0.61
0.61
0.605
0.6
0.595
0.605
0.59
0.59
0.59
0.605
0.585
0.585
0.575
0.585
0.585
0.595
0.585
0.585
0.6
0.62
0.685
0.745
0.775
0.81
0.82
0.78
0.75
0.705
0.615
0.56
0.57
0.585
0.57
0.565
0.565
0.705
1.215
2.275
3.49
2.655
1.135
0.945
0.695
0.4
0.435
0.41
0.44
0.415
0.405
0.43
0.435
0.445
0.46
0.47
0.475
0.485
0.475
0.495
0.49
0.495
0.475
0.455
0.435
0.39
0.355
0.39
0.4
0.47
0.585
0.62
0.645
0.665
0.655
0.66
0.645
0.66
0.665
0.64
0.675
0.66
0.63
0.645
0.64
0.635
0.655
0.655
0.63
0.64
0.63
0.615
0.61
0.595
0.61
0.615
0.62
0.63
0.62
0.68
0.745
0.77
0.835
0.83
0.805
0.775
0.7
0.665
0.605
0.565
0.59
0.61
0.585
0.58
0.655
0.955
1.825
3.165
3.175
1.39
0.67
0.785
0.455
0.455
0.425
0.43
0.45
0.455
0.445
0.47
0.485
0.49
0.505
0.525
0.525
0.545
0.54
0.56
0.55
0.56
0.525
0.505
0.465
0.46
0.45
0.45
0.505
0.605
0.66
0.675
0.675
0.675
0.685
0.695
0.695
0.675
0.685
0.695
0.71
0.71
0.725
0.745
0.73
0.745
0.725
0.705
0.71
0.71
0.695
0.715
0.705
0.71
0.71
0.73
0.775
0.84
0.88
0.92
0.925
0.895
0.84
0.79
0.735
0.68
0.675
0.685
0.67
0.67
0.67
0.815
1.405
2.705
3.835
2.505
0.915
0.835
0.645
0.495
0.485
0.45
0.455
0.44
0.435
0.435
0.44
0.45
0.46
0.455
0.465
0.475
0.47
0.455
0.46
0.43
0.385
0.365
0.31
0.245
0.21
0.21
0.24
0.295
0.355
0.4
0.41
0.405
0.395
0.37
0.375
0.36
0.35
0.34
0.33
0.325
0.315
0.29
0.265
0.24
0.215
0.185
0.16
0.13
0.095
0.08
0.04
0.025
0.015
-0.005
0.015
0.08
0.095
0.105
0.11
0.065
0.0
-0.055
-0.13
-0.205
-0.27
-0.28
-0.285
-0.33
-0.35
-0.27
0.27
1.485
2.885
2.25
0.53
0.05
-0.295
-0.67
-0.675
-0.735
-0.74
-0.76
-0.77
-0.775
-0.785
-0.79
-0.8
-0.795
-0.805
-0.805
-0.81
-0.835
-0.85
-0.865
-0.9
-0.95
-1.0
-1.04
-1.095
-1.11
-1.085
-1.015
-0.935
-0.87
-0.82
-0.79
-0.78
-0.775
-0.79
-0.79
-0.79
-0.8
-0.815
-0.835
-0.845
-0.86
-0.88
-0.88
-0.9
-0.92
-0.935
-0.945
-0.955
-0.955
-0.955
-0.96
-0.975
-0.985
-0.98
-0.975
-0.985
-0.995
-0.985
-0.97
-0.94
-0.86
-0.825
-0.8
-0.76
-0.785
-0.83
-0.87
-0.915
-0.985
-1.03
-1.025
-1.03
-1.025
-1.015
-0.945
-0.525
0.53
1.945
1.85
0.21
-0.425
-0.665
-1.15
-1.145
-1.175
-1.18
-1.19
-1.185
-1.17
-1.16
-1.145
-1.125
-1.12
-1.11
-1.1
-1.08
-1.065
-1.06
-1.065
-1.075
-1.105
-1.14
-1.165
-1.2
-1.2
-1.19
-1.115
-1.025
-0.93
-0.85
-0.815
-0.79
-0.785
-0.775
-0.75
-0.76
-0.75
-0.75
-0.745
-0.745
-0.745
-0.74
-0.735
-0.74
-0.74
-0.74
-0.745
-0.745
-0.725
-0.72
-0.72
-0.715
-0.71
-0.705
-0.69
-0.685
-0.69
-0.68
-0.67
-0.665
-0.65
-0.635
-0.63
-0.62
-0.615
-0.605
-0.595
-0.575
-0.535
-0.45
-0.415
-0.37
-0.33
-0.37
-0.4
-0.425
-0.475
-0.535
-0.56
-0.55
-0.545
-0.53
-0.525
-0.465
-0.08
0.885
2.255
2.36
0.745
0.005
-0.125
-0.6
-0.6
-0.64
-0.635
-0.64
-0.635
-0.62
-0.6
-0.575
-0.555
-0.56
-0.545
-0.535
-0.505
-0.49
-0.485
-0.48
-0.5
-0.525
-0.55
-0.575
-0.615
-0.64
-0.61
-0.56
-0.47
-0.355
-0.285
-0.245
-0.225
-0.2
-0.195
-0.185
-0.195
-0.21
-0.185
-0.175
-0.18
-0.19
-0.195
-0.185
-0.195
-0.185
-0.205
-0.21
-0.21
-0.195
-0.175
-0.195
-0.215
-0.2
-0.19
-0.185
-0.17
-0.19
-0.17
-0.145
-0.155
-0.155
-0.15
-0.15
-0.13
-0.125
-0.09
-0.115
-0.115
-0.08
-0.055
0.005
0.08
0.135
0.15
0.105
0.085
0.055
-0.025
-0.095
-0.095
-0.06
-0.08
-0.08
-0.075
-0.03
0.325
1.325
2.645
2.31
0.655
0.135
0.09
-0.205
-0.165
-0.23
-0.22
-0.18
-0.19
-0.185
-0.13
-0.16
-0.17
-0.14
-0.14
-0.095
-0.11
-0.12
-0.08
-0.075
-0.09
-0.105
-0.135
-0.165
-0.195
-0.19
-0.145
-0.1
-0.03
0.065
0.13
0.14
0.155
0.155
0.165
0.15
0.155
0.155
0.18
0.17
0.175
0.175
0.16
0.14
0.125
0.115
0.125
0.12
0.11
0.12
0.14
0.135
0.125
0.135
0.145
0.15
0.17
0.155
0.145
0.145
0.17
0.175
0.265
0.335
0.38
0.415
0.365
0.34
0.3
0.255
0.205
0.165
0.175
0.175
0.175
0.185
0.24
0.57
1.595
2.99
2.94
1.205
0.49
0.44
0.07
0.09
0.07
0.08
0.08
0.085
0.085
0.1
0.115
0.12
0.135
0.155
0.155
0.17
0.18
0.175
0.165
0.155
0.135
0.09
0.05
-0.01
-0.045
-0.025
0.04
0.135
0.235
0.325
0.375
0.405
0.42
0.415
0.425
0.445
0.445
0.45
0.455
0.45
0.455
0.45
0.445
0.435
0.435
0.425
0.42
0.415
0.415
0.41
0.415
0.415
0.435
0.43
0.43
0.425
0.435
0.43
0.425
0.445
0.455
0.455
0.525
0.595
0.615
0.64
0.66
0.6
0.56
0.53
0.46
0.39
0.385
0.385
0.38
0.37
0.4
0.735
1.695
3.11
3.48
1.88
0.94
0.755
0.21
0.155
0.105
0.08
0.065
0.075
0.06
0.065
0.055
0.05
0.06
0.045
0.045
0.035
0.025
0.015
0.005
-0.035
-0.08
-0.145
-0.195
-0.285
-0.325
-0.345
-0.315
-0.255
-0.145
-0.06
-0.02
-0.005
0.005
-0.005
-0.02
-0.045
-0.06
-0.075
-0.1
-0.125
-0.155
-0.165
-0.19
-0.225
-0.235
-0.27
-0.285
-0.32
-0.335
-0.355
-0.375
-0.385
-0.41
-0.42
-0.43
-0.445
-0.46
-0.475
-0.495
-0.505
-0.52
-0.525
-0.535
-0.515
-0.45
-0.415
-0.395
-0.385
-0.41
-0.475
-0.52
-0.58
-0.645
-0.7
-0.705
-0.72
-0.74
-0.745
-0.655
-0.225
0.82
2.145
1.775
0.205
-0.265
-0.525
-0.955
-0.96
-1.005
-1.005
-1.02
-1.035
-1.035
-1.015
-1.005
-1.01
-0.995
-0.995
-0.98
-0.98
-0.98
-0.99
-0.99
-1.02
-1.04
-1.085
-1.135
-1.195
-1.215
-1.21
-1.15
-1.04
-0.94
-0.86
-0.805
-0.78
-0.785
-0.785
-0.77
-0.765
-0.775
-0.775
-0.77
-0.775
-0.785
-0.79
-0.775
-0.795
-0.815
-0.82
-0.82
-0.825
-0.82
-0.82
-0.815
-0.815
-0.805
-0.8
-0.805
-0.805
-0.795
-0.765
-0.765
-0.755
-0.71
-0.66
-0.605
-0.56
-0.51
-0.53
-0.535
-0.585
-0.65
-0.71
-0.76
-0.745
-0.72
-0.725
-0.735
-0.68
-0.435
0.33
1.64
2.135
0.585
-0.385
-0.375
-0.77
-0.815
-0.86
-0.835
-0.82
-0.81
-0.8
-0.795
-0.795
-0.785
-0.775
-0.755
-0.71
-0.705
-0.71
-0.685
-0.685
-0.69
-0.695
-0.72
-0.77
-0.78
-0.8
-0.775
-0.705
-0.64
-0.56
-0.47
-0.425
-0.41
-0.405
-0.395
-0.39
-0.405
-0.39
-0.37
-0.39
-0.39
-0.36
-0.37
-0.375
-0.37
-0.38
-0.37
-0.385
-0.39
-0.37
-0.385
-0.375
-0.375
-0.37
-0.355
-0.355
-0.355
-0.34
-0.315
-0.315
-0.315
-0.225
-0.15
-0.11
-0.06
-0.08
-0.105
-0.145
-0.215
-0.27
-0.275
-0.295
-0.295
-0.285
-0.27
-0.245
-0.025
0.755
2.09
2.5
0.885
-0.07
0.02
-0.355
-0.385
-0.395
-0.365
-0.355
-0.355
-0.35
-0.345
-0.335
-0.305
-0.295
-0.29
-0.275
-0.24
-0.245
-0.235
-0.225
-0.23
-0.235
-0.25
-0.29
-0.305
-0.305
-0.28
-0.215
-0.12
-0.045
0.015
0.035
0.055
0.055
0.06
0.055
0.05
0.05
0.08
0.085
0.08
0.07
0.08
0.08
0.065
0.045
0.035
0.035
0.045
0.045
0.05
0.055
0.055
0.06
0.065
0.055
0.085
0.095
0.095
0.125
0.23
0.275
0.315
0.335
0.325
0.28
0.24
0.19
0.15
0.125
0.11
0.115
0.12
0.135
0.285
0.895
2.13
3.37
2.43
0.97
0.7
0.275
0.005
0.015
-0.01
-0.01
0.0
0.005
0.015
0.03
0.05
0.05
0.08
0.085
0.095
0.115
0.11
0.1
0.095
0.065
0.03
-0.035
-0.085
-0.14
-0.165
-0.13
-0.05
0.06
0.185
0.265
0.325
0.335
0.335
0.35
0.355
0.35
0.355
0.34
0.345
0.335
0.34
0.315
0.305
0.29
0.29
0.275
0.26
0.245
0.245
0.24
0.23
0.22
0.215
0.21
0.21
0.195
0.19
0.175
0.165
0.155
0.155
0.175
0.25
0.255
0.28
0.305
0.255
0.19
0.135
0.065
-0.015
-0.045
-0.05
-0.07
-0.095
-0.11
0.1
0.8
2.035
2.975
1.775
0.515
0.36
-0.175
-0.37
-0.4
-0.445
-0.455
-0.47
-0.47
-0.475
-0.49
-0.49
-0.48
-0.495
-0.51
-0.505
-0.51
-0.525
-0.53
-0.57
-0.615
-0.665
-0.735
-0.79
-0.84
-0.865
-0.84
-0.75
-0.65
-0.525
-0.465
-0.43
-0.42
-0.415
-0.43
-0.435
-0.455
-0.45
-0.47
-0.48
-0.505
-0.505
-0.525
-0.53
-0.545
-0.575
-0.595
-0.595
-0.6
-0.61
-0.62
-0.63
-0.61
-0.615
-0.635
-0.625
-0.65
-0.63
-0.615
-0.555
-0.49
-0.475
-0.445
-0.435
-0.465
-0.505
-0.56
-0.615
-0.67
-0.685
-0.705
-0.69
-0.68
-0.665
-0.405
0.4
1.67
2.16
0.62
-0.31
-0.315
-0.755
-0.805
-0.84
-0.865
-0.83
-0.83
-0.835
-0.84
-0.83
-0.82
-0.775
-0.775
-0.77
-0.755
-0.77
-0.765
-0.745
-0.765
-0.775
-0.82
-0.86
-0.9
-0.91
-0.905
-0.855
-0.75
-0.65
-0.58
-0.51
-0.505
-0.48
-0.475
-0.48
-0.49
-0.47
-0.48
-0.48
-0.475
-0.47
-0.465
-0.47
-0.475
-0.48
-0.49
-0.5
-0.49
-0.495
-0.51
-0.495
-0.47
-0.455
-0.465
-0.445
-0.455
-0.355
-0.27
-0.22
-0.175
-0.205
-0.27
-0.275
-0.315
-0.38
-0.42
-0.4
-0.4
-0.395
-0.39
-0.34
-0.065
0.78
2.045
2.185
0.57
-0.125
-0.105
-0.475
-0.46
-0.475
-0.485
-0.48
-0.47
-0.44
-0.445
-0.42
-0.39
-0.39
-0.39
-0.375
-0.365
-0.37
-0.385
-0.365
-0.365
-0.37
-0.4
-0.42
-0.435
-0.425
-0.395
-0.33
-0.24
-0.165
-0.11
-0.08
-0.095
-0.08
-0.105
-0.095
-0.105
-0.095
-0.1
-0.095
-0.105
-0.095
-0.105
-0.105
-0.125
-0.135
-0.13
-0.135
-0.15
-0.145
-0.155
-0.15
-0.155
-0.145
-0.15
-0.13
-0.075
-0.01
0.04
0.08
0.055
0.01
-0.05
-0.08
-0.145
-0.19
-0.205
-0.215
-0.215
-0.205
-0.175
0.19
1.185
2.575
2.6
0.99
0.245
0.075
-0.38
-0.385
-0.43
-0.435
-0.445
-0.44
-0.445
-0.425
-0.43
-0.42
-0.425
-0.42
-0.41
-0.4
-0.4
-0.43
-0.445
-0.475
-0.515
-0.57
-0.63
-0.685
-0.72
-0.7
-0.63
-0.525
-0.415
-0.325
-0.28
-0.255
-0.25
-0.24
-0.245
-0.25
-0.255
-0.265
-0.27
-0.28
-0.285
-0.28
-0.295
-0.315
-0.335
-0.335
-0.355
-0.355
-0.35
-0.36
-0.37
-0.36
-0.37
-0.365
-0.36
-0.345
-0.35
-0.31
-0.24
-0.18
-0.145
-0.11
-0.135
-0.165
-0.21
-0.24
-0.31
-0.35
-0.36
-0.35
-0.35
-0.35
-0.275
0.225
1.32
2.615
2.105
0.63
0.24
-0.11
-0.51
-0.49
-0.545
-0.535
-0.535
-0.525
-0.52
-0.51
-0.505
-0.485
-0.49
-0.46
-0.465
-0.465
-0.445
-0.455
-0.48
-0.495
-0.545
-0.59
-0.65
-0.695
-0.705
-0.67
-0.57
-0.46
-0.34
-0.255
-0.2
-0.175
-0.175
-0.165
-0.165
-0.185
-0.185
-0.175
-0.19
-0.195
-0.205
-0.205
-0.215
-0.21
-0.22
-0.21
-0.22
-0.225
-0.225
-0.22
-0.225
-0.21
-0.215
-0.205
-0.205
-0.205
-0.175
-0.11
-0.035
0.005
0.05
0.075
0.015
-0.005
-0.06
-0.125
-0.185
-0.17
-0.165
-0.175
-0.19
-0.165
0.07
0.805
2.08
2.685
1.21
0.21
0.225
-0.21
-0.275
-0.27
-0.305
-0.31
-0.29
-0.275
-0.27
-0.24
-0.23
-0.235
-0.225
-0.22
-0.195
-0.175
-0.195
-0.21
-0.225
-0.22
-0.24
-0.27
-0.325
-0.34
-0.315
-0.24
-0.145
-0.045
0.0
0.06
0.075
0.08
0.11
0.11
0.095
0.1
0.09
0.105
0.105
0.095
0.065
0.085
0.08
0.085
0.08
0.08
0.055
0.085
0.08
0.07
0.07
0.085
0.09
0.105
0.115
0.215
0.27
0.31
0.35
0.345
0.295
0.24
0.165
0.14
0.1
0.115
0.115
0.115
0.11
0.165
0.435
1.345
2.625
2.525
0.945
0.385
0.365
0.005
0.015
0.01
-0.02
-0.02
0.02
0.05
0.005
0.025
0.05
0.055
0.045
0.07
0.08
0.09
0.08
0.085
0.105
0.075
0.035
0.005
0.005
0.005
0.045
0.125
0.19
0.275
0.315
0.33
0.305
0.315
0.315
0.29
0.33
0.345
0.3
0.31
0.315
0.285
0.28
0.28
0.275
0.275
0.28
0.27
0.26
0.26
0.27
0.275
0.27
0.285
0.27
0.295
0.375
0.45
0.49
0.525
0.485
0.455
0.415
0.375
0.305
0.295
0.295
0.305
0.305
0.305
0.375
0.765
1.8
3.145
2.67
1.065
0.615
0.495
0.195
0.205
0.155
0.175
0.19
0.195
0.19
0.205
0.215
0.24
0.23
0.25
0.275
0.275
0.265
0.275
0.265
0.235
0.195
0.16
0.115
0.07
0.07
0.11
0.195
0.315
0.4
0.46
0.495
0.51
0.515
0.51
0.505
0.51
0.515
0.525
0.505
0.51
0.505
0.505
0.48
0.475
0.455
0.455
0.455
0.455
0.44
0.44
0.44
0.45
0.455
0.455
0.465
0.49
0.565
0.615
0.645
0.675
0.64
0.615
0.57
0.525
0.47
0.43
0.415
0.42
0.41
0.425
0.535
1.105
2.27
3.525
2.82
1.385
1.04
0.63
0.255
0.265
0.225
0.225
0.225
0.225
0.22
0.23
0.23
0.25
0.255
0.26
0.26
0.265
0.265
0.245
0.24
0.205
0.16
0.095
0.035
0.005
-0.025
0.015
0.105
0.225
0.32
0.405
0.45
0.47
0.475
0.48
0.475
0.465
0.455
0.47
0.455
0.455
0.435
0.43
0.4
0.41
0.39
0.4
0.385
0.375
0.37
0.375
0.365
0.37
0.37
0.375
0.37
0.405
0.475
0.535
0.56
0.595
0.575
0.525
0.475
0.44
0.375
0.325
0.315
0.315
0.325
0.325
0.405
0.855
1.86
3.145
2.8
1.325
0.88
0.605
0.17
0.18
0.13
0.135
0.12
0.135
0.135
0.145
0.15
0.155
0.175
0.205
0.21
0.21
0.2
0.2
0.19
0.165
0.125
0.085
0.015
-0.025
-0.07
-0.03
0.055
0.175
0.28
0.375
0.4
0.43
0.445
0.435
0.43
0.43
0.42
0.43
0.425
0.42
0.4
0.415
0.4
0.385
0.375
0.365
0.365
0.365
0.35
0.36
0.355
0.365
0.365
0.355
0.37
0.42
0.495
0.56
0.575
0.59
0.55
0.525
0.47
0.385
0.335
0.335
0.33
0.325
0.325
0.325
0.43
0.935
2.005
3.105
2.115
0.74
0.625
0.37
0.17
0.175
0.13
0.145
0.13
0.16
0.155
0.155
0.185
0.19
0.195
0.19
0.195
0.235
0.19
0.205
0.2
0.18
0.145
0.095
0.035
0.025
0.055
0.095
0.16
0.25
0.305
0.35
0.35
0.35
0.335
0.32
0.32
0.32
0.295
0.29
0.295
0.315
0.285
0.265
0.265
0.245
0.215
0.21
0.2
0.19
0.19
0.18
0.18
0.165
0.17
0.225
0.275
0.335
0.345
0.3
0.26
0.245
0.185
0.09
0.035
0.03
0.01
0.015
-0.02
-0.035
0.115
0.685
1.885
2.79
1.395
0.15
0.175
-0.145
-0.255
-0.265
-0.3
-0.31
-0.33
-0.325
-0.325
-0.305
-0.305
-0.34
-0.365
-0.34
-0.345
-0.365
-0.355
-0.405
-0.415
-0.43
-0.5
-0.54
-0.585
-0.61
-0.595
-0.555
-0.525
-0.445
-0.43
-0.435
-0.465
-0.46
-0.47
-0.495
-0.51
-0.52
-0.53
-0.53
-0.55
-0.585
-0.61
-0.6
-0.635
-0.665
-0.69
-0.7
-0.72
-0.75
-0.755
-0.76
-0.765
-0.77
-0.73
-0.67
-0.65
-0.605
-0.625
-0.68
-0.74
-0.78
-0.86
-0.925
-0.935
-0.935
-0.945
-0.945
-0.96
-0.75
0.01
1.365
2.125
0.64
-0.57
-0.645
-1.075
-1.17
-1.195
-1.21
-1.215
-1.205
-1.215
-1.215
-1.215
-1.2
-1.2
-1.19
-1.2
-1.195
-1.195
-1.19
-1.2
-1.22
-1.265
-1.315
-1.37
-1.42
-1.465
-1.45
-1.395
-1.295
-1.2
-1.11
-1.075
-1.06
-1.045
-1.035
-1.05
-1.04
-1.045
-1.03
-1.035
-1.03
-1.035
-1.035
-1.04
-1.065
-1.07
-1.075
-1.08
-1.085
-1.085
-1.09
-1.095
-1.095
-1.095
-1.075
-1.06
-1.04
-0.965
-0.91
-0.89
-0.855
-0.87
-0.905
-0.935
-0.96
-1.035
-1.065
-1.08
-1.06
-1.075
-1.065
-0.985
-0.53
0.545
1.935
1.715
0.165
-0.385
-0.685
-1.155
-1.155
-1.21
-1.195
-1.2
-1.175
-1.175
-1.15
-1.135
-1.12
-1.12
-1.095
-1.085
-1.075
-1.075
-1.06
-1.075
-1.1
-1.14
-1.19
-1.245
-1.275
-1.285
-1.265
-1.19
-1.075
-0.95
-0.87
-0.82
-0.79
-0.775
-0.775
-0.785
-0.77
-0.77
-0.77
-0.775
-0.77
-0.785
-0.79
-0.795
-0.785
-0.79
-0.785
-0.79
-0.805
-0.795
-0.805
-0.805
-0.79
-0.8
-0.775
-0.78
-0.765
-0.72
-0.645
-0.62
-0.57
-0.54
-0.57
-0.635
-0.66
-0.715
-0.77
-0.8
-0.79
-0.805
-0.8
-0.795
-0.705
-0.235
0.82
2.085
1.62
0.17
-0.215
-0.515
-0.905
-0.885
-0.935
-0.945
-0.945
-0.94
-0.93
-0.92
-0.895
-0.905
-0.88
-0.88
-0.865
-0.88
-0.87
-0.865
-0.875
-0.905
-0.945
-0.985
-1.035
-1.07
-1.075
-1.04
-0.95
-0.855
-0.765
-0.7
-0.655
-0.65
-0.645
-0.63
-0.63
-0.635
-0.635
-0.65
-0.655
-0.665
-0.655
-0.665
-0.67
-0.655
-0.655
-0.675
-0.67
-0.68
-0.67
-0.68
-0.695
-0.675
-0.655
-0.645
-0.63
-0.625
-0.53
-0.47
-0.435
-0.395
-0.445
-0.48
-0.535
-0.595
-0.65
-0.665
-0.655
-0.65
-0.66
-0.65
-0.585
-0.375
0.41
1.705
1.95
0.335
-0.395
-0.355
-0.745
-0.745
-0.775
-0.775
-0.75
-0.755
-0.755
-0.715
-0.71
-0.71
-0.69
-0.685
-0.665
-0.645
-0.635
-0.64
-0.63
-0.63
-0.635
-0.685
-0.715
-0.725
-0.72
-0.69
-0.615
-0.51
-0.455
-0.425
-0.375
-0.39
-0.4
-0.375
-0.395
-0.41
-0.375
-0.365
-0.34
-0.37
-0.375
-0.355
-0.345
-0.4
-0.395
-0.365
-0.39
-0.4
-0.395
-0.395
-0.37
-0.365
-0.37
-0.36
-0.265
-0.21
-0.18
-0.13
-0.14
-0.19
-0.2
-0.23
-0.31
-0.375
-0.35
-0.33
-0.335
-0.31
-0.3
-0.22
0.335
1.495
2.565
1.36
-0.01
-0.03
-0.255
-0.41
-0.415
-0.445
-0.4
-0.39
-0.415
-0.385
-0.33
-0.37
-0.38
-0.33
-0.31
-0.305
-0.285
-0.285
-0.295
-0.305
-0.285
-0.33
-0.355
-0.375
-0.375
-0.375
-0.3
-0.21
-0.13
-0.085
-0.075
-0.07
-0.075
-0.055
-0.055
-0.03
-0.03
-0.015
-0.015
0.01
0.03
0.02
0.015
0.01
0.005
0.0
0.015
-0.005
0.01
0.0
0.01
0.01
0.025
0.04
0.135
0.195
0.24
0.265
0.23
0.185
0.17
0.11
0.05
0.015
0.03
0.03
0.04
0.035
0.125
0.55
1.65
3.045
2.71
1.05
0.515
0.305
-0.07
-0.06
-0.095
-0.08
-0.085
-0.075
-0.06
-0.05
-0.035
-0.03
-0.015
-0.005
0.02
0.025
0.03
0.02
0.015
-0.01
-0.03
-0.08
-0.135
-0.18
-0.185
-0.165
-0.075
0.035
0.135
0.21
0.265
0.285
0.295
0.305
0.29
0.305
0.31
0.31
0.315
0.315
0.315
0.305
0.305
0.29
0.285
0.28
0.29
0.265
0.28
0.28
0.3
0.275
0.29
0.285
0.3
0.31
0.35
0.42
0.465
0.495
0.53
0.505
0.46
0.43
0.385
0.33
0.295
0.285
0.285
0.285
0.285
0.375
0.875
1.97
3.325
2.92
1.4
0.915
0.59
0.135
0.155
0.095
0.095
0.08
0.085
0.08
0.085
0.08
0.095
0.09
0.085
0.105
0.09
0.08
0.08
0.05
0.005
-0.04
-0.095
-0.17
-0.215
-0.24
-0.215
-0.165
-0.065
0.01
0.08
0.105
0.12
0.115
0.1
0.08
0.055
0.025
0.005
-0.03
-0.05
-0.075
-0.11
-0.14
-0.175
-0.205
-0.24
-0.265
-0.29
-0.325
-0.355
-0.4
-0.4
-0.445
-0.465
-0.495
-0.49
-0.47
-0.43
-0.425
-0.415
-0.445
-0.515
-0.57
-0.645
-0.745
-0.815
-0.855
-0.865
-0.89
-0.92
-0.95
-0.765
-0.08
1.105
1.95
0.72
-0.475
-0.575
-1.08
-1.285
-1.3
-1.33
-1.36
-1.385
-1.38
-1.38
-1.405
-1.41
-1.42
-1.415
-1.42
-1.395
-1.425
-1.45
-1.455
-1.49
-1.53
-1.565
-1.61
-1.64
-1.685
-1.7
-1.66
-1.58
-1.5
-1.43
-1.4
-1.4
-1.41
-1.4
-1.395
-1.405
-1.42
-1.41
-1.425
-1.44
-1.45
-1.46
-1.485
-1.485
-1.495
-1.505
-1.505
-1.515
-1.535
-1.515
-1.535
-1.54
-1.54
-1.53
-1.52
-1.46
-1.405
-1.36
-1.32
-1.305
-1.345
-1.41
-1.465
-1.51
-1.575
-1.575
-1.56
-1.56
-1.56
-1.595
-1.5
-1.06
-0.05
1.155
0.275
-1.15
-1.255
-1.46
-1.7
-1.67
-1.715
-1.695
-1.675
-1.655
-1.665
-1.66
-1.63
-1.63
-1.625
-1.61
-1.595
-1.565
-1.575
-1.565
-1.56
-1.57
-1.61
-1.62
-1.63
-1.615
-1.615
-1.575
-1.48
-1.38
-1.34
-1.305
-1.3
-1.305
-1.29
-1.27
-1.295
-1.28
-1.27
-1.265
-1.26
-1.225
-1.245
-1.265
-1.245
-1.24
-1.255
-1.27
-1.28
-1.225
-1.215
-1.225
-1.22
-1.2
-1.165
-1.055
-1.005
-0.95
-0.955
-0.975
-1.015
-1.04
-1.05
-1.145
-1.18
-1.125
-1.115
-1.11
-1.1
-1.005
-0.56
0.535
1.75
0.84
-0.615
-0.735
-0.925
-1.14
-1.135
-1.13
-1.115
-1.105
-1.105
-1.075
-1.065
-1.045
-1.03
-1.0
-0.99
-0.96
-0.94
-0.92
-0.915
-0.905
-0.905
-0.92
-0.93
-0.97
-0.975
-0.94
-0.89
-0.805
-0.72
-0.655
-0.63
-0.61
-0.6
-0.59
-0.575
-0.56
-0.55
-0.53
-0.52
-0.505
-0.515
-0.505
-0.495
-0.505
-0.495
-0.51
-0.485
-0.5
-0.485
-0.485
-0.475
-0.455
-0.44
-0.36
-0.285
-0.25
-0.21
-0.2
-0.235
-0.265
-0.3
-0.35
-0.4
-0.4
-0.395
-0.385
-0.375
-0.34
-0.005
0.95
2.35
2.74
1.2
0.31
0.155
-0.39
-0.43
-0.455
-0.475
-0.475
-0.455
-0.445
-0.445
-0.42
-0.4
-0.39
-0.375
-0.36
-0.345
-0.335
-0.335
-0.335
-0.36
-0.395
-0.43
-0.475
-0.515
-0.535
-0.505
-0.425
-0.31
-0.205
-0.11
-0.05
-0.03
-0.015
0.0
0.015
0.015
0.035
0.04
0.035
0.035
0.035
0.035
0.035
0.03
0.035
0.02
0.02
0.02
0.03
0.035
0.03
0.03
0.05
0.06
0.105
0.18
0.245
0.255
0.295
0.28
0.245
0.195
0.165
0.105
0.07
0.085
0.1
0.1
0.105
0.19
0.67
1.705
2.985
2.545
1.095
0.695
0.415
0.005
0.02
-0.015
-0.01
-0.015
-0.015
-0.005
0.02
0.025
0.045
0.055
0.08
0.08
0.095
0.09
0.1
0.085
0.07
0.04
-0.015
-0.065
-0.1
-0.085
-0.045
0.045
0.15
0.23
0.295
0.335
0.35
0.375
0.375
0.36
0.37
0.375
0.37
0.36
0.355
0.34
0.34
0.34
0.35
0.345
0.34
0.33
0.315
0.335
0.345
0.33
0.325
0.34
0.37
0.39
0.47
0.515
0.575
0.61
0.575
0.525
0.495
0.44
0.38
0.335
0.34
0.345
0.37
0.375
0.425
0.71
1.59
2.845
2.77
1.235
0.69
0.63
0.245
0.255
0.245
0.225
0.205
0.215
0.245
0.265
0.28
0.285
0.285
0.29
0.31
0.315
0.345
0.325
0.315
0.31
0.295
0.265
0.21
0.19
0.24
0.285
0.335
0.41
0.49
0.525
0.53
0.525
0.535
0.54
0.55
0.535
0.56
0.535
0.53
0.535
0.535
0.505
0.52
0.5
0.49
0.51
0.5
0.475
0.495
0.495
0.51
0.525
0.515
0.56
0.67
0.695
0.75
0.735
0.67
0.675
0.6
0.505
0.465
0.465
0.485
0.495
0.52
0.475
0.645
1.24
2.455
3.275
1.865
0.7
0.775
0.435
0.36
0.37
0.35
0.365
0.37
0.38
0.37
0.37
0.4
0.4
0.41
0.42
0.445
0.445
0.435
0.465
0.445
0.415
0.425
0.395
0.365
0.335
0.355
0.41
0.495
0.565
0.6
0.59
0.595
0.59
0.58
0.565
0.565
0.57
0.565
0.57
0.565
0.565
0.555
0.54
0.535
0.51
0.485
0.485
0.485
0.485
0.47
0.47
0.525
0.575
0.61
0.63
0.625
0.56
0.51
0.45
0.375
0.31
0.295
0.275
0.265
0.245
0.255
0.48
1.29
2.65
3.28
1.725
0.61
0.52
0.06
-0.035
-0.075
-0.115
-0.12
-0.14
-0.145
-0.17
-0.165
-0.185
-0.19
-0.18
-0.19
-0.215
-0.225
-0.245
-0.275
-0.31
-0.365
-0.43
-0.49
-0.555
-0.605
-0.605
-0.555
-0.47
-0.39
-0.335
-0.32
-0.325
-0.31
-0.335
-0.35
-0.355
-0.36
-0.385
-0.385
-0.41
-0.435
-0.45
-0.475
-0.5
-0.52
-0.545
-0.555
-0.58
-0.585
-0.605
-0.625
-0.63
-0.63
-0.595
-0.53
-0.515
-0.495
-0.485
-0.525
-0.56
-0.615
-0.67
-0.735
-0.775
-0.78
-0.795
-0.795
-0.8
-0.605
0.1
1.35
2.295
1.17
-0.06
-0.24
-0.765
-0.985
-1.0
-1.045
-1.04
-1.03
-1.03
-1.035
-1.025
-1.01
-1.005
-1.005
-0.995
-0.985
-0.985
-0.985
-0.985
-1.015
-1.055
-1.08
-1.14
-1.19
-1.215
-1.2
-1.145
-1.04
-0.955
-0.855
-0.805
-0.775
-0.775
-0.75
-0.76
-0.755
-0.75
-0.75
-0.765
-0.765
-0.77
-0.775
-0.78
-0.785
-0.79
-0.79
-0.795
-0.8
-0.795
-0.795
-0.775
-0.77
-0.755
-0.74
-0.675
-0.61
-0.575
-0.53
-0.54
-0.585
-0.595
-0.62
-0.685
-0.715
-0.725
-0.715
-0.71
-0.7
-0.695
-0.375
0.465
1.715
2.03
0.545
-0.255
-0.27
-0.76
-0.815
-0.835
-0.845
-0.85
-0.845
-0.835
-0.825
-0.815
-0.79
-0.785
-0.8
-0.79
-0.765
-0.75
-0.775
-0.785
-0.765
-0.81
-0.84
-0.88
-0.925
-0.905
-0.88
-0.82
-0.72
-0.685
-0.645
-0.59
-0.6
-0.615
-0.615
-0.615
-0.61
-0.64
-0.635
-0.64
-0.665
-0.655
-0.67
-0.69
-0.67
-0.705
-0.73
-0.73
-0.745
-0.745
-0.75
-0.765
-0.745
-0.715
-0.655
-0.605
-0.56
-0.575
-0.61
-0.63
-0.675
-0.745
-0.805
-0.855
-0.875
-0.855
-0.845
-0.875
-0.835
-0.66
-0.015
1.21
1.73
0.17
-0.775
-0.645
-0.98
-1.04
-1.065
-1.06
-1.065
-1.055
-1.075
-1.07
-1.055
-1.03
-1.035
-1.06
-1.035
-1.015
-1.02
-1.03
-1.04
-1.02
-1.03
-1.07
-1.115
-1.16
-1.125
-1.075
-1.025
-0.955
-0.915
-0.92
-0.925
-0.93
-0.945
-0.935
-0.95
-0.97
-0.955
-0.94
-0.975
-0.97
-0.965
-0.995
-1.005
-1.02
-1.02
-1.05
-1.055
-1.065
-1.08
-1.075
-1.08
-1.075
-0.98
-0.965
-0.92
-0.895
-0.945
-1.005
-1.035
-1.11
-1.17
-1.18
-1.18
-1.18
-1.18
-1.19
-1.16
-0.84
0.135
1.475
1.175
-0.545
-1.05
-1.025
-1.325
-1.295
-1.33
-1.305
-1.31
-1.3
-1.295
-1.29
-1.275
-1.265
-1.25
-1.245
-1.235
-1.225
-1.225
-1.23
-1.22
-1.235
-1.27
-1.3
-1.34
-1.365
-1.355
-1.315
-1.225
-1.155
-1.09
-1.065
-1.04
-1.05
-1.045
-1.04
-1.025
-1.02
-1.015
-1.005
-1.0
-1.005
-1.0
-1.015
-1.02
-1.035
-1.03
-1.035
-1.025
-1.04
-1.035
-1.035
-1.005
-1.0
-0.975
-0.91
-0.87
-0.835
-0.795
-0.81
-0.83
-0.85
-0.875
-0.94
-0.985
-0.985
-0.975
-0.965
-0.965
-0.925
-0.605
0.315
1.71
2.205
0.715
-0.24
-0.4
-0.965
-1.04
-1.07
-1.065
-1.075
-1.07
-1.06
-1.04
-1.04
-1.02
-1.0
-0.985
-0.98
-0.965
-0.945
-0.945
-0.95
-0.965
-0.99
-1.015
-1.065
-1.1
-1.105
-1.08
-1.005
-0.88
-0.77
-0.68
-0.62
-0.605
-0.59
-0.595
-0.605
-0.615
-0.62
-0.605
-0.585
-0.59
-0.595
-0.61
-0.595
-0.585
-0.6
-0.585
-0.56
-0.59
-0.59
-0.585
-0.59
-0.55
-0.55
-0.59
-0.545
-0.55
-0.53
-0.515
-0.52
-0.505
-0.52
-0.465
-0.365
-0.325
-0.28
-0.275
-0.355
-0.345
-0.375
-0.435
-0.495
-0.51
-0.46
-0.435
-0.46
-0.46
-0.38
-0.015
0.955
2.295
2.055
0.415
-0.14
-0.22
-0.58
-0.55
-0.56
-0.545
-0.555
-0.55
-0.56
-0.535
-0.49
-0.51
-0.51
-0.46
-0.47
-0.46
-0.46
-0.445
-0.445
-0.45
-0.475
-0.485
-0.545
-0.57
-0.57
-0.57
-0.515
-0.415
-0.335
-0.295
-0.275
-0.225
-0.23
-0.245
-0.23
-0.205
-0.235
-0.235
-0.205
-0.17
-0.215
-0.215
-0.215
-0.21
-0.23
-0.26
-0.24
-0.23
-0.245
-0.29
-0.28
-0.245
-0.205
-0.115
-0.09
-0.055
-0.03
-0.06
-0.145
-0.185
-0.22
-0.27
-0.265
-0.285
-0.3
-0.29
-0.275
-0.185
0.295
1.48
2.8
1.83
0.095
-0.145
-0.25
-0.45
-0.365
-0.39
-0.46
-0.455
-0.42
-0.35
-0.36
-0.42
-0.395
-0.325
-0.325
-0.37
-0.355
-0.325
-0.31
-0.33
-0.335
-0.36
-0.4
-0.46
-0.47
-0.47
-0.445
-0.38
-0.31
-0.265
-0.24
-0.24
-0.215
-0.185
-0.16
-0.205
-0.215
-0.185
-0.14
-0.145
-0.14
-0.185
-0.215
-0.115
-0.125
-0.215
-0.195
-0.15
-0.155
-0.195
-0.165
-0.105
-0.07
-0.005
0.035
-0.005
-0.045
-0.06
-0.17
-0.185
-0.19
-0.185
-0.25
-0.24
-0.22
-0.1
0.49
1.735
3.0
1.795
-0.06
-0.145
-0.12
-0.36
-0.34
-0.335
-0.315
-0.325
-0.32
-0.325
-0.285
-0.295
-0.31
-0.305
-0.305
-0.24
-0.255
-0.215
-0.19
-0.185
-0.21
-0.23
-0.27
-0.325
-0.32
-0.305
-0.27
-0.205
-0.15
-0.1
-0.05
-0.055
-0.085
-0.055
-0.05
-0.06
-0.04
-0.025
0.015
0.04
0.01
0.04
0.05
0.05
0.05
0.05
0.03
0.035
0.05
0.08
0.155
0.19
0.24
0.255
0.205
0.185
0.185
0.12
0.055
0.045
0.05
0.04
0.06
0.065
0.275
1.135
2.65
3.57
1.795
0.255
0.35
0.07
-0.04
-0.035
-0.08
-0.055
-0.02
-0.005
-0.02
-0.02
0.005
0.02
0.035
0.05
0.055
0.07
0.07
0.065
0.08
0.055
0.025
-0.02
-0.035
-0.065
-0.1
-0.035
0.045
0.14
0.215
0.25
0.265
0.275
0.285
0.295
0.29
0.31
0.315
0.33
0.32
0.33
0.325
0.31
0.315
0.315
0.305
0.315
0.3
0.31
0.34
0.405
0.45
0.475
0.525
0.495
0.455
0.43
0.4
0.355
0.305
0.315
0.3
0.34
0.335
0.55
1.405
2.88
3.865
2.275
0.77
0.74
0.36
0.205
0.195
0.175
0.2
0.2
0.2
0.22
0.21
0.24
0.235
0.27
0.27
0.27
0.285
0.295
0.29
0.275
0.245
0.22
0.175
0.14
0.11
0.145
0.205
0.29
0.37
0.44
0.475
0.5
0.525
0.545
0.535
0.535
0.53
0.545
0.525
0.52
0.525
0.535
0.515
0.51
0.52
0.515
0.5
0.51
0.5
0.505
0.515
0.545
0.615
0.65
0.665
0.69
0.685
0.645
0.625
0.595
0.53
0.495
0.5
0.5
0.495
0.505
0.63
1.21
2.45
3.795
3.05
1.395
1.01
0.705
0.375
0.39
0.36
0.37
0.355
0.345
0.37
0.365
0.38
0.405
0.415
0.42
0.425
0.425
0.425
0.425
0.39
0.385
0.35
0.305
0.28
0.265
0.27
0.32
0.405
0.5
0.575
0.625
0.645
0.655
0.66
0.655
0.67
0.665
0.67
0.66
0.655
0.65
0.635
0.645
0.63
0.64
0.64
0.635
0.62
0.625
0.615
0.615
0.615
0.625
0.62
0.635
0.64
0.65
0.685
0.75
0.795
0.825
0.845
0.815
0.795
0.765
0.715
0.665
0.625
0.63
0.62
0.63
0.63
0.71
1.17
2.26
3.675
3.43
1.8
1.225
0.955
0.495
0.51
0.465
0.455
0.465
0.465
0.475
0.485
0.505
0.525
0.535
0.55
0.57
0.555
0.555
0.56
0.56
0.535
0.51
0.465
0.45
0.44
0.465
0.495
0.565
0.64
0.71
0.765
0.8
0.785
0.78
0.775
0.79
0.79
0.795
0.765
0.755
0.75
0.775
0.76
0.745
0.75
0.765
0.745
0.75
0.755
0.745
0.72
0.725
0.725
0.71
0.745
0.725
0.725
0.745
0.775
0.84
0.895
0.91
0.955
0.94
0.885
0.85
0.8
0.75
0.675
0.7
0.71
0.72
0.71
0.705
0.925
1.69
3.015
3.695
2.105
0.935
0.98
0.645
0.57
0.56
0.585
0.55
0.53
0.57
0.56
0.56
0.565
0.595
0.595
0.595
0.61
0.62
0.61
0.625
0.625
0.595
0.585
0.525
0.46
0.475
0.495
0.56
0.605
0.695
0.78
0.8
0.765
0.75
0.785
0.805
0.775
0.775
0.78
0.785
0.775
0.785
0.765
0.8
0.79
0.745
0.75
0.77
0.775
0.75
0.73
0.715
0.725
0.725
0.72
0.755
0.845
0.895
0.93
0.96
0.925
0.88
0.835
0.795
0.72
0.685
0.71
0.705
0.695
0.705
0.78
1.15
2.175
3.605
3.335
1.475
0.86
0.905
0.56
0.575
0.55
0.575
0.57
0.575
0.585
0.595
0.61
0.605
0.605
0.625
0.635
0.64
0.65
0.66
0.65
0.63
0.6
0.565
0.525
0.5
0.5
0.535
0.6
0.68
0.74
0.78
0.795
0.795
0.805
0.795
0.795
0.805
0.815
0.835
0.83
0.825
0.82
0.815
0.81
0.795
0.795
0.785
0.77
0.775
0.77
0.76
0.76
0.77
0.77
0.775
0.77
0.81
0.89
0.925
0.97
1.01
0.97
0.925
0.875
0.845
0.765
0.73
0.725
0.735
0.73
0.73
0.81
1.28
2.43
3.92
3.585
1.84
1.225
0.995
0.58
0.6
0.56
0.56
0.56
0.56
0.555
0.56
0.565
0.575
0.595
0.6
0.6
0.6
0.61
0.61
0.595
0.59
0.56
0.52
0.475
0.46
0.45
0.48
0.56
0.645
0.725
0.78
0.81
0.82
0.83
0.825
0.83
0.83
0.82
0.82
0.81
0.795
0.795
0.79
0.785
0.79
0.78
0.775
0.765
0.765
0.765
0.765
0.75
0.755
0.755
0.765
0.765
0.76
0.77
0.765
0.765
0.77
0.78
0.765
0.79
0.79
0.795
0.855
0.925
0.945
0.975
1.015
0.96
0.93
0.89
0.825
0.755
0.745
0.735
0.745
0.745
0.745
0.83
1.315
2.415
3.805
3.385
1.76
1.27
0.99
0.58
0.595
0.55
0.56
0.545
0.55
0.565
0.57
0.57
0.59
0.585
0.6
0.615
0.625
0.615
0.62
0.615
0.605
0.56
0.52
0.475
0.455
0.435
0.465
0.535
0.625
0.71
0.78
0.83
0.84
0.84
0.85
0.835
0.83
0.825
0.83
0.825
0.825
0.815
0.82
0.805
0.805
0.785
0.78
0.785
0.77
0.76
0.76
0.77
0.765
0.775
0.78
0.775
0.77
0.77
0.775
0.77
0.775
0.77
0.77
0.77
0.785
0.785
0.775
0.775
0.785
0.78
0.775
0.775
0.77
0.77
0.775
0.77
0.78
0.775
0.785
0.78
0.78
0.79
0.78
0.785
0.785
0.785
0.79
0.81
0.83
0.87
0.915
0.95
0.955
0.915
0.905
0.88
0.84
0.785
0.76
0.765
0.755
0.77
0.775
0.945
1.595
2.81
3.9
2.795
1.425
1.255
0.815
0.6
0.605
0.57
0.565
0.56
0.57
0.57
0.58
0.59
0.61
0.605
0.615
0.62
0.62
0.61
0.62
0.61
0.585
0.54
0.515
0.465
0.435
0.415
0.445
0.505
0.615
0.72
0.795
0.85
0.87
0.885
0.88
0.865
0.865
0.86
0.865
0.845
0.855
0.85
0.835
0.825
0.815
0.805
0.805
0.795
0.78
0.77
0.78
0.77
0.76
0.77
0.775
0.765
0.77
0.77
0.78
0.79
0.785
0.785
0.79
0.795
0.81
0.79
0.785
0.78
0.79
0.795
0.795
0.79
0.795
0.8
0.795
0.81
0.805
0.8
0.82
0.805
0.81
0.825
0.82
0.84
0.87
0.92
0.945
0.965
0.99
0.955
0.945
0.895
0.845
0.81
0.815
0.805
0.81
0.805
0.865
1.26
2.235
3.575
3.425
1.82
1.25
1.095
0.67
0.685
0.625
0.63
0.63
0.635
0.66
0.67
0.67
0.665
0.675
0.68
0.685
0.685
0.695
0.69
0.685
0.69
0.66
0.625
0.565
0.505
0.485
0.495
0.53
0.61
0.7
0.755
0.825
0.88
0.895
0.885
0.885
0.88
0.87
0.865
0.88
0.84
0.84
0.83
0.805
0.79
0.785
0.765
0.75
0.745
0.73
0.695
0.72
0.68
0.665
0.665
0.64
0.63
0.64
0.605
0.6
0.595
0.575
0.555
0.575
0.56
0.56
0.53
0.51
0.5
0.485
0.47
0.485
0.465
0.455
0.515
0.56
0.57
0.57
0.51
0.455
0.4
0.31
0.24
0.215
0.19
0.175
0.165
0.14
0.27
0.89
2.105
2.99
1.555
0.29
0.28
-0.075
-0.185
-0.195
-0.22
-0.23
-0.29
-0.295
-0.275
-0.29
-0.325
-0.34
-0.375
-0.375
-0.395
-0.415
-0.435
-0.44
-0.46
-0.49
-0.555
-0.61
-0.665
-0.705
-0.73
-0.725
-0.705
-0.635
-0.56
-0.52
-0.525
-0.54
-0.55
-0.55
-0.57
-0.575
-0.59
-0.605
-0.625
-0.635
-0.66
-0.675
-0.705
-0.72
-0.765
-0.77
-0.8
-0.81
-0.82
-0.815
-0.845
-0.85
-0.845
-0.865
-0.88
-0.885
-0.885
-0.905
-0.905
-0.905
-0.91
-0.905
-0.83
-0.775
-0.74
-0.71
-0.75
-0.79
-0.835
-0.875
-0.96
-1.0
-1.005
-1.015
-1.025
-1.015
-0.95
-0.545
0.515
1.91
1.635
0.0
-0.575
-0.79
-1.185
-1.175
-1.225
-1.2
-1.225
-1.22
-1.2
-1.2
-1.2
-1.185
-1.18
-1.18
-1.165
-1.145
-1.145
-1.135
-1.145
-1.16
-1.195
-1.235
-1.305
-1.34
-1.385
-1.395
-1.345
-1.235
-1.125
-1.02
-0.955
-0.91
-0.88
-0.87
-0.865
-0.855
-0.855
-0.835
-0.835
-0.825
-0.835
-0.84
-0.84
-0.835
-0.845
-0.845
-0.845
-0.85
-0.85
-0.835
-0.845
-0.83
-0.82
-0.82
-0.805
-0.79
-0.78
-0.775
-0.77
-0.755
-0.75
-0.745
-0.74
-0.73
-0.715
-0.705
-0.66
-0.575
-0.52
-0.49
-0.45
-0.475
-0.53
-0.55
-0.58
-0.64
-0.665
-0.665
-0.655
-0.64
-0.645
-0.455
0.215
1.445
2.525
1.455
0.14
-0.055
-0.515
-0.745
-0.735
-0.765
-0.755
-0.74
-0.745
-0.72
-0.705
-0.705
-0.675
-0.675
-0.655
-0.645
-0.63
-0.64
-0.625
-0.625
-0.655
-0.68
-0.725
-0.77
-0.825
-0.83
-0.82
-0.745
-0.635
-0.505
-0.4
-0.335
-0.31
-0.28
-0.265
-0.265
-0.265
-0.255
-0.255
-0.255
-0.255
-0.24
-0.255
-0.24
-0.265
-0.26
-0.265
-0.265
-0.26
-0.24
-0.255
-0.26
-0.24
-0.235
-0.24
-0.235
-0.23
-0.225
-0.205
-0.195
-0.205
-0.195
-0.18
-0.17
-0.16
-0.15
-0.155
-0.115
-0.055
0.015
0.05
0.095
0.1
0.055
0.02
-0.01
-0.075
-0.13
-0.12
-0.125
-0.12
-0.11
-0.085
0.2
1.04
2.355
2.855
1.385
0.45
0.37
-0.155
-0.21
-0.23
-0.235
-0.24
-0.23
-0.225
-0.215
-0.21
-0.2
-0.185
-0.155
-0.16
-0.155
-0.14
-0.135
-0.135
-0.15
-0.19
-0.23
-0.275
-0.315
-0.365
-0.365
-0.315
-0.235
-0.12
-0.01
0.07
0.12
0.135
0.155
0.17
0.175
0.155
0.165
0.155
0.165
0.155
0.16
0.15
0.15
0.145
0.145
0.125
0.125
0.13
0.13
0.14
0.14
0.135
0.145
0.155
0.14
0.15
0.16
0.155
0.175
0.185
0.19
0.195
0.215
0.195
0.2
0.21
0.235
0.315
0.375
0.42
0.455
0.435
0.365
0.31
0.28
0.225
0.195
0.205
0.21
0.2
0.205
0.27
0.685
1.685
2.97
2.45
0.93
0.58
0.38
0.055
0.085
0.055
0.05
0.055
0.075
0.065
0.085
0.105
0.105
0.085
0.13
0.145
0.14
0.12
0.13
0.135
0.11
0.1
0.065
0.01
-0.01
-0.02
0.005
0.05
0.155
0.245
0.33
0.375
0.405
0.415
0.41
0.39
0.4
0.405
0.4
0.4
0.41
0.4
0.39
0.41
0.395
0.37
0.375
0.365
0.345
0.35
0.355
0.33
0.35
0.345
0.355
0.355
0.385
0.375
0.365
0.37
0.385
0.37
0.42
0.505
0.55
0.595
0.645
0.58
0.55
0.525
0.455
0.38
0.38
0.38
0.375
0.365
0.35
0.44
0.875
1.92
3.18
2.41
0.905
0.665
0.51
0.26
0.26
0.24
0.245
0.255
0.265
0.27
0.26
0.265
0.28
0.3
0.295
0.31
0.31
0.31
0.315
0.31
0.31
0.275
0.245
0.21
0.18
0.195
0.24
0.3
0.405
0.48
0.535
0.56
0.575
0.575
0.57
0.565
0.57
0.575
0.57
0.57
0.57
0.56
0.57
0.56
0.55
0.515
0.525
0.515
0.52
0.515
0.515
0.525
0.53
0.53
0.53
0.53
0.53
0.54
0.545
0.555
0.56
0.575
0.645
0.705
0.735
0.76
0.765
0.72
0.68
0.645
0.595
0.53
0.535
0.53
0.545
0.535
0.61
1.04
2.09
3.475
3.31
1.735
1.145
0.86
0.4
0.405
0.355
0.35
0.35
0.365
0.365
0.375
0.38
0.385
0.41
0.405
0.415
0.42
0.425
0.41
0.405
0.375
0.33
0.28
0.23
0.16
0.13
0.125
0.195
0.29
0.425
0.545
0.61
0.655
0.69
0.69
0.69
0.7
0.695
0.7
0.695
0.685
0.685
0.68
0.665
0.665
0.655
0.645
0.645
0.63
0.63
0.625
0.635
0.635
0.63
0.625
0.635
0.645
0.645
0.65
0.65
0.65
0.67
0.665
0.675
0.71
0.78
0.815
0.86
0.865
0.835
0.795
0.775
0.72
0.67
0.64
0.65
0.645
0.66
0.66
0.87
1.565
2.81
3.7
2.49
1.305
1.18
0.69
0.51
0.495
0.475
0.475
0.47
0.485
0.49
0.485
0.505
0.505
0.525
0.535
0.535
0.535
0.55
0.53
0.515
0.475
0.435
0.385
0.33
0.285
0.27
0.295
0.395
0.505
0.615
0.7
0.765
0.79
0.795
0.795
0.805
0.815
0.815
0.81
0.785
0.77
0.775
0.775
0.775
0.755
0.755
0.735
0.735
0.73
0.725
0.725
0.72
0.725
0.715
0.72
0.735
0.75
0.765
0.74
0.74
0.73
0.745
0.745
0.77
0.77
0.855
0.915
0.92
0.93
0.92
0.89
0.87
0.825
0.745
0.695
0.715
0.73
0.725
0.725
0.815
1.24
2.25
3.495
2.88
1.38
1.09
0.87
0.57
0.6
0.56
0.535
0.56
0.57
0.565
0.57
0.61
0.585
0.58
0.625
0.615
0.615
0.62
0.62
0.62
0.58
0.57
0.52
0.465
0.43
0.435
0.455
0.535
0.62
0.695
0.775
0.83
0.835
0.845
0.85
0.85
0.825
0.84
0.84
0.835
0.84
0.845
0.82
0.79
0.8
0.805
0.785
0.775
0.775
0.76
0.73
0.765
0.77
0.775
0.765
0.755
0.765
0.77
0.775
0.78
0.835
0.905
0.93
0.985
0.995
0.945
0.89
0.865
0.785
0.745
0.75
0.735
0.75
0.75
0.76
0.96
1.66
2.925
3.505
1.985
0.975
1.02
0.63
0.61
0.565
0.565
0.575
0.585
0.58
0.6
0.595
0.605
0.605
0.62
0.62
0.63
0.635
0.635
0.615
0.615
0.6
0.575
0.545
0.525
0.505
0.52
0.57
0.655
0.745
0.81
0.835
0.86
0.86
0.855
0.85
0.865
0.855
0.865
0.855
0.855
0.86
0.85
0.845
0.83
0.82
0.805
0.8
0.785
0.785
0.79
0.785
0.785
0.78
0.79
0.785
0.795
0.78
0.8
0.805
0.855
0.94
0.97
0.985
1.015
0.975
0.935
0.905
0.855
0.8
0.78
0.78
0.79
0.79
0.795
1.035
1.815
3.125
3.935
2.585
1.43
1.27
0.765
0.625
0.615
0.575
0.59
0.58
0.59
0.585
0.61
0.615
0.625
0.625
0.63
0.64
0.64
0.63
0.635
0.6
0.57
0.515
0.455
0.4
0.35
0.33
0.37
0.455
0.59
0.695
0.795
0.84
0.88
0.88
0.89
0.88
0.885
0.88
0.87
0.85
0.855
0.855
0.845
0.83
0.815
0.815
0.815
0.8
0.79
0.785
0.785
0.775
0.775
0.78
0.77
0.775
0.785
0.775
0.785
0.785
0.79
0.775
0.825
0.915
0.95
0.955
0.995
0.97
0.92
0.895
0.85
0.78
0.75
0.74
0.74
0.745
0.74
0.865
1.425
2.55
3.73
2.98
1.595
1.3
0.91
0.57
0.58
0.535
0.545
0.55
0.535
0.535
0.54
0.56
0.56
0.555
0.56
0.57
0.575
0.575
0.565
0.54
0.52
0.47
0.425
0.345
0.305
0.28
0.3
0.37
0.475
0.595
0.7
0.765
0.78
0.785
0.79
0.78
0.785
0.77
0.77
0.755
0.76
0.75
0.75
0.73
0.745
0.72
0.72
0.7
0.705
0.685
0.685
0.67
0.68
0.68
0.675
0.675
0.675
0.68
0.685
0.675
0.685
0.68
0.7
0.75
0.82
0.85
0.885
0.895
0.855
0.81
0.775
0.7
0.655
0.635
0.635
0.615
0.625
0.615
0.81
1.44
2.605
3.515
2.365
1.175
1.1
0.64
0.455
0.43
0.415
0.425
0.405
0.4
0.415
0.435
0.435
0.435
0.44
0.445
0.455
0.47
0.47
0.445
0.41
0.385
0.36
0.32
0.275
0.24
0.225
0.26
0.35
0.455
0.56
0.615
0.63
0.655
0.665
0.66
0.67
0.665
0.65
0.625
0.645
0.645
0.625
0.62
0.615
0.605
0.6
0.6
0.595
0.565
0.575
0.575
0.58
0.58
0.585
0.595
0.585
0.6
0.58
0.62
0.715
0.765
0.8
0.82
0.795
0.73
0.69
0.63
0.57
0.56
0.575
0.55
0.545
0.535
0.615
0.965
1.91
3.135
2.56
1.065
0.815
0.705
0.4
0.405
0.4
0.415
0.425
0.43
0.44
0.435
0.445
0.455
0.485
0.49
0.48
0.47
0.475
0.475
0.47
0.455
0.435
0.405
0.375
0.37
0.37
0.385
0.465
0.555
0.63
0.655
0.69
0.7
0.69
0.68
0.675
0.69
0.685
0.67
0.685
0.685
0.68
0.665
0.65
0.63
0.63
0.62
0.615
0.605
0.615
0.615
0.625
0.62
0.63
0.63
0.635
0.635
0.635
0.645
0.64
0.65
0.735
0.8
0.845
0.875
0.855
0.815
0.78
0.735
0.68
0.63
0.64
0.645
0.635
0.63
0.665
0.895
1.715
3.03
3.44
1.875
0.975
0.945
0.535
0.52
0.48
0.485
0.485
0.485
0.505
0.505
0.52
0.515
0.535
0.535
0.55
0.55
0.555
0.56
0.56
0.53
0.505
0.455
0.415
0.375
0.365
0.375
0.425
0.52
0.645
0.735
0.79
0.81
0.815
0.815
0.825
0.81
0.815
0.81
0.825
0.815
0.81
0.805
0.79
0.785
0.775
0.765
0.755
0.75
0.76
0.755
0.765
0.76
0.765
0.755
0.775
0.78
0.785
0.78
0.775
0.79
0.795
0.815
0.875
0.945
0.975
0.995
1.04
0.99
0.95
0.92
0.87
0.795
0.775
0.78
0.775
0.77
0.785
0.965
1.655
2.88
3.925
2.865
1.57
1.355
0.88
0.615
0.61
0.57
0.57
0.57
0.565
0.57
0.59
0.59
0.59
0.595
0.61
0.59
0.59
0.575
0.57
0.545
0.505
0.445
0.37
0.305
0.245
0.23
0.245
0.315
0.42
0.535
0.63
0.665
0.7
0.69
0.69
0.68
0.67
0.655
0.64
0.63
0.61
0.585
0.56
0.545
0.525
0.495
0.475
0.465
0.445
0.4
0.39
0.37
0.36
0.325
0.305
0.285
0.265
0.24
0.225
0.21
0.195
0.18
0.19
0.23
0.275
0.275
0.305
0.3
0.25
0.18
0.12
0.04
-0.03
-0.06
-0.085
-0.095
-0.11
-0.13
0.065
0.75
1.96
2.805
1.535
0.355
0.26
-0.25
-0.43
-0.46
-0.5
-0.51
-0.54
-0.545
-0.545
-0.55
-0.58
-0.585
-0.585
-0.585
-0.585
-0.595
-0.615
-0.65
-0.66
-0.715
-0.785
-0.82
-0.875
-0.94
-0.965
-0.955
-0.89
-0.79
-0.695
-0.665
-0.625
-0.59
-0.615
-0.62
-0.61
-0.645
-0.66
-0.665
-0.69
-0.71
-0.705
-0.725
-0.745
-0.75
-0.76
-0.79
-0.805
-0.81
-0.83
-0.845
-0.865
-0.855
-0.865
-0.87
-0.88
-0.88
-0.855
-0.88
-0.875
-0.82
-0.755
-0.73
-0.69
-0.685
-0.735
-0.79
-0.835
-0.915
-0.945
-0.975
-0.975
-0.97
-0.97
-0.98
-0.855
-0.345
0.77
1.77
0.585
-0.7
-0.68
-0.975
-1.11
-1.115
-1.15
-1.165
-1.155
-1.125
-1.115
-1.115
-1.095
-1.075
-1.09
-1.09
-1.06
-1.055
-1.03
-1.055
-1.04
-1.055
-1.085
-1.14
-1.135
-1.15
-1.15
-1.1
-1.005
-0.925
-0.845
-0.815
-0.815
-0.805
-0.785
-0.805
-0.84
-0.805
-0.765
-0.775
-0.785
-0.775
-0.77
-0.775
-0.79
-0.77
-0.77
-0.8
-0.805
-0.795
-0.775
-0.78
-0.785
-0.785
-0.775
-0.755
-0.735
-0.74
-0.715
-0.625
-0.57
-0.53
-0.5
-0.535
-0.56
-0.585
-0.645
-0.695
-0.69
-0.7
-0.69
-0.675
-0.68
-0.56
-0.065
1.045
2.17
1.125
-0.24
-0.335
-0.56
-0.74
-0.725
-0.74
-0.72
-0.72
-0.705
-0.695
-0.685
-0.67
-0.645
-0.645
-0.625
-0.61
-0.59
-0.585
-0.575
-0.575
-0.585
-0.625
-0.66
-0.695
-0.72
-0.715
-0.665
-0.58
-0.485
-0.395
-0.325
-0.305
-0.29
-0.29
-0.295
-0.305
-0.28
-0.285
-0.27
-0.265
-0.25
-0.255
-0.255
-0.265
-0.265
-0.275
-0.28
-0.29
-0.29
-0.285
-0.27
-0.28
-0.27
-0.255
-0.255
-0.245
-0.235
-0.23
-0.17
-0.085
-0.045
-0.025
0.03
-0.02
-0.045
-0.09
-0.14
-0.2
-0.2
-0.21
-0.205
-0.205
-0.19
-0.02
0.695
1.94
2.995
1.955
0.645
0.44
-0.065
-0.32
-0.32
-0.345
-0.35
-0.335
-0.33
-0.315
-0.305
-0.285
-0.275
-0.27
-0.255
-0.24
-0.24
-0.24
-0.235
-0.255
-0.28
-0.345
-0.38
-0.435
-0.48
-0.495
-0.465
-0.385
-0.265
-0.145
-0.045
0.015
0.045
0.065
0.085
0.08
0.095
0.09
0.085
0.085
0.08
0.075
0.085
0.08
0.075
0.07
0.07
0.055
0.07
0.06
0.08
0.07
0.075
0.08
0.09
0.085
0.095
0.1
0.12
0.14
0.225
0.28
0.315
0.355
0.355
0.3
0.265
0.225
0.155
0.12
0.12
0.12
0.13
0.13
0.175
0.515
1.44
2.735
2.93
1.445
0.735
0.57
0.06
0.02
-0.005
-0.005
-0.015
-0.005
0.01
0.01
0.035
0.055
0.06
0.055
0.08
0.07
0.075
0.085
0.06
0.045
0.015
-0.03
-0.065
-0.105
-0.115
-0.11
-0.055
0.03
0.145
0.24
0.295
0.33
0.345
0.35
0.35
0.335
0.335
0.345
0.36
0.335
0.335
0.335
0.325
0.32
0.315
0.315
0.31
0.315
0.31
0.3
0.3
0.295
0.305
0.31
0.32
0.31
0.33
0.345
0.41
0.445
0.525
0.56
0.515
0.485
0.46
0.385
0.3
0.27
0.295
0.305
0.29
0.285
0.31
0.53
1.295
2.53
2.855
1.315
0.525
0.59
0.195
0.17
0.145
0.155
0.155
0.14
0.15
0.155
0.18
0.175
0.155
0.185
0.205
0.195
0.2
0.21
0.21
0.215
0.185
0.135
0.115
0.08
0.09
0.1
0.155
0.225
0.335
0.385
0.405
0.4
0.41
0.375
0.37
0.375
0.4
0.375
0.365
0.365
0.375
0.375
0.365
0.36
0.35
0.335
0.325
0.325
0.315
0.295
0.295
0.31
0.315
0.305
0.305
0.335
0.425
0.49
0.53
0.555
0.51
0.45
0.395
0.34
0.295
0.25
0.285
0.28
0.275
0.26
0.33
0.715
1.675
2.92
2.32
0.78
0.525
0.41
0.13
0.13
0.105
0.11
0.1
0.09
0.095
0.105
0.105
0.11
0.13
0.145
0.17
0.17
0.195
0.18
0.17
0.17
0.155
0.105
0.09
0.065
0.08
0.105
0.2
0.265
0.335
0.355
0.375
0.37
0.38
0.38
0.38
0.38
0.39
0.41
0.415
0.4
0.41
0.4
0.405
0.39
0.39
0.37
0.365
0.35
0.35
0.355
0.355
0.35
0.365
0.355
0.4
0.465
0.52
0.55
0.595
0.565
0.525
0.475
0.445
0.36
0.335
0.33
0.335
0.335
0.345
0.385
0.775
1.755
3.16
3.245
1.67
0.93
0.745
0.24
0.215
0.17
0.18
0.18
0.185
0.175
0.185
0.195
0.22
0.215
0.225
0.22
0.24
0.235
0.24
0.215
0.21
0.165
0.115
0.06
-0.005
-0.05
-0.035
0.015
0.13
0.25
0.355
0.42
0.45
0.465
0.485
0.475
0.495
0.485
0.505
0.49
0.48
0.475
0.475
0.475
0.47
0.45
0.44
0.44
0.445
0.435
0.43
0.415
0.43
0.43
0.44
0.44
0.445
0.46
0.46
0.465
0.5
0.585
0.62
0.65
0.685
0.645
0.6
0.565
0.525
0.455
0.425
0.435
0.44
0.415
0.435
0.505
0.885
1.865
3.19
3.14
1.615
1.025
0.815
0.315
0.31
0.27
0.275
0.26
0.265
0.27
0.285
0.275
0.285
0.3
0.31
0.31
0.335
0.32
0.335
0.31
0.275
0.245
0.195
0.135
0.09
0.08
0.09
0.14
0.25
0.365
0.45
0.525
0.56
0.56
0.565
0.57
0.58
0.57
0.585
0.575
0.585
0.58
0.565
0.565
0.56
0.545
0.56
0.53
0.515
0.515
0.525
0.515
0.52
0.495
0.525
0.53
0.535
0.525
0.525
0.525
0.535
0.57
0.67
0.69
0.74
0.765
0.75
0.695
0.66
0.59
0.535
0.52
0.515
0.505
0.515
0.505
0.53
0.755
1.505
2.71
3.255
1.785
0.845
0.88
0.44
0.37
0.35
0.34
0.355
0.335
0.33
0.365
0.375
0.365
0.375
0.365
0.365
0.39
0.38
0.375
0.38
0.375
0.355
0.31
0.265
0.225
0.205
0.21
0.25
0.33
0.42
0.49
0.515
0.53
0.545
0.535
0.53
0.505
0.52
0.53
0.5
0.495
0.5
0.475
0.46
0.46
0.445
0.425
0.435
0.42
0.41
0.385
0.385
0.375
0.385
0.37
0.365
0.36
0.385
0.385
0.47
0.505
0.54
0.56
0.515
0.47
0.41
0.34
0.29
0.255
0.245
0.23
0.23
0.235
0.245
0.45
1.13
2.35
2.84
1.32
0.4
0.485
0.09
0.045
0.02
0.005
0.005
-0.01
-0.01
0.0
0.03
0.005
-0.015
-0.005
0.02
0.01
0.005
0.005
0.005
0.015
0.0
-0.07
-0.095
-0.125
-0.125
-0.11
-0.075
-0.03
0.05
0.095
0.1
0.09
0.08
0.065
0.07
0.075
0.085
0.095
0.09
0.08
0.08
0.06
0.05
0.045
0.02
0.015
0.01
0.005
0.005
-0.01
-0.005
-0.005
-0.005
0.005
0.025
0.025
0.045
0.125
0.19
0.215
0.25
0.21
0.18
0.13
0.085
0.025
-0.01
-0.01
-0.01
-0.015
-0.025
-0.005
0.27
1.095
2.425
2.905
1.35
0.38
0.34
-0.11
-0.165
-0.19
-0.195
-0.195
-0.185
-0.185
-0.175
-0.165
-0.145
-0.145
-0.135
-0.13
-0.12
-0.12
-0.12
-0.13
-0.135
-0.18
-0.215
-0.26
-0.315
-0.36
-0.35
-0.31
-0.215
-0.12
-0.01
0.035
0.08
0.085
0.105
0.11
0.105
0.11
0.125
0.13
0.115
0.115
0.12
0.105
0.095
0.095
0.09
0.07
0.07
0.065
0.07
0.055
0.065
0.06
0.08
0.065
0.085
0.08
0.085
0.11
0.19
0.24
0.25
0.27
0.265
0.23
0.195
0.16
0.09
0.045
0.055
0.055
0.045
0.055
0.08
0.4
1.305
2.615
3.0
1.525
0.67
0.53
-0.015
-0.105
-0.12
-0.135
-0.14
-0.15
-0.145
-0.145
-0.125
-0.125
-0.11
-0.105
-0.105
-0.11
-0.1
-0.105
-0.13
-0.145
-0.185
-0.24
-0.29
-0.335
-0.375
-0.38
-0.33
-0.255
-0.13
-0.05
0.01
0.035
0.065
0.055
0.055
0.045
0.055
0.04
0.03
0.025
0.03
0.02
0.0
-0.025
-0.035
-0.045
-0.075
-0.075
-0.085
-0.08
-0.105
-0.1
-0.105
-0.115
-0.13
-0.13
-0.11
-0.125
-0.125
-0.125
-0.08
-0.035
0.02
0.055
0.06
0.035
0.01
-0.05
-0.135
-0.205
-0.225
-0.225
-0.21
-0.22
-0.235
-0.225
0.065
0.83
2.055
2.41
0.85
0.03
0.05
-0.385
-0.415
-0.44
-0.445
-0.47
-0.46
-0.435
-0.45
-0.445
-0.435
-0.435
-0.435
-0.43
-0.405
-0.395
-0.4
-0.425
-0.43
-0.47
-0.47
-0.51
-0.56
-0.605
-0.595
-0.56
-0.475
-0.415
-0.365
-0.305
-0.26
-0.275
-0.26
-0.29
-0.305
-0.285
-0.275
-0.285
-0.315
-0.31
-0.285
-0.32
-0.31
-0.33
-0.35
-0.36
-0.365
-0.375
-0.395
-0.405
-0.395
-0.405
-0.41
-0.41
-0.41
-0.38
-0.285
-0.265
-0.23
-0.265
-0.325
-0.345
-0.38
-0.495
-0.555
-0.56
-0.58
-0.57
-0.615
-0.645
-0.57
-0.185
0.785
1.98
1.21
-0.375
-0.565
-0.645
-0.905
-0.89
-0.965
-0.99
-0.98
-1.0
-1.01
-1.015
-1.01
-1.02
-1.03
-1.065
-1.085
-1.055
-1.065
-1.11
-1.125
-1.11
-1.135
-1.2
-1.25
-1.285
-1.345
-1.31
-1.265
-1.2
-1.165
-1.17
-1.18
-1.205
-1.235
-1.24
-1.26
-1.27
-1.285
-1.285
-1.27
-1.28
-1.285
-1.305
-1.325
-1.355
-1.355
-1.36
-1.395
-1.425
-1.425
-1.44
-1.45
-1.465
-1.46
-1.475
-1.46
-1.405
-1.335
-1.31
-1.29
-1.34
-1.375
-1.435
-1.5
-1.585
-1.64
-1.64
-1.655
-1.655
-1.665
-1.66
-1.39
-0.515
0.855
1.25
-0.395
-1.405
-1.41
-1.865
-1.91
-1.945
-1.965
-1.975
-1.965
-1.975
-1.975
-1.97
-1.965
-1.97
-1.97
-1.975
-1.97
-1.965
-1.97
-1.98
-2.0
-2.04
-2.08
-2.15
-2.205
-2.24
-2.24
-2.205
-2.12
-2.02
-1.93
-1.88
-1.84
-1.84
-1.83
-1.845
-1.83
-1.83
-1.82
-1.83
-1.825
-1.83
-1.84
-1.845
-1.865
-1.865
-1.88
-1.89
-1.895
-1.905
-1.895
-1.91
-1.91
-1.9
-1.895
-1.905
-1.885
-1.87
-1.84
-1.84
-1.81
-1.75
-1.695
-1.67
-1.655
-1.67
-1.695
-1.72
-1.73
-1.825
-1.875
-1.85
-1.825
-1.825
-1.835
-1.765
-1.355
-0.375
0.945
0.915
-0.695
-1.33
-1.435
-1.89
-1.89
-1.93
-1.925
-1.93
-1.905
-1.905
-1.875
-1.87
-1.86
-1.83
-1.835
-1.835
-1.83
-1.815
-1.79
-1.78
-1.755
-1.81
-1.855
-1.86
-1.885
-1.91
-1.9
-1.875
-1.785
-1.665
-1.59
-1.54
-1.505
-1.505
-1.475
-1.47
-1.43
-1.455
-1.465
-1.45
-1.415
-1.445
-1.445
-1.42
-1.405
-1.435
-1.435
-1.415
-1.375
-1.39
-1.405
-1.425
-1.4
-1.385
-1.405
-1.385
-1.335
-1.275
-1.2
-1.175
-1.15
-1.22
-1.245
-1.23
-1.27
-1.345
-1.335
-1.345
-1.34
-1.31
-1.315
-1.245
-0.795
0.285
1.59
0.915
-0.855
-1.18
-1.155
-1.425
-1.375
-1.39
-1.38
-1.395
-1.36
-1.36
-1.335
-1.305
-1.28
-1.31
-1.305
-1.265
-1.245
-1.25
-1.215
-1.235
-1.275
-1.23
-1.26
-1.33
-1.36
-1.385
-1.39
-1.315
-1.21
-1.165
-1.13
-1.07
-1.03
-1.01
-1.01
-1.025
-0.995
-0.97
-0.97
-0.935
-0.95
-0.955
-0.9
-0.935
-0.955
-0.94
-0.94
-0.945
-0.91
-0.915
-0.96
-0.95
-0.905
-0.875
-0.825
-0.755
-0.68
-0.71
-0.72
-0.735
-0.79
-0.855
-0.89
-0.88
-0.83
-0.845
-0.88
-0.865
-0.625
0.095
1.46
2.435
0.725
-0.81
-0.65
-0.86
-0.95
-0.925
-0.94
-0.95
-0.935
-0.91
-0.885
-0.895
-0.895
-0.865
-0.825
-0.845
-0.805
-0.8
-0.77
-0.765
-0.795
-0.775
-0.75
-0.83
-0.9
-0.9
-0.88
-0.895
-0.83
-0.705
-0.655
-0.615
-0.59
-0.585
-0.585
-0.585
-0.545
-0.505
-0.515
-0.515
-0.485
-0.48
-0.475
-0.46
-0.47
-0.465
-0.465
-0.475
-0.46
-0.47
-0.46
-0.43
-0.385
-0.345
-0.285
-0.24
-0.205
-0.24
-0.275
-0.3
-0.36
-0.42
-0.44
-0.395
-0.39
-0.395
-0.345
-0.055
0.915
2.415
2.825
0.815
-0.255
-0.07
-0.445
-0.46
-0.465
-0.485
-0.46
-0.44
-0.445
-0.41
-0.4
-0.385
-0.37
-0.365
-0.355
-0.345
-0.33
-0.3
-0.305
-0.32
-0.315
-0.355
-0.39
-0.445
-0.49
-0.48
-0.425
-0.355
-0.235
-0.145
-0.11
-0.085
-0.07
-0.075
-0.06
-0.04
-0.04
-0.005
0.005
-0.005
0.0
-0.015
0.005
0.0
-0.02
-0.005
-0.015
-0.035
-0.02
-0.005
0.005
0.025
0.1
0.135
0.165
0.215
0.205
0.175
0.15
0.11
0.065
0.01
0.02
0.025
0.01
0.02
0.13
0.66
1.865
3.27
2.675
0.92
0.495
0.295
-0.08
-0.065
-0.105
-0.095
-0.085
-0.09
-0.07
-0.06
-0.06
-0.055
-0.03
-0.03
-0.02
-0.005
-0.005
-0.005
-0.01
-0.03
-0.055
-0.11
-0.15
-0.185
-0.19
-0.155
-0.09
0.015
0.115
0.18
0.23
0.245
0.255
0.26
0.275
0.285
0.295
0.285
0.29
0.28
0.275
0.275
0.27
0.27
0.265
0.255
0.255
0.245
0.25
0.25
0.25
0.255
0.265
0.28
0.34
0.385
0.425
0.455
0.46
0.425
0.4
0.385
0.325
0.275
0.25
0.26
0.265
0.275
0.305
0.635
1.625
3.05
3.445
1.855
0.9
0.735
0.2
0.15
0.115
0.1
0.115
0.105
0.12
0.135
0.14
0.15
0.165
0.165
0.18
0.19
0.19
0.2
0.2
0.195
0.175
0.14
0.1
0.065
0.035
0.06
0.115
0.195
0.285
0.35
0.4
0.43
0.45
0.455
0.46
0.445
0.445
0.45
0.455
0.435
0.435
0.45
0.44
0.415
0.41
0.425
0.435
0.42
0.42
0.425
0.415
0.405
0.425
0.43
0.44
0.45
0.475
0.53
0.59
0.65
0.665
0.615
0.59
0.57
0.5
0.435
0.415
0.43
0.435
0.425
0.45
0.58
1.09
2.17
3.39
2.515
0.99
0.775
0.57
0.305
0.31
0.27
0.3
0.3
0.33
0.345
0.35
0.335
0.34
0.335
0.39
0.37
0.35
0.4
0.405
0.395
0.4
0.35
0.28
0.23
0.265
0.275
0.28
0.28
0.375
0.505
0.57
0.595
0.575
0.59
0.625
0.63
0.63
0.595
0.57
0.57
0.585
0.605
0.62
0.63
0.63
0.62
0.605
0.59
0.57
0.59
0.575
0.53
0.585
0.67
0.685
0.69
0.75
0.815
0.775
0.725
0.635
0.585
0.625
0.545
0.51
0.515
0.55
0.575
0.735
1.34
2.595
3.67
2.255
0.705
0.765
0.545
0.375
0.4
0.395
0.405
0.405
0.42
0.405
0.365
0.405
0.42
0.44
0.49
0.475
0.48
0.485
0.51
0.505
0.425
0.435
0.405
0.335
0.36
0.345
0.34
0.41
0.495
0.565
0.61
0.605
0.585
0.62
0.635
0.615
0.57
0.605
0.655
0.63
0.65
0.605
0.62
0.64
0.605
0.595
0.58
0.605
0.595
0.585
0.585
0.64
0.725
0.705
0.735
0.805
0.755
0.695
0.69
0.675
0.595
0.54
0.555
0.545
0.54
0.58
0.71
1.275
2.565
3.795
2.435
0.72
0.705
0.615
0.425
0.47
0.45
0.445
0.445
0.475
0.47
0.475
0.47
0.475
0.52
0.535
0.575
0.55
0.525
0.565
0.6
0.575
0.51
0.49
0.465
0.42
0.4
0.455
0.525
0.59
0.665
0.695
0.695
0.705
0.695
0.685
0.69
0.725
0.715
0.715
0.72
0.76
0.765
0.75
0.745
0.73
0.715
0.72
0.72
0.76
0.825
0.86
0.88
0.955
1.005
0.975
0.885
0.81
0.77
0.69
0.635
0.64
0.615
0.62
0.635
0.78
1.45
2.85
3.95
2.435
0.815
0.865
0.635
0.475
0.49
0.49
0.5
0.5
0.515
0.51
0.505
0.535
0.545
0.56
0.575
0.575
0.575
0.6
0.605
0.595
0.56
0.545
0.51
0.465
0.43
0.425
0.475
0.545
0.625
0.69
0.715
0.73
0.725
0.745
0.77
0.755
0.74
0.75
0.76
0.77
0.76
0.755
0.755
0.745
0.75
0.79
0.835
0.87
0.895
1.025
1.09
1.07
1.03
0.945
0.815
0.705
0.67
0.64
0.62
0.63
0.615
0.755
1.405
2.74
3.985
2.835
1.17
0.995
0.695
0.44
0.48
0.43
0.44
0.45
0.455
0.475
0.49
0.5
0.515
0.52
0.535
0.535
0.56
0.565
0.57
0.555
0.53
0.5
0.445
0.415
0.38
0.38
0.43
0.525
0.605
0.69
0.73
0.755
0.765
0.77
0.775
0.775
0.775
0.785
0.775
0.77
0.775
0.755
0.75
0.745
0.73
0.775
0.845
0.875
0.88
1.005
1.105
1.09
1.05
0.955
0.84
0.735
0.66
0.655
0.635
0.635
0.615
0.685
1.16
2.31
3.775
3.49
1.78
1.17
0.895
0.46
0.465
0.435
0.425
0.435
0.44
0.44
0.455
0.475
0.465
0.495
0.5
0.51
0.525
0.535
0.52
0.515
0.49
0.455
0.41
0.38
0.335
0.35
0.4
0.485
0.59
0.68
0.725
0.755
0.775
0.775
0.775
0.775
0.775
0.79
0.77
0.76
0.75
0.75
0.745
0.745
0.74
0.725
0.72
0.715
0.72
0.72
0.72
0.755
0.835
0.9
0.905
0.995
1.115
1.125
1.09
1.02
0.9
0.795
0.705
0.695
0.675
0.675
0.675
0.685
0.97
1.825
3.21
3.83
2.335
1.275
1.145
0.62
0.535
0.51
0.51
0.505
0.515
0.525
0.56
0.55
0.56
0.59
0.59
0.595
0.595
0.61
0.615
0.605
0.59
0.56
0.5
0.455
0.44
0.435
0.45
0.515
0.63
0.705
0.755
0.825
0.815
0.795
0.805
0.795
0.78
0.765
0.735
0.75
0.73
0.71
0.69
0.665
0.655
0.655
0.645
0.625
0.615
0.595
0.575
0.575
0.565
0.56
0.53
0.515
0.52
0.49
0.475
0.475
0.455
0.44
0.425
0.465
0.51
0.515
0.525
0.635
0.68
0.65
0.6
0.48
0.34
0.255
0.195
0.155
0.15
