signal
-0.075
-0.075
-0.085
-0.07
-0.075
-0.07
-0.08
-0.07
-0.085
-0.08
-0.085
-0.06
-0.025
0.035
0.075
0.125
0.15
0.18
0.125
0.05
-0.055
-0.11
-0.135
-0.145
-0.14
-0.14
-0.14
-0.13
-0.115
-0.145
0.02
0.595
1.275
0.575
-0.715
-0.93
-0.67
-0.37
-0.155
-0.095
-0.06
-0.04
-0.025
-0.01
0.005
0.01
0.025
0.045
0.065
0.09
0.12
0.135
0.17
0.22
0.26
0.315
0.35
0.38
0.415
0.445
0.45
0.445
0.395
0.335
0.235
0.165
0.095
0.025
-0.015
-0.025
-0.04
-0.045
-0.045
-0.045
-0.05
-0.04
-0.035
-0.02
-0.02
-0.02
-0.03
-0.03
-0.035
-0.04
-0.05
-0.055
-0.06
-0.06
-0.065
-0.06
-0.065
-0.07
-0.08
-0.07
-0.07
-0.075
-0.08
-0.075
-0.065
-0.03
0.01
0.05
0.11
0.15
0.17
0.145
0.065
-0.035
-0.1
-0.125
-0.15
-0.15
-0.15
-0.145
-0.125
-0.115
-0.145
-0.075
0.355
1.055
0.98
-0.26
-0.965
-0.77
-0.495
-0.195
-0.125
-0.065
-0.06
-0.03
-0.01
0.0
0.0
0.02
0.04
0.06
0.08
0.095
0.13
0.17
0.2
0.24
0.28
0.33
0.37
0.41
0.43
0.44
0.435
0.41
0.355
0.285
0.185
0.105
0.04
-0.01
-0.04
-0.055
-0.065
-0.065
-0.055
-0.055
-0.055
-0.05
-0.045
-0.035
-0.04
-0.035
-0.045
-0.05
-0.045
-0.045
-0.07
-0.075
-0.08
-0.09
-0.08
-0.075
-0.08
-0.085
-0.095
-0.095
-0.1
-0.1
-0.1
-0.08
-0.055
0.005
0.045
0.095
0.13
0.155
0.11
0.025
-0.065
-0.13
-0.165
-0.155
-0.16
-0.16
-0.165
-0.145
-0.135
-0.155
-0.01
0.555
1.235
0.61
-0.67
-0.94
-0.705
-0.395
-0.175
-0.105
-0.075
-0.05
-0.035
-0.03
-0.025
-0.005
0.015
0.025
0.04
0.07
0.09
0.12
0.15
0.2
0.235
0.295
0.35
0.395
0.42
0.435
0.435
0.435
0.39
0.335
0.245
0.16
0.07
-0.01
-0.04
-0.04
-0.055
-0.075
-0.06
-0.065
-0.065
-0.055
-0.085
-0.065
-0.06
-0.07
-0.075
-0.08
-0.075
-0.06
-0.045
-0.075
-0.105
-0.11
-0.1
-0.105
-0.085
-0.08
-0.1
-0.095
-0.075
-0.065
-0.06
-0.04
0.005
0.06
0.12
0.18
0.14
0.085
0.01
-0.1
-0.175
-0.17
-0.165
-0.17
-0.175
-0.16
-0.15
-0.155
-0.21
0.025
0.67
1.235
0.28
-0.79
-0.84
-0.69
-0.39
-0.18
-0.1
-0.075
-0.1
-0.1
-0.06
-0.045
-0.045
-0.025
-0.025
-0.015
0.015
0.045
0.055
0.085
0.135
0.195
0.245
0.295
0.31
0.34
0.385
0.4
0.345
0.3
0.24
0.11
0.02
-0.03
-0.09
-0.135
-0.135
-0.15
-0.155
-0.155
-0.165
-0.165
-0.165
-0.185
-0.205
-0.175
-0.17
-0.165
-0.205
-0.21
-0.17
-0.195
-0.205
-0.23
-0.23
-0.195
-0.215
-0.235
-0.225
-0.2
-0.21
-0.165
-0.165
-0.13
-0.04
0.035
0.025
-0.03
-0.1
-0.195
-0.26
-0.29
-0.295
-0.255
-0.29
-0.3
-0.27
-0.275
-0.315
-0.19
0.365
1.2
0.815
-0.475
-0.995
-0.89
-0.6
-0.345
-0.305
-0.24
-0.24
-0.22
-0.19
-0.16
-0.195
-0.19
-0.115
-0.105
-0.145
-0.125
-0.065
-0.01
0.02
0.07
0.095
0.185
0.26
0.25
0.245
0.31
0.27
0.21
0.155
0.04
-0.06
-0.13
-0.21
-0.21
-0.225
-0.255
-0.225
-0.225
-0.24
-0.24
-0.235
-0.26
-0.29
-0.255
-0.22
-0.24
-0.26
-0.225
-0.25
-0.295
-0.27
-0.24
-0.27
-0.255
-0.285
-0.28
-0.29
-0.265
-0.24
-0.225
-0.195
-0.11
-0.045
-0.04
-0.115
-0.17
-0.185
-0.285
-0.33
-0.35
-0.35
-0.315
-0.325
-0.34
-0.355
-0.335
-0.085
0.56
1.33
0.645
-0.81
-1.075
-0.9
-0.625
-0.335
-0.275
-0.305
-0.275
-0.23
-0.205
-0.205
-0.21
-0.21
-0.185
-0.15
-0.14
-0.115
-0.105
-0.04
0.01
0.055
0.1
0.165
0.285
0.315
0.325
0.35
0.27
0.185
0.085
-0.01
-0.145
-0.195
-0.22
-0.28
-0.285
-0.335
-0.34
-0.265
-0.26
-0.36
-0.335
-0.285
-0.3
-0.325
-0.325
-0.31
-0.32
-0.295
-0.32
-0.34
-0.325
-0.285
-0.28
-0.36
-0.31
-0.335
-0.325
-0.26
-0.245
-0.23
-0.145
-0.095
-0.08
-0.165
-0.225
-0.27
-0.33
-0.4
-0.4
-0.385
-0.385
-0.345
-0.34
-0.38
-0.335
0.055
0.825
1.25
-0.05
-1.255
-1.13
-0.84
-0.505
-0.355
-0.3
-0.29
-0.265
-0.24
-0.225
-0.195
-0.2
-0.205
-0.17
-0.13
-0.125
-0.09
-0.06
-0.04
0.07
0.135
0.19
0.28
0.33
0.345
0.405
0.4
0.335
0.225
0.09
-0.025
-0.105
-0.175
-0.23
-0.23
-0.255
-0.255
-0.255
-0.285
-0.31
-0.33
-0.305
-0.285
-0.265
-0.275
-0.28
-0.24
-0.26
-0.24
-0.255
-0.3
-0.27
-0.25
-0.25
-0.255
-0.275
-0.24
-0.2
-0.14
-0.11
-0.03
-0.025
-0.07
-0.11
-0.175
-0.275
-0.29
-0.325
-0.335
-0.325
-0.3
-0.295
-0.285
-0.255
0.05
0.735
1.415
0.39
-1.08
-1.16
-0.785
-0.44
-0.29
-0.215
-0.16
-0.15
-0.155
-0.135
-0.125
-0.125
-0.11
-0.075
-0.04
-0.04
-0.015
0.025
0.08
0.14
0.215
0.29
0.345
0.4
0.455
0.5
0.51
0.485
0.395
0.255
0.145
0.045
-0.04
-0.07
-0.085
-0.115
-0.115
-0.105
-0.125
-0.155
-0.15
-0.13
-0.13
-0.13
-0.13
-0.13
-0.125
-0.135
-0.12
-0.12
-0.125
-0.135
-0.145
-0.135
-0.12
-0.125
-0.095
-0.06
-0.03
-0.005
0.025
0.05
0.045
0.05
0.025
-0.05
-0.12
-0.18
-0.19
-0.175
-0.19
-0.185
-0.165
-0.17
-0.065
0.355
1.09
1.36
-0.005
-1.135
-0.875
-0.535
-0.23
-0.125
-0.075
-0.055
-0.04
-0.03
-0.02
0.005
-0.015
0.015
0.03
0.05
0.095
0.11
0.125
0.16
0.22
0.33
0.405
0.455
0.49
0.545
0.575
0.565
0.52
0.425
0.325
0.205
0.095
0.025
-0.005
-0.025
-0.045
-0.065
-0.055
-0.075
-0.07
-0.05
-0.06
-0.05
-0.06
-0.075
-0.05
-0.045
-0.07
-0.055
-0.035
-0.065
-0.06
-0.05
-0.065
-0.065
-0.08
-0.06
-0.035
0.01
0.055
0.09
0.105
0.08
0.09
0.105
0.055
-0.035
-0.09
-0.125
-0.125
-0.115
-0.115
-0.12
-0.095
-0.11
0.065
0.635
1.39
0.92
-0.51
-1.04
-0.69
-0.345
-0.12
-0.05
-0.015
-0.005
0.025
0.035
0.015
0.035
0.055
0.06
0.085
0.12
0.14
0.165
0.195
0.25
0.315
0.375
0.425
0.495
0.545
0.58
0.585
0.565
0.51
0.415
0.31
0.195
0.105
0.045
0.015
0.01
-0.005
-0.035
-0.025
-0.02
-0.025
-0.015
-0.01
-0.015
-0.015
-0.025
-0.015
-0.015
-0.02
-0.015
-0.02
-0.025
-0.025
-0.045
-0.015
-0.035
-0.03
-0.03
-0.035
-0.035
-0.02
-0.015
0.03
0.08
0.105
0.115
0.115
0.11
0.11
0.095
0.03
-0.045
-0.08
-0.095
-0.09
-0.095
-0.075
-0.07
-0.06
-0.06
0.155
0.78
1.515
0.72
-0.695
-0.915
-0.595
-0.255
-0.095
-0.03
0.01
0.03
0.05
0.045
0.065
0.08
0.07
0.1
0.125
0.155
0.175
0.19
0.225
0.27
0.34
0.385
0.435
0.49
0.54
0.57
0.6
0.55
0.51
0.415
0.325
0.235
0.14
0.055
0.035
0.03
0.03
0.01
0.005
0.005
0.01
0.01
0.015
0.01
0.02
0.025
0.02
0.01
0.005
-0.01
0.005
0.005
-0.01
-0.005
-0.01
-0.035
-0.015
-0.005
-0.005
-0.01
-0.025
-0.03
-0.01
-0.015
-0.03
-0.01
0.03
0.055
0.1
0.115
0.135
0.105
0.115
0.135
0.095
-0.015
-0.065
-0.085
-0.095
-0.1
-0.08
-0.08
-0.055
-0.065
0.0
0.385
1.11
1.355
0.09
-0.94
-0.745
-0.46
-0.135
-0.045
0.01
0.025
0.04
0.045
0.065
0.085
0.085
0.11
0.13
0.135
0.16
0.185
0.215
0.25
0.3
0.345
0.39
0.435
0.48
0.505
0.53
0.545
0.525
0.455
0.37
0.275
0.2
0.11
0.07
0.03
0.03
0.015
0.01
0.005
0.02
0.01
0.01
0.01
0.015
0.015
0.02
0.02
0.015
0.01
-0.005
-0.01
-0.005
-0.015
-0.015
-0.02
-0.025
-0.01
-0.02
-0.035
-0.03
-0.035
-0.02
-0.03
-0.025
-0.03
-0.025
-0.005
0.015
0.06
0.11
0.115
0.14
0.115
0.125
0.13
0.09
-0.01
-0.07
-0.095
-0.09
-0.08
-0.08
-0.08
-0.065
-0.07
-0.04
0.24
0.915
1.555
0.51
-0.795
-0.825
-0.555
-0.21
-0.055
-0.005
0.025
0.035
0.065
0.08
0.095
0.1
0.105
0.125
0.135
0.155
0.18
0.22
0.255
0.29
0.345
0.405
0.45
0.475
0.51
0.54
0.545
0.52
0.475
0.4
0.305
0.21
0.12
0.075
0.05
0.02
-0.01
-0.01
-0.005
0.005
0.005
0.01
0.005
0.015
0.02
0.025
0.015
0.02
0.01
-0.005
0.005
0.005
-0.025
-0.02
-0.025
-0.01
-0.015
-0.015
-0.025
-0.015
-0.02
-0.02
-0.02
-0.035
-0.03
-0.025
-0.025
-0.035
-0.03
-0.015
0.01
0.06
0.085
0.105
0.13
0.115
0.11
0.11
0.085
0.01
-0.065
-0.09
-0.09
-0.095
-0.08
-0.075
-0.06
-0.06
-0.055
0.13
0.75
1.51
0.775
-0.595
-0.875
-0.61
-0.29
-0.08
-0.03
0.015
0.04
0.06
0.05
0.07
0.08
0.095
0.125
0.135
0.15
0.165
0.195
0.235
0.275
0.31
0.36
0.42
0.46
0.49
0.52
0.535
0.53
0.495
0.41
0.31
0.23
0.145
0.085
0.055
0.02
0.01
0.01
0.0
-0.005
0.005
0.01
0.015
0.03
0.035
0.03
0.02
0.035
0.015
0.005
-0.005
-0.005
-0.015
-0.01
-0.005
-0.01
-0.01
-0.025
-0.035
-0.03
-0.015
-0.025
-0.03
-0.015
-0.035
-0.04
-0.025
-0.03
-0.025
-0.03
-0.02
-0.005
0.035
0.055
0.095
0.12
0.135
0.13
0.105
0.105
0.07
-0.025
-0.075
-0.08
-0.1
-0.1
-0.08
-0.065
-0.05
-0.06
-0.05
0.235
0.935
1.565
0.46
-0.83
-0.825
-0.555
-0.225
-0.08
-0.01
0.015
0.025
0.045
0.05
0.05
0.055
0.065
0.095
0.12
0.135
0.155
0.19
0.23
0.265
0.325
0.375
0.415
0.45
0.485
0.51
0.52
0.51
0.455
0.375
0.285
0.18
0.105
0.065
0.03
0.005
-0.015
-0.015
-0.025
-0.03
-0.02
-0.015
-0.015
-0.005
-0.005
0.005
0.0
0.005
-0.005
0.0
-0.01
-0.025
-0.04
-0.025
-0.035
-0.055
-0.05
-0.045
-0.06
-0.06
-0.055
-0.055
-0.06
-0.06
-0.07
-0.065
-0.055
-0.05
-0.065
-0.065
-0.06
-0.05
-0.065
-0.055
-0.045
-0.035
-0.015
0.04
0.08
0.085
0.1
0.085
0.08
0.1
0.03
-0.045
-0.11
-0.125
-0.1
-0.095
-0.1
-0.095
-0.085
-0.07
-0.05
0.24
0.935
1.58
0.475
-0.825
-0.815
-0.56
-0.235
-0.095
-0.045
-0.005
0.01
0.035
0.03
0.045
0.055
0.075
0.08
0.095
0.125
0.15
0.17
0.22
0.25
0.305
0.34
0.415
0.435
0.46
0.5
0.515
0.49
0.435
0.37
0.285
0.195
0.12
0.06
0.025
0.0
-0.005
-0.01
-0.005
-0.005
-0.005
-0.015
0.0
0.005
0.005
-0.005
0.01
0.005
0.015
0.01
-0.01
-0.025
-0.02
-0.02
-0.025
-0.04
-0.035
-0.05
-0.04
-0.035
-0.035
-0.04
-0.055
-0.04
-0.055
-0.05
-0.035
-0.045
-0.045
-0.05
-0.045
-0.055
-0.05
-0.045
-0.05
-0.04
-0.005
0.055
0.085
0.11
0.135
0.15
0.145
0.095
0.02
-0.055
-0.095
-0.1
-0.11
-0.105
-0.1
-0.095
-0.08
-0.07
-0.09
0.125
0.735
1.5
0.745
-0.635
-0.88
-0.645
-0.32
-0.135
-0.08
-0.035
-0.005
-0.01
0.0
0.015
0.03
0.05
0.055
0.08
0.085
0.1
0.145
0.18
0.225
0.255
0.295
0.35
0.385
0.43
0.46
0.47
0.465
0.43
0.345
0.255
0.165
0.09
0.03
-0.01
-0.03
-0.06
-0.065
-0.075
-0.08
-0.08
-0.07
-0.075
-0.065
-0.065
-0.065
-0.065
-0.055
-0.06
-0.065
-0.07
-0.08
-0.095
-0.08
-0.09
-0.08
-0.095
-0.095
-0.105
-0.11
-0.1
-0.11
-0.11
-0.105
-0.105
-0.095
-0.115
-0.11
-0.12
-0.11
-0.115
-0.115
-0.11
-0.11
-0.115
-0.105
-0.08
-0.04
0.01
0.05
0.08
0.08
0.1
0.055
-0.025
-0.11
-0.16
-0.175
-0.18
-0.19
-0.17
-0.17
-0.16
-0.135
-0.16
-0.05
0.445
1.2
1.09
-0.23
-0.975
-0.775
-0.515
-0.22
-0.15
-0.095
-0.08
-0.065
-0.065
-0.045
-0.04
-0.025
-0.02
0.005
0.02
0.045
0.075
0.11
0.14
0.175
0.23
0.29
0.335
0.37
0.395
0.425
0.415
0.38
0.335
0.25
0.155
0.075
0.01
-0.045
-0.08
-0.095
-0.105
-0.105
-0.105
-0.095
-0.105
-0.1
-0.095
-0.085
-0.08
-0.085
-0.095
-0.095
-0.09
-0.09
-0.09
-0.105
-0.105
-0.12
-0.13
-0.13
-0.135
-0.125
-0.13
-0.13
-0.13
-0.135
-0.13
-0.135
-0.135
-0.125
-0.135
-0.125
-0.135
-0.125
-0.125
-0.125
-0.125
-0.13
-0.15
-0.135
-0.08
-0.03
-0.01
0.04
0.08
0.1
0.075
0.01
-0.06
-0.13
-0.155
-0.18
-0.19
-0.195
-0.19
-0.18
-0.165
-0.175
-0.155
0.13
0.83
1.48
0.405
-0.875
-0.89
-0.67
-0.365
-0.205
-0.135
-0.11
-0.095
-0.08
-0.075
-0.07
-0.055
-0.035
-0.025
-0.005
0.01
0.03
0.06
0.1
0.13
0.185
0.25
0.295
0.335
0.36
0.385
0.41
0.405
0.355
0.275
0.185
0.095
0.025
-0.025
-0.07
-0.09
-0.115
-0.12
-0.135
-0.12
-0.12
-0.11
-0.1
-0.075
-0.07
-0.09
-0.09
-0.08
-0.08
-0.095
-0.1
-0.105
-0.11
-0.115
-0.125
-0.125
-0.115
-0.135
-0.12
-0.13
-0.125
-0.115
-0.12
-0.125
-0.135
-0.13
-0.115
-0.125
-0.135
-0.125
-0.125
-0.135
-0.135
-0.135
-0.125
-0.08
-0.035
0.025
0.085
0.11
0.135
0.095
0.015
-0.065
-0.145
-0.17
-0.165
-0.175
-0.175
-0.175
-0.165
-0.155
-0.16
-0.095
0.295
1.03
1.315
0.09
-0.925
-0.825
-0.57
-0.265
-0.165
-0.095
-0.075
-0.07
-0.06
-0.045
-0.035
-0.015
-0.005
0.01
0.025
0.045
0.07
0.105
0.145
0.19
0.24
0.295
0.33
0.375
0.415
0.435
0.445
0.415
0.355
0.28
0.185
0.09
0.035
-0.025
-0.06
-0.085
-0.09
-0.105
-0.105
-0.105
-0.09
-0.08
-0.09
-0.09
-0.08
-0.075
-0.075
-0.07
-0.075
-0.07
-0.08
-0.1
-0.1
-0.11
-0.115
-0.115
-0.11
-0.105
-0.115
-0.125
-0.115
-0.105
-0.11
-0.11
-0.11
-0.115
-0.105
-0.125
-0.12
-0.115
-0.115
-0.115
-0.11
-0.12
-0.105
-0.07
-0.035
0.015
0.06
0.115
0.145
0.135
0.08
0.005
-0.09
-0.135
-0.15
-0.135
-0.135
-0.155
-0.135
-0.115
-0.11
-0.13
0.035
0.625
1.375
0.86
-0.485
-0.895
-0.69
-0.415
-0.165
-0.1
-0.065
-0.045
-0.025
-0.015
-0.005
0.015
0.025
0.035
0.05
0.085
0.11
0.13
0.15
0.195
0.24
0.295
0.335
0.4
0.435
0.47
0.485
0.47
0.445
0.37
0.29
0.205
0.13
0.06
0.01
-0.025
-0.04
-0.05
-0.05
-0.05
-0.045
-0.05
-0.045
-0.04
-0.025
-0.025
-0.025
-0.035
-0.03
-0.03
-0.04
-0.045
-0.045
-0.05
-0.065
-0.065
-0.07
-0.075
-0.07
-0.075
-0.075
-0.075
-0.065
-0.07
-0.07
-0.065
-0.075
-0.09
-0.08
-0.08
-0.08
-0.08
-0.07
-0.07
-0.07
-0.065
-0.04
0.025
0.055
0.11
0.155
0.165
0.145
0.06
-0.02
-0.09
-0.125
-0.135
-0.13
-0.12
-0.13
-0.12
-0.1
-0.09
-0.075
0.195
0.87
1.55
0.53
-0.765
-0.825
-0.595
-0.29
-0.125
-0.055
-0.03
-0.02
-0.005
0.0
0.01
0.015
0.04
0.065
0.07
0.09
0.115
0.15
0.17
0.225
0.265
0.32
0.375
0.415
0.46
0.495
0.49
0.485
0.43
0.365
0.27
0.185
0.11
0.06
0.0
-0.025
-0.04
-0.03
-0.04
-0.05
-0.035
-0.02
-0.015
-0.015
-0.015
-0.005
-0.005
0.005
-0.005
-0.015
-0.02
-0.015
-0.02
-0.02
-0.025
-0.025
-0.04
-0.035
-0.04
-0.025
-0.04
-0.025
-0.035
-0.03
-0.045
-0.04
-0.045
-0.035
-0.035
-0.035
-0.04
-0.04
-0.035
-0.045
-0.045
-0.015
0.03
0.07
0.095
0.16
0.195
0.2
0.17
0.08
0.005
-0.065
-0.08
-0.08
-0.105
-0.095
-0.095
-0.09
-0.07
-0.07
-0.025
0.34
1.075
1.495
0.28
-0.835
-0.755
-0.52
-0.215
-0.095
-0.04
0.005
0.015
0.03
0.04
0.05
0.065
0.08
0.08
0.095
0.125
0.155
0.19
0.22
0.255
0.295
0.36
0.405
0.455
0.5
0.525
0.53
0.51
0.455
0.38
0.295
0.2
0.125
0.08
0.035
0.01
0.005
0.005
-0.015
-0.025
-0.005
-0.005
0.015
0.015
0.025
0.03
0.035
0.035
0.035
0.035
0.025
0.01
0.01
0.005
0.025
0.01
0.005
-0.015
-0.005
0.0
-0.005
-0.005
0.0
-0.015
-0.005
-0.015
-0.01
-0.015
-0.01
-0.01
-0.005
-0.01
-0.015
-0.01
0.005
0.035
0.08
0.105
0.165
0.21
0.24
0.205
0.13
0.04
-0.045
-0.06
-0.065
-0.06
-0.06
-0.075
-0.055
-0.045
-0.055
-0.02
0.295
0.995
1.585
0.45
-0.775
-0.745
-0.535
-0.22
-0.05
0.01
0.03
0.045
0.065
0.055
0.07
0.08
0.09
0.115
0.125
0.145
0.175
0.2
0.24
0.265
0.315
0.37
0.425
0.475
0.51
0.54
0.56
0.54
0.49
0.405
0.32
0.225
0.155
0.085
0.055
0.03
0.02
-0.005
-0.005
-0.01
0.005
0.01
0.02
0.01
0.035
0.03
0.025
0.025
0.035
0.04
0.03
0.035
0.015
0.0
0.005
0.0
0.005
0.005
-0.005
0.0
-0.005
-0.005
-0.005
-0.01
-0.02
-0.015
-0.02
-0.015
-0.015
-0.01
-0.01
-0.015
0.015
0.045
0.09
0.13
0.185
0.225
0.24
0.19
0.115
0.025
-0.03
-0.055
-0.06
-0.055
-0.05
-0.06
-0.04
-0.03
-0.06
0.035
0.48
1.215
1.295
0.035
-0.83
-0.685
-0.45
-0.15
-0.055
0.01
0.015
0.025
0.04
0.055
0.07
0.09
0.09
0.11
0.125
0.155
0.175
0.19
0.245
0.285
0.33
0.375
0.435
0.47
0.515
0.52
0.535
0.495
0.455
0.365
0.27
0.185
0.115
0.06
0.04
0.0
-0.005
-0.015
-0.02
-0.02
-0.015
-0.015
0.005
0.005
0.015
0.01
0.015
0.015
0.005
0.01
0.005
0.0
-0.01
-0.02
-0.02
-0.025
-0.03
-0.035
-0.025
-0.025
-0.035
-0.04
-0.03
-0.04
-0.035
-0.05
-0.045
-0.045
-0.035
-0.055
-0.05
-0.025
0.02
0.055
0.105
0.155
0.195
0.19
0.11
0.025
-0.045
-0.09
-0.12
-0.125
-0.115
-0.115
-0.105
-0.095
-0.085
-0.11
0.085
0.695
1.435
0.775
-0.58
-0.88
-0.66
-0.38
-0.145
-0.095
-0.065
-0.04
-0.025
-0.015
0.005
0.01
0.025
0.025
0.055
0.07
0.11
0.125
0.155
0.18
0.245
0.29
0.335
0.385
0.415
0.45
0.465
0.455
0.415
0.345
0.245
0.165
0.085
0.005
-0.035
-0.065
-0.075
-0.085
-0.105
-0.12
-0.115
-0.11
-0.105
-0.115
-0.11
-0.09
-0.09
-0.105
-0.12
-0.12
-0.11
-0.115
-0.125
-0.13
-0.125
-0.13
-0.145
-0.15
-0.155
-0.17
-0.16
-0.145
-0.155
-0.185
-0.2
-0.175
-0.175
-0.165
-0.15
-0.17
-0.155
-0.135
-0.075
-0.035
0.03
0.095
0.08
0.01
-0.06
-0.165
-0.215
-0.225
-0.225
-0.24
-0.24
-0.25
-0.235
-0.225
-0.27
-0.23
0.155
0.915
1.1
-0.02
-0.91
-0.89
-0.685
-0.365
-0.25
-0.19
-0.14
-0.13
-0.13
-0.115
-0.115
-0.105
-0.105
-0.115
-0.09
-0.03
-0.02
0.0
0.035
0.07
0.145
0.2
0.245
0.27
0.31
0.36
0.35
0.345
0.28
0.195
0.1
0.015
-0.075
-0.125
-0.165
-0.205
-0.195
-0.19
-0.205
-0.2
-0.21
-0.21
-0.195
-0.22
-0.23
-0.215
-0.225
-0.215
-0.23
-0.24
-0.235
-0.23
-0.23
-0.22
-0.23
-0.25
-0.26
-0.255
-0.24
-0.26
-0.265
-0.255
-0.24
-0.28
-0.28
-0.235
-0.175
-0.125
-0.05
-0.015
-0.06
-0.095
-0.165
-0.265
-0.305
-0.31
-0.345
-0.33
-0.305
-0.315
-0.325
-0.295
-0.37
-0.25
0.32
1.185
1.04
-0.225
-0.935
-0.93
-0.705
-0.415
-0.305
-0.25
-0.23
-0.225
-0.225
-0.215
-0.195
-0.19
-0.18
-0.19
-0.165
-0.145
-0.08
-0.04
-0.035
0.005
0.08
0.15
0.215
0.25
0.27
0.3
0.285
0.265
0.2
0.085
-0.035
-0.105
-0.17
-0.205
-0.225
-0.26
-0.235
-0.255
-0.275
-0.25
-0.255
-0.245
-0.235
-0.23
-0.255
-0.26
-0.25
-0.245
-0.215
-0.205
-0.23
-0.245
-0.225
-0.17
-0.135
-0.06
0.095
0.475
1.105
1.91
2.575
3.025
3.475
3.805
3.995
4.205
4.005
2.955
1.575
0.335
-0.39
-0.635
-0.815
-0.95
-1.015
-1.09
-1.14
-1.22
-1.33
-1.445
-1.59
-1.745
-1.915
-2.05
-2.18
-2.305
-2.395
-2.415
-2.39
-2.28
-2.12
-1.9
-1.645
-1.345
-1.07
-0.84
-0.62
-0.45
-0.365
-0.315
-0.285
-0.24
-0.235
-0.225
-0.225
-0.195
-0.2
-0.18
-0.165
-0.155
-0.155
-0.14
-0.12
-0.11
-0.11
-0.105
-0.095
-0.095
-0.08
-0.075
-0.08
-0.08
-0.075
-0.07
-0.045
-0.05
-0.06
-0.065
-0.065
-0.045
-0.05
-0.04
-0.03
-0.035
-0.05
-0.035
-0.02
-0.005
-0.015
-0.025
-0.025
-0.01
-0.01
-0.015
-0.01
-0.005
-0.005
-0.02
-0.02
-0.005
-0.005
0.005
0.005
0.0
0.035
0.085
0.135
0.205
0.245
0.245
0.2
0.16
0.09
0.015
-0.01
-0.025
-0.03
-0.015
-0.015
0.01
0.005
0.08
0.51
1.305
1.845
0.625
-0.675
-0.645
-0.435
-0.125
-0.03
0.045
0.06
0.085
0.085
0.105
0.105
0.125
0.13
0.16
0.165
0.19
0.225
0.26
0.27
0.315
0.38
0.445
0.495
0.555
0.605
0.645
0.68
0.685
0.65
0.585
0.49
0.4
0.31
0.23
0.185
0.135
0.11
0.095
0.09
0.095
0.095
0.08
0.08
0.09
0.09
0.105
0.105
0.12
0.115
0.1
0.105
0.09
0.085
0.09
0.085
0.08
0.08
0.08
0.055
0.065
0.065
0.065
0.05
0.045
0.085
0.14
0.165
0.215
0.245
0.265
0.235
0.185
0.115
0.035
-0.015
-0.005
-0.025
-0.005
-0.01
-0.005
0.005
-0.005
0.13
0.645
1.435
1.525
0.09
-0.905
-0.63
-0.33
-0.06
0.04
0.085
0.08
0.09
0.11
0.115
0.135
0.155
0.17
0.18
0.215
0.24
0.26
0.3
0.35
0.4
0.46
0.515
0.585
0.64
0.695
0.705
0.72
0.665
0.575
0.46
0.355
0.265
0.185
0.135
0.11
0.085
0.065
0.055
0.055
0.045
0.055
0.055
0.065
0.08
0.08
0.08
0.075
0.085
0.08
0.08
0.08
0.07
0.075
0.08
0.08
0.08
0.055
0.055
0.065
0.06
0.05
0.055
0.06
0.05
0.05
0.055
0.05
0.085
0.155
0.17
0.21
0.24
0.26
0.245
0.195
0.11
0.03
-0.01
-0.005
-0.015
-0.005
-0.005
0.01
0.025
0.025
0.09
0.51
1.265
1.66
0.275
-0.92
-0.665
-0.34
-0.07
0.02
0.07
0.095
0.095
0.115
0.14
0.135
0.145
0.16
0.17
0.205
0.23
0.255
0.29
0.325
0.36
0.42
0.48
0.555
0.6
0.65
0.695
0.685
0.655
0.605
0.505
0.395
0.285
0.2
0.145
0.115
0.085
0.07
0.065
0.05
0.045
0.05
0.055
0.055
0.06
0.05
0.055
0.065
0.065
0.07
0.06
0.06
0.05
0.045
0.045
0.04
0.04
0.035
0.03
0.015
0.025
0.015
0.02
0.015
0.015
0.015
0.005
0.01
0.025
0.05
0.095
0.125
0.17
0.205
0.215
0.2
0.165
0.085
0.005
-0.035
-0.06
-0.055
-0.06
-0.065
-0.075
-0.045
-0.025
-0.025
0.18
0.795
1.53
0.785
-0.615
-0.88
-0.615
-0.28
-0.08
-0.03
0.005
0.025
0.045
0.045
0.045
0.075
0.075
0.09
0.115
0.145
0.17
0.195
0.215
0.25
0.295
0.365
0.435
0.495
0.535
0.57
0.575
0.575
0.555
0.46
0.36
0.255
0.155
0.085
0.035
0.005
-0.005
-0.02
-0.05
-0.06
-0.05
-0.06
-0.055
-0.04
-0.04
-0.045
-0.05
-0.035
-0.035
-0.05
-0.045
-0.045
-0.06
-0.07
-0.07
-0.08
-0.07
-0.07
-0.075
-0.06
-0.075
-0.065
-0.075
-0.095
-0.09
-0.08
-0.03
0.01
0.025
0.08
0.15
0.165
0.125
0.055
-0.025
-0.1
-0.125
-0.135
-0.145
-0.155
-0.155
-0.15
-0.14
-0.135
-0.165
0.05
0.7
1.435
0.575
-0.67
-0.81
-0.655
-0.365
-0.155
-0.105
-0.065
-0.06
-0.045
-0.02
-0.005
-0.005
0.01
0.015
0.04
0.06
0.08
0.105
0.145
0.175
0.245
0.295
0.35
0.405
0.45
0.47
0.49
0.485
0.435
0.355
0.255
0.155
0.075
0.005
-0.02
-0.05
-0.075
-0.085
-0.08
-0.08
-0.065
-0.065
-0.085
-0.075
-0.06
-0.075
-0.055
-0.055
-0.06
-0.08
-0.09
-0.08
-0.095
-0.1
-0.095
-0.1
-0.105
-0.105
-0.105
-0.115
-0.125
-0.125
-0.115
-0.115
-0.105
-0.09
-0.07
-0.005
0.035
0.09
0.115
0.115
0.08
0.005
-0.07
-0.13
-0.155
-0.17
-0.185
-0.18
-0.165
-0.135
-0.14
-0.15
-0.02
0.505
1.29
1.23
-0.145
-0.975
-0.765
-0.49
-0.21
-0.145
-0.08
-0.08
-0.055
-0.035
-0.03
-0.005
0.005
0.01
0.03
0.035
0.08
0.105
0.135
0.175
0.23
0.275
0.35
0.405
0.475
0.495
0.525
0.53
0.49
0.41
0.31
0.195
0.1
0.015
-0.03
-0.06
-0.07
-0.085
-0.11
-0.12
-0.125
-0.125
-0.105
-0.105
-0.1
-0.1
-0.1
-0.1
-0.095
-0.085
-0.075
-0.08
-0.095
-0.1
-0.095
-0.105
-0.115
-0.12
-0.115
-0.125
-0.125
-0.12
-0.11
-0.12
-0.115
-0.11
-0.12
-0.125
-0.09
-0.06
-0.015
0.015
0.055
0.095
0.115
0.09
0.035
-0.045
-0.11
-0.165
-0.17
-0.175
-0.155
-0.16
-0.145
-0.135
-0.135
-0.1
0.235
0.975
1.59
0.395
-0.92
-0.875
-0.575
-0.265
-0.145
-0.1
-0.075
-0.07
-0.05
-0.035
-0.02
-0.025
-0.005
0.01
0.05
0.08
0.09
0.115
0.16
0.2
0.26
0.325
0.4
0.455
0.515
0.545
0.555
0.545
0.475
0.375
0.275
0.175
0.08
0.025
-0.025
-0.055
-0.075
-0.085
-0.09
-0.095
-0.1
-0.105
-0.095
-0.1
-0.095
-0.08
-0.065
-0.075
-0.075
-0.08
-0.075
-0.075
-0.08
-0.08
-0.08
-0.105
-0.105
-0.095
-0.095
-0.1
-0.09
-0.085
-0.09
-0.1
-0.105
-0.11
-0.095
-0.1
-0.08
-0.1
-0.06
-0.01
0.02
0.065
0.115
0.14
0.115
0.045
-0.02
-0.1
-0.145
-0.145
-0.165
-0.16
-0.14
-0.145
-0.135
-0.135
-0.09
0.2
0.89
1.565
0.495
-0.865
-0.89
-0.615
-0.275
-0.145
-0.08
-0.065
-0.055
-0.04
-0.02
0.0
0.01
0.01
0.03
0.045
0.07
0.1
0.135
0.16
0.215
0.26
0.33
0.385
0.45
0.495
0.53
0.555
0.54
0.485
0.405
0.29
0.185
0.09
0.025
-0.02
-0.035
-0.06
-0.06
-0.075
-0.085
-0.095
-0.09
-0.095
-0.075
-0.065
-0.06
-0.065
-0.06
-0.06
-0.06
-0.055
-0.065
-0.08
-0.08
-0.08
-0.095
-0.095
-0.08
-0.095
-0.095
-0.095
-0.095
-0.095
-0.085
-0.08
-0.09
-0.105
-0.105
-0.11
-0.1
-0.07
-0.03
0.02
0.065
0.1
0.125
0.115
0.075
-0.015
-0.1
-0.13
-0.135
-0.165
-0.155
-0.165
-0.15
-0.145
-0.125
-0.135
0.08
0.695
1.46
0.74
-0.665
-0.95
-0.69
-0.385
-0.175
-0.115
-0.08
-0.06
-0.035
-0.03
-0.025
-0.025
-0.01
0.005
0.025
0.045
0.085
0.105
0.145
0.175
0.23
0.275
0.34
0.405
0.435
0.475
0.5
0.505
0.47
0.385
0.275
0.175
0.08
0.005
-0.045
-0.08
-0.095
-0.105
-0.12
-0.125
-0.115
-0.13
-0.135
-0.13
-0.125
-0.115
-0.105
-0.105
-0.1
-0.12
-0.125
-0.13
-0.135
-0.125
-0.125
-0.14
-0.145
-0.135
-0.135
-0.135
-0.125
-0.125
-0.135
-0.145
-0.14
-0.125
-0.135
-0.135
-0.135
-0.12
-0.08
-0.04
-0.005
0.045
0.08
0.09
0.065
0.015
-0.07
-0.15
-0.19
-0.2
-0.195
-0.2
-0.2
-0.19
-0.175
-0.175
-0.165
0.085
0.74
1.46
0.51
-0.85
-0.935
-0.675
-0.365
-0.2
-0.135
-0.11
-0.08
-0.07
-0.07
-0.055
-0.05
-0.04
-0.015
-0.005
0.03
0.055
0.085
0.13
0.155
0.215
0.275
0.33
0.38
0.435
0.48
0.475
0.48
0.43
0.35
0.25
0.15
0.06
-0.02
-0.06
-0.09
-0.12
-0.125
-0.125
-0.135
-0.12
-0.125
-0.11
-0.105
-0.1
-0.095
-0.09
-0.095
-0.1
-0.095
-0.115
-0.095
-0.11
-0.125
-0.125
-0.14
-0.135
-0.145
-0.14
-0.14
-0.145
-0.14
-0.145
-0.14
-0.135
-0.13
-0.135
-0.145
-0.145
-0.125
-0.11
-0.06
-0.025
0.02
0.06
0.09
0.09
0.045
-0.045
-0.115
-0.18
-0.2
-0.19
-0.205
-0.205
-0.19
-0.185
-0.18
-0.205
-0.07
0.42
1.185
0.995
-0.325
-1.01
-0.79
-0.51
-0.24
-0.165
-0.115
-0.105
-0.09
-0.075
-0.06
-0.06
-0.045
-0.035
-0.03
-0.005
0.035
0.055
0.095
0.125
0.175
0.215
0.275
0.345
0.385
0.43
0.46
0.455
0.435
0.375
0.285
0.175
0.09
0.005
-0.045
-0.08
-0.115
-0.125
-0.125
-0.14
-0.135
-0.135
-0.125
-0.125
-0.115
-0.105
-0.095
-0.095
-0.1
-0.105
-0.1
-0.105
-0.115
-0.135
-0.13
-0.14
-0.135
-0.14
-0.155
-0.145
-0.145
-0.155
-0.14
-0.145
-0.15
-0.15
-0.15
-0.14
-0.155
-0.12
-0.075
-0.03
0.035
0.07
0.085
0.095
0.045
-0.06
-0.13
-0.18
-0.195
-0.195
-0.19
-0.185
-0.185
-0.175
-0.165
-0.18
0.02
0.61
1.36
0.715
-0.645
-0.955
-0.72
-0.445
-0.2
-0.13
-0.085
-0.075
-0.065
-0.06
-0.05
-0.045
-0.03
-0.025
0.005
0.03
0.055
0.07
0.115
0.16
0.215
0.25
0.31
0.35
0.41
0.455
0.485
0.485
0.445
0.37
0.28
0.17
0.08
0.015
-0.04
-0.07
-0.075
-0.08
-0.11
-0.12
-0.11
-0.1
-0.095
-0.105
-0.08
-0.08
-0.075
-0.075
-0.065
-0.085
-0.08
-0.09
-0.11
-0.1
-0.1
-0.115
-0.1
-0.135
-0.115
-0.12
-0.125
-0.13
-0.125
-0.12
-0.125
-0.165
-0.125
-0.055
-0.05
0.0
0.055
0.08
0.11
0.11
0.055
-0.035
-0.095
-0.15
-0.19
-0.18
-0.21
-0.21
-0.17
-0.16
-0.135
-0.19
0.035
0.725
1.42
0.525
-0.77
-0.92
-0.685
-0.375
-0.17
-0.115
-0.12
-0.09
-0.05
-0.04
-0.035
-0.055
-0.03
-0.015
0.015
0.025
0.06
0.1
0.1
0.12
0.165
0.275
0.365
0.41
0.505
0.475
0.465
0.515
0.435
0.28
0.215
0.13
-0.005
-0.055
-0.135
-0.185
-0.165
-0.17
-0.19
-0.205
-0.12
-0.14
-0.21
-0.23
-0.185
-0.135
-0.13
-0.105
-0.125
-0.165
-0.17
-0.19
-0.185
-0.21
-0.185
-0.24
-0.265
-0.23
-0.26
-0.29
-0.175
-0.205
-0.35
-0.27
-0.11
-0.08
0.005
0.055
-0.04
-0.185
-0.185
-0.215
-0.265
-0.21
-0.265
-0.385
-0.4
-0.285
-0.155
-0.025
0.175
0.585
1.24
1.835
0.97
-0.335
-0.58
-0.435
-0.14
-0.035
0.285
0.69
0.955
0.72
0.18
-0.055
-0.075
-0.1
0.005
-0.02
-0.06
0.02
0.015
0.03
0.15
0.205
0.195
0.275
0.465
0.465
0.36
0.36
0.375
0.35
0.25
0.175
0.12
-0.015
-0.145
-0.175
-0.165
-0.205
-0.255
-0.29
-0.265
-0.215
-0.145
-0.195
-0.195
-0.075
0.06
-0.055
-0.24
-0.215
-0.18
-0.21
-0.165
-0.095
-0.115
-0.13
-0.105
-0.125
-0.11
-0.105
-0.065
-0.025
-0.075
-0.17
-0.055
0.025
-0.12
-0.205
-0.23
-0.28
-0.305
-0.29
-0.33
-0.38
-0.31
-0.315
-0.325
-0.28
-0.24
0.175
1.035
1.48
0.21
-0.965
-0.995
-0.865
-0.455
-0.32
-0.295
-0.2
-0.185
-0.245
-0.2
-0.175
-0.15
-0.11
-0.08
-0.09
-0.085
-0.045
-0.015
0.0
0.035
0.115
0.195
0.285
0.365
0.315
0.345
0.405
0.415
0.315
0.155
0.13
0.095
-0.015
-0.09
-0.145
-0.195
-0.215
-0.165
-0.2
-0.2
-0.075
-0.125
-0.18
-0.155
-0.155
-0.165
-0.155
-0.115
-0.09
-0.09
-0.08
-0.02
-0.08
-0.11
-0.125
-0.04
0.025
-0.035
0.015
0.085
0.19
0.29
0.275
0.225
0.06
-0.04
-0.105
-0.14
-0.11
-0.22
-0.365
-0.31
-0.26
-0.265
-0.18
0.315
1.125
1.455
0.175
-0.97
-0.69
-0.21
0.05
-0.005
-0.08
-0.185
-0.185
-0.12
-0.14
-0.145
-0.09
-0.105
-0.145
-0.125
-0.06
-0.08
-0.08
-0.065
0.08
0.105
0.045
0.14
0.25
0.3
0.285
0.275
0.205
0.15
0.115
0.015
-0.255
-0.375
-0.325
-0.225
-0.225
-0.225
-0.185
-0.22
-0.22
-0.215
-0.13
-0.12
-0.17
-0.14
-0.17
-0.165
-0.165
-0.13
-0.165
-0.205
-0.18
-0.23
-0.15
-0.015
-0.185
-0.205
-0.15
-0.13
-0.055
0.03
-0.01
0.075
0.18
0.165
0.025
-0.095
-0.205
-0.3
-0.225
-0.275
-0.275
-0.29
-0.315
-0.21
-0.04
0.08
0.45
1.185
1.445
0.05
-0.765
-0.48
-0.325
0.065
0.14
0.145
0.185
0.23
0.47
0.52
0.41
0.385
0.36
0.235
0.105
0.205
0.355
0.515
0.63
0.605
0.64
0.715
0.645
0.56
0.495
0.63
0.74
0.655
0.57
0.605
0.675
0.635
0.515
0.42
0.345
0.325
0.31
0.255
0.135
0.15
0.165
0.2
0.2
0.13
0.09
0.095
0.055
-0.025
0.04
0.04
0.045
0.08
0.005
-0.04
-0.055
-0.04
-0.02
-0.015
0.01
0.095
0.09
0.075
0.125
0.195
0.165
0.025
-0.045
-0.13
-0.11
-0.07
-0.105
-0.125
-0.095
-0.105
-0.22
-0.17
0.4
1.185
1.035
-0.4
-1.085
-0.66
-0.34
-0.205
-0.155
-0.07
-0.025
0.005
-0.05
-0.02
0.035
0.005
-0.02
-0.045
-0.065
0.005
0.05
0.085
0.29
0.38
0.355
0.46
0.43
0.44
0.705
0.815
0.645
0.495
0.425
0.38
0.235
0.05
-0.09
-0.275
-0.285
-0.165
-0.16
-0.1
-0.125
-0.205
-0.22
-0.28
-0.23
-0.075
-0.135
-0.235
-0.235
-0.18
-0.195
-0.255
-0.175
-0.115
-0.065
-0.125
-0.24
-0.275
-0.265
-0.18
-0.055
0.055
0.055
-0.065
0.09
-0.015
-0.185
-0.14
-0.285
-0.275
-0.335
-0.365
-0.235
-0.275
-0.315
-0.3
-0.18
0.34
1.11
0.77
-0.52
-1.1
-0.915
-0.55
-0.29
-0.28
-0.23
-0.235
-0.24
-0.21
-0.235
-0.185
-0.005
0.035
-0.03
0.025
-0.005
-0.1
-0.03
-0.02
0.08
0.085
0.035
0.18
0.255
0.27
0.2
0.28
0.37
0.315
0.26
0.07
-0.21
-0.05
0.085
-0.165
-0.255
-0.3
-0.17
0.09
0.025
-0.21
-0.36
-0.3
0.0
-0.155
-0.315
-0.195
-0.17
-0.225
-0.63
-0.3
0.11
-0.09
-0.14
-0.24
-0.34
-0.04
0.24
-0.01
0.41
0.71
0.26
0.245
0.15
-0.12
-0.65
-0.65
0.115
0.1
-0.17
-0.17
0.015
0.155
0.075
0.425
1.13
-0.105
-1.51
-1.57
-0.98
-0.405
-0.525
-0.13
0.225
-0.055
-0.655
-0.78
-0.225
-0.06
-0.39
-0.18
0.375
0.06
-0.135
0.155
0.08
-0.23
-0.115
-0.14
-0.085
0.295
0.105
-0.035
-0.035
-0.015
0.125
0.515
0.505
0.195
-0.045
-0.145
-0.325
-0.595
-0.015
-0.055
-0.42
-0.25
-0.415
-0.485
-0.28
-0.71
-0.845
-0.04
-0.08
-0.425
-0.175
0.105
-0.165
-0.695
-0.255
-0.04
-0.33
-0.4
0.05
0.28
0.05
0.365
0.3
-0.245
-0.125
-0.225
0.125
0.47
-0.16
-0.255
0.025
-0.21
-0.505
-0.015
0.325
0.685
1.155
0.585
-0.455
-0.85
-0.71
-0.265
0.0
0.045
0.145
0.315
0.645
0.29
0.135
0.475
0.275
0.2
0.41
0.295
0.275
0.385
0.425
0.555
0.585
0.565
0.37
0.28
0.475
0.66
0.74
0.775
0.785
0.745
0.65
0.745
0.685
0.57
0.485
0.495
0.47
0.63
0.67
0.45
0.45
0.21
0.34
0.51
0.365
0.28
0.3
0.575
0.44
0.365
0.495
0.4
0.275
0.37
0.425
0.295
0.575
0.575
0.435
0.61
0.615
0.33
0.185
0.395
0.35
0.315
0.405
0.405
0.345
0.315
0.74
0.92
0.765
1.59
1.425
-0.065
-0.555
-0.125
0.13
0.505
0.63
0.44
0.545
0.69
0.525
0.475
0.67
0.665
0.435
0.495
0.75
0.725
0.585
0.57
0.685
0.595
0.595
0.595
0.505
0.585
0.61
0.47
0.275
0.275
0.2
0.345
0.57
0.43
0.56
0.635
0.675
0.635
0.5
0.6
0.695
0.595
0.515
0.45
0.41
0.495
0.495
0.42
0.485
0.495
0.545
0.585
0.515
0.355
0.415
0.615
0.695
0.64
0.51
0.52
0.51
0.36
0.385
0.42
0.4
0.36
0.34
0.39
0.365
0.425
0.325
0.4
1.095
1.735
0.92
-0.37
-0.585
-0.315
0.075
0.33
0.29
0.365
0.42
0.37
0.365
0.41
0.36
0.405
0.505
0.49
0.585
0.57
0.495
0.53
0.605
0.565
0.585
0.66
0.705
0.84
0.855
0.815
0.785
0.765
0.75
0.825
0.63
0.395
0.485
0.465
0.325
0.28
0.375
0.25
0.2
0.33
0.2
0.17
0.245
0.21
0.15
0.14
0.22
0.275
0.2
0.16
0.065
0.115
0.245
0.195
0.25
0.365
0.385
0.26
0.255
0.215
0.005
0.105
0.045
-0.005
0.14
0.03
0.06
0.035
0.15
0.94
1.3
0.005
-0.85
-0.67
-0.295
-0.125
-0.23
0.015
0.22
0.08
0.04
0.015
-0.11
0.255
0.41
0.035
0.245
0.355
0.135
0.27
0.49
0.44
0.415
0.535
0.565
0.68
0.72
0.685
0.8
0.9
0.655
0.6
0.53
0.215
0.205
0.1
-0.08
-0.105
-0.025
0.075
-0.04
-0.065
0.08
-0.095
-0.03
0.095
0.015
0.155
0.21
0.135
0.18
0.26
0.29
0.33
0.255
0.305
0.305
0.305
0.33
0.31
0.205
0.075
0.125
-0.015
-0.025
0.165
0.245
0.22
0.27
0.605
1.225
1.445
0.11
-0.9
-0.5
-0.165
0.145
0.225
0.285
0.31
0.2
0.205
0.295
0.21
0.205
0.395
0.395
0.405
0.36
0.355
0.52
0.48
0.635
0.775
0.645
0.715
0.78
0.675
0.64
0.675
0.74
0.745
0.585
0.405
0.31
0.185
0.1
0.005
0.07
0.09
-0.08
-0.125
-0.025
-0.015
-0.035
-0.015
-0.06
-0.145
-0.115
-0.025
0.08
0.085
0.055
-0.085
-0.09
-0.005
0.015
-0.005
0.015
0.035
-0.05
-0.265
-0.255
-0.14
-0.15
-0.225
-0.235
-0.215
-0.17
0.255
0.9
0.75
-0.545
-1.325
-1.0
-0.485
-0.17
-0.23
-0.195
-0.15
-0.035
0.07
0.035
0.015
0.085
0.105
0.12
0.26
0.355
0.25
0.27
0.28
0.27
0.34
0.355
0.355
0.445
0.55
0.53
0.485
0.54
0.54
0.41
0.35
0.28
0.165
0.045
-0.06
-0.095
-0.085
-0.005
-0.05
-0.05
0.045
0.015
-0.12
-0.18
-0.23
-0.08
0.105
-0.04
-0.04
0.07
0.065
0.12
0.075
0.11
0.105
-0.055
-0.14
-0.3
-0.18
0.005
-0.14
-0.16
-0.08
-0.035
-0.095
0.205
0.73
0.94
-0.095
-1.005
-0.865
-0.66
-0.43
-0.34
-0.265
-0.215
-0.2
-0.15
-0.16
-0.185
-0.26
-0.285
-0.135
-0.03
-0.03
-0.075
-0.19
-0.145
0.035
0.135
0.215
0.225
0.245
0.29
0.125
0.365
0.735
0.49
0.34
0.455
0.545
0.415
0.05
-0.065
-0.075
-0.12
-0.14
-0.015
-0.01
-0.205
-0.15
0.025
-0.105
-0.275
-0.115
-0.105
-0.13
-0.02
-0.015
-0.03
0.035
0.115
-0.115
-0.26
-0.185
-0.16
-0.22
-0.35
-0.4
-0.285
-0.19
-0.135
-0.27
-0.15
0.62
1.235
0.295
-0.755
-0.855
-0.92
-0.645
-0.315
-0.185
-0.345
-0.3
-0.075
-0.07
-0.135
-0.3
-0.195
-0.11
-0.135
-0.065
-0.03
-0.02
-0.025
-0.03
-0.005
0.045
0.135
0.185
0.185
0.18
0.265
0.285
0.22
0.215
0.065
-0.035
-0.01
-0.13
-0.26
-0.21
-0.18
-0.2
-0.205
-0.23
-0.2
-0.155
-0.19
-0.22
-0.235
-0.245
-0.165
-0.14
-0.135
-0.055
-0.045
-0.025
0.05
0.035
-0.04
-0.205
-0.305
-0.28
-0.335
-0.325
-0.18
-0.18
-0.305
-0.08
0.635
1.43
0.53
-0.765
-0.88
-0.75
-0.435
-0.235
-0.235
-0.21
-0.17
-0.13
-0.045
-0.06
-0.07
0.07
0.02
-0.125
-0.005
0.095
0.125
0.135
0.2
0.19
0.15
0.29
0.47
0.65
0.765
0.58
0.47
0.47
0.315
0.215
0.09
-0.195
-0.14
0.225
0.34
0.225
0.145
0.155
0.185
0.29
0.18
0.06
0.045
0.025
0.07
0.065
0.045
0.065
-0.14
-0.09
0.015
-0.005
0.085
0.035
-0.055
0.005
-0.05
-0.135
-0.155
-0.195
-0.155
-0.1
0.3
1.125
1.455
0.1
-1.05
-0.995
-0.72
-0.42
-0.4
-0.39
-0.44
-0.345
-0.29
-0.305
-0.34
-0.42
-0.22
0.045
0.0
0.06
0.185
0.115
0.155
0.22
0.31
0.245
0.195
0.215
0.275
0.31
0.24
0.14
-0.12
-0.23
-0.195
-0.215
-0.12
-0.045
-0.065
-0.065
-0.29
-0.285
-0.175
-0.245
-0.225
-0.23
-0.29
-0.18
-0.15
-0.315
-0.145
-0.1
-0.14
-0.045
-0.08
-0.02
0.165
0.015
-0.05
-0.015
-0.035
0.225
0.43
0.445
0.52
0.65
0.88
1.315
2.095
2.21
0.77
-0.31
0.035
0.325
0.465
0.365
0.215
0.05
-0.18
-0.15
-0.07
-0.055
0.105
-0.1
-0.23
-0.045
0.245
0.16
0.12
0.34
0.575
0.83
0.855
1.105
1.24
1.335
1.595
1.555
1.25
0.99
1.275
1.55
1.315
1.09
0.775
-0.015
0.185
0.78
0.655
0.655
0.21
-0.005
0.2
0.015
-0.37
-0.49
-0.275
-0.695
-1.175
-0.875
-1.115
-0.695
-0.33
-0.785
-0.745
-0.685
-0.59
-0.75
-0.56
-0.085
-0.355
-0.56
-0.43
-0.43
-0.185
0.5
1.25
1.095
-0.055
0.24
1.115
0.93
1.41
2.15
2.365
1.755
0.895
0.445
0.18
0.415
0.615
0.705
0.825
0.88
0.9
0.91
1.155
1.275
1.155
1.15
1.13
1.055
1.055
1.045
0.995
1.025
0.945
0.77
0.59
0.385
0.28
0.095
0.155
0.335
0.115
0.05
0.075
0.05
0.115
0.105
-0.055
-0.2
-0.13
-0.03
-0.085
-0.15
-0.24
-0.35
-0.315
-0.285
-0.065
0.04
-0.015
0.065
-0.04
-0.06
-0.165
-0.22
-0.185
-0.185
-0.175
-0.22
-0.18
0.315
0.93
1.095
-0.04
-0.895
-0.555
-0.115
0.325
0.5
0.535
0.505
0.38
0.3
0.235
0.175
0.13
0.07
0.22
0.24
0.4
0.69
0.92
1.16
1.33
1.405
1.435
1.49
1.64
1.91
2.225
2.255
2.265
2.29
2.375
2.355
2.355
2.36
2.265
2.445
2.685
2.85
2.975
3.07
3.155
3.365
3.54
3.89
4.335
4.425
4.53
4.715
4.96
5.075
5.095
5.36
5.53
5.43
5.435
5.57
5.695
5.735
5.685
5.685
5.75
5.755
5.85
6.025
6.17
6.19
6.35
6.865
7.565
7.15
5.965
5.74
6.0
6.4
6.64
6.715
7.085
7.355
7.27
7.225
7.335
7.35
7.36
7.54
7.675
7.645
7.725
7.815
7.785
7.875
7.965
8.035
8.055
8.03
8.17
8.275
8.325
8.26
8.21
8.225
8.21
8.085
7.945
7.92
7.965
7.975
7.985
7.895
7.94
7.96
7.995
8.02
8.04
8.045
7.945
7.915
7.915
8.045
8.11
7.975
7.86
7.895
7.975
8.01
8.005
8.035
8.035
7.965
7.955
7.86
7.775
7.76
7.765
7.595
7.795
7.895
7.615
7.71
8.11
8.705
8.765
7.72
6.805
6.915
7.225
7.665
7.855
7.945
7.935
7.92
7.975
7.925
8.015
7.995
7.97
8.08
8.035
8.14
8.24
8.335
8.305
8.215
8.345
8.41
8.295
8.275
8.435
8.435
8.37
8.355
8.31
8.155
7.995
7.95
7.93
7.795
7.805
7.795
7.69
7.715
7.815
7.84
7.885
7.85
7.73
7.785
7.86
7.76
7.695
7.755
7.735
7.735
7.685
7.745
7.715
7.715
7.795
7.81
7.815
7.715
7.68
7.67
7.525
7.495
7.495
7.465
7.47
7.455
7.395
7.6
8.275
8.95
7.915
6.555
6.48
6.8
7.145
7.245
7.355
7.39
7.41
7.485
7.38
7.32
7.42
7.47
7.37
7.325
7.425
7.48
7.44
7.47
7.555
7.595
7.6
7.615
7.71
7.795
7.69
7.65
7.625
7.575
7.45
7.345
7.285
7.165
7.015
6.945
6.99
7.03
6.98
7.035
7.07
7.015
7.075
7.02
6.97
6.995
6.96
6.915
6.965
6.975
6.915
6.92
6.885
6.875
6.885
6.995
6.945
6.855
7.025
7.025
6.895
6.89
6.815
6.745
6.73
6.725
6.75
6.735
6.65
6.85
7.465
8.165
7.495
6.095
5.655
5.945
6.29
6.565
6.685
6.7
6.71
6.785
6.69
6.705
6.82
6.845
6.79
6.815
6.865
6.805
6.8
6.86
6.975
7.015
7.085
7.105
7.135
7.225
7.22
7.215
7.205
7.095
7.005
6.925
6.745
6.655
6.605
6.515
6.505
6.485
6.37
6.415
6.48
6.39
6.435
6.475
6.515
6.495
6.455
6.51
6.455
6.51
6.59
6.47
6.385
6.34
6.345
6.42
6.38
6.415
6.49
6.515
6.525
6.55
6.57
6.5
6.42
6.37
6.325
6.275
6.31
6.32
6.32
6.395
6.79
7.575
7.81
6.355
5.135
5.37
5.83
6.17
6.23
6.27
6.355
6.435
6.39
6.325
6.335
6.355
6.39
6.285
6.235
6.35
6.385
6.33
6.275
6.285
6.45
6.475
6.455
6.475
6.57
6.56
6.385
6.365
6.345
6.13
5.93
5.82
5.705
5.735
5.6
5.455
5.455
5.415
5.435
5.44
5.33
5.27
5.29
5.36
5.29
5.25
5.295
5.19
5.155
5.12
5.135
5.055
4.915
5.015
5.075
4.955
4.96
4.985
4.86
4.95
5.085
4.985
4.915
4.99
5.235
5.055
4.705
4.665
4.605
4.59
4.54
4.635
5.01
5.615
5.805
4.605
3.5
3.59
3.905
4.225
4.31
4.38
4.415
4.37
4.35
4.4
4.325
4.325
4.355
4.275
4.28
4.33
4.38
4.335
4.4
4.465
4.455
4.53
4.58
4.6
4.65
4.68
4.655
4.57
4.41
4.29
4.16
4.045
3.955
3.875
3.835
3.78
3.7
3.735
3.76
3.7
3.675
3.675
3.665
3.67
3.68
3.625
3.62
3.58
3.56
3.585
3.495
3.455
3.455
3.485
3.475
3.495
3.475
3.49
3.535
3.63
3.87
4.39
5.2
5.895
6.415
6.855
7.115
7.11
7.115
6.935
6.11
4.85
3.675
2.895
2.595
2.46
2.39
2.295
2.195
2.2
2.075
1.91
1.775
1.61
1.45
1.29
1.07
0.935
0.78
0.605
0.63
0.65
0.73
0.895
1.095
1.295
1.615
1.88
2.045
2.265
2.345
2.43
2.52
2.49
2.495
2.51
2.48
2.425
2.465
2.45
2.47
2.495
2.455
2.445
2.43
2.43
2.435
2.375
2.36
2.355
2.415
2.405
2.33
2.295
2.32
2.33
2.335
2.33
2.23
2.2
2.275
2.27
2.26
2.25
2.235
2.165
2.175
2.405
2.535
2.51
2.435
2.375
2.37
2.45
2.48
2.43
2.455
2.6
2.58
2.45
2.39
2.31
2.135
1.895
1.82
1.935
1.945
1.81
1.92
2.4
3.13
2.685
1.195
0.66
0.93
1.125
1.165
1.055
0.72
0.225
-0.01
-0.08
-0.25
-0.475
-0.665
-0.745
-0.995
-1.255
-1.265
-1.135
-1.105
-0.985
-0.77
-0.555
-0.43
-0.66
-0.915
-1.095
-1.125
-1.13
-1.285
-1.465
-1.515
-1.515
-1.715
-1.975
-2.25
-2.38
-2.425
-2.505
-2.565
-2.685
-2.785
-2.825
-2.845
-2.815
-3.19
-3.34
-3.07
-2.845
-2.89
-3.02
-3.12
-3.195
-3.195
-3.095
-3.045
-3.095
-3.125
-3.23
-3.26
-3.295
-3.355
-3.34
-3.325
-3.275
-3.21
-3.245
-3.275
-3.255
-3.265
-3.3
-3.46
-3.61
-3.685
-3.7
-3.69
-3.76
-3.79
-3.595
-3.315
-2.755
-2.135
-3.085
-4.31
-4.375
-4.17
-3.915
-3.76
-3.66
-3.7
-3.72
-3.675
-3.665
-3.665
-3.675
-3.695
-3.71
-3.71
-3.66
-3.645
-3.655
-3.665
-3.625
-3.53
-3.495
-3.48
-3.425
-3.375
-3.38
-3.41
-3.46
-3.54
-3.645
-3.76
-3.86
-3.96
-4.05
-4.115
-4.105
-4.135
-4.165
-4.18
-4.185
-4.185
-4.235
-4.225
-4.21
-4.235
-4.21
-4.205
-4.24
-4.265
-4.275
-4.275
-4.29
-4.305
-4.27
-4.285
-4.365
-4.36
-4.345
-4.335
-4.315
-4.375
-4.37
-4.305
-4.265
-4.21
-4.185
-4.245
-4.24
-4.33
-4.34
-4.32
-4.465
-4.57
-4.575
-4.485
-4.46
-4.49
-4.515
-4.18
-3.375
-2.68
-3.815
-5.275
-5.25
-4.71
-4.29
-4.35
-4.425
-4.515
-4.61
-4.5
-4.245
-4.185
-4.255
0.09
0.095
0.11
0.115
0.105
0.11
0.11
0.125
0.135
0.12
0.115
0.115
0.1
0.1
0.08
0.105
0.085
0.09
0.08
0.075
0.07
0.085
0.075
0.08
0.095
0.125
0.165
0.18
0.185
0.25
0.315
0.345
0.32
0.28
0.19
0.105
0.05
0.035
0.02
0.005
0.01
0.02
0.025
0.01
0.055
0.495
1.26
1.505
0.19
-0.87
-0.72
-0.475
-0.155
0.005
0.045
0.085
0.105
0.115
0.12
0.13
0.135
0.15
0.175
0.185
0.185
0.23
0.265
0.325
0.35
0.4
0.475
0.55
0.6
0.635
0.635
0.64
0.605
0.535
0.42
0.315
0.22
0.155
0.105
0.065
0.05
0.05
0.03
0.04
0.025
0.06
0.04
0.05
0.06
0.06
0.015
0.025
0.045
0.025
0.01
0.02
0.035
0.01
-0.01
-0.025
-0.02
0.005
-0.01
-0.02
-0.035
0.04
0.07
0.08
0.095
0.185
0.24
0.25
0.21
0.135
0.025
-0.025
-0.055
-0.08
-0.095
-0.1
-0.08
-0.075
-0.08
-0.145
0.02
0.69
1.47
0.91
-0.595
-1.045
-0.81
-0.51
-0.225
-0.105
-0.02
-0.005
-0.005
0.0
-0.005
0.03
0.045
0.055
0.065
0.09
0.125
0.16
0.175
0.245
0.29
0.325
0.4
0.42
0.47
0.53
0.525
0.5
0.425
0.345
0.245
0.155
0.08
0.025
-0.03
-0.035
-0.035
-0.04
-0.06
-0.07
-0.07
-0.055
-0.045
-0.045
-0.055
-0.05
-0.04
-0.045
-0.06
-0.045
-0.055
-0.06
-0.075
-0.075
-0.085
-0.095
-0.09
-0.08
-0.095
-0.065
-0.02
0.025
0.0
0.04
0.115
0.155
0.125
0.105
0.025
-0.07
-0.13
-0.165
-0.17
-0.165
-0.155
-0.165
-0.165
-0.16
-0.095
0.355
1.215
1.795
0.41
-0.99
-0.905
-0.64
-0.34
-0.19
-0.125
-0.075
-0.06
-0.045
-0.045
-0.03
-0.025
-0.005
0.02
0.04
0.055
0.095
0.13
0.165
0.215
0.295
0.35
0.42
0.47
0.5
0.53
0.535
0.475
0.4
0.275
0.18
0.08
0.0
-0.04
-0.07
-0.095
-0.115
-0.115
-0.105
-0.105
-0.105
-0.11
-0.105
-0.1
-0.075
-0.065
-0.055
-0.07
-0.065
-0.075
-0.075
-0.08
-0.085
-0.08
-0.075
-0.08
-0.075
-0.075
-0.075
-0.08
-0.055
-0.015
0.045
0.08
0.09
0.145
0.215
0.24
0.23
0.195
0.13
0.045
-0.01
-0.015
-0.005
-0.02
0.01
0.035
0.065
0.035
0.26
0.925
1.86
1.63
0.04
-0.76
-0.435
-0.15
0.1
0.185
0.235
0.275
0.3
0.325
0.35
0.375
0.4
0.425
0.455
0.49
0.54
0.585
0.63
0.685
0.765
0.845
0.93
0.985
1.05
1.105
1.13
1.11
1.06
0.975
0.88
0.755
0.675
0.615
0.59
0.56
0.56
0.56
0.565
0.565
0.575
0.58
0.595
0.605
0.62
0.63
0.63
0.65
0.655
0.65
0.645
0.635
0.655
0.655
0.675
0.67
0.675
0.66
0.65
0.655
0.68
0.69
0.765
0.795
0.79
0.815
0.89
0.93
0.945
0.915
0.845
0.765
0.71
0.675
0.675
0.675
0.675
0.685
0.715
0.715
0.765
1.175
2.05
2.72
1.41
-0.05
0.005
0.285
0.57
0.7
0.78
0.81
0.83
0.835
0.85
0.845
0.88
0.89
0.92
0.93
0.96
0.99
1.01
1.055
1.13
1.2
1.265
1.335
1.39
1.425
1.45
1.46
1.405
1.315
1.205
1.08
0.995
0.91
0.855
0.815
0.815
0.795
0.805
0.77
0.785
0.775
0.765
0.79
0.805
0.8
0.81
0.795
0.795
0.795
0.775
0.78
0.755
0.76
0.77
0.745
0.735
0.745
0.735
0.735
0.79
0.815
0.835
0.83
0.895
0.95
0.965
0.93
0.855
0.755
0.69
0.635
0.635
0.63
0.625
0.635
0.645
0.63
0.65
1.015
1.865
2.645
1.465
-0.07
-0.14
0.13
0.435
0.58
0.635
0.655
0.69
0.69
0.71
0.72
0.72
0.725
0.75
0.785
0.79
0.795
0.83
0.87
0.93
0.985
1.065
1.095
1.16
1.18
1.21
1.21
1.17
1.075
0.97
0.855
0.745
0.67
0.625
0.585
0.55
0.55
0.535
0.535
0.535
0.515
0.52
0.515
0.535
0.515
0.525
0.505
0.51
0.5
0.485
0.47
0.48
0.47
0.465
0.455
0.44
0.43
0.465
0.515
0.555
0.56
0.58
0.645
0.675
0.61
0.545
0.465
0.365
0.34
0.325
0.305
0.315
0.305
0.315
0.345
0.355
0.56
1.15
1.965
1.48
-0.05
-0.59
-0.31
-0.025
0.205
0.29
0.32
0.345
0.34
0.355
0.365
0.375
0.365
0.4
0.41
0.43
0.435
0.475
0.525
0.565
0.615
0.665
0.735
0.79
0.82
0.85
0.855
0.825
0.755
0.655
0.535
0.425
0.34
0.28
0.245
0.21
0.185
0.175
0.165
0.175
0.175
0.2
0.19
0.185
0.17
0.185
0.18
0.165
0.165
0.155
0.15
0.135
0.13
0.13
0.125
0.115
0.115
0.095
0.13
0.19
0.215
0.22
0.275
0.335
0.315
0.27
0.19
0.12
0.04
0.015
0.01
0.015
0.01
0.015
0.015
0.025
-0.01
0.195
0.85
1.68
1.165
-0.35
-0.87
-0.59
-0.325
-0.08
-0.005
0.04
0.05
0.07
0.06
0.07
0.085
0.09
0.115
0.145
0.155
0.18
0.205
0.245
0.295
0.35
0.4
0.47
0.515
0.57
0.58
0.595
0.575
0.505
0.395
0.295
0.2
0.115
0.045
0.01
-0.01
-0.04
-0.055
-0.045
-0.04
-0.035
-0.03
-0.03
-0.045
-0.03
-0.03
-0.025
-0.015
-0.02
-0.04
-0.045
-0.065
-0.06
-0.065
-0.06
-0.075
-0.065
-0.075
-0.06
-0.055
0.0
0.02
0.05
0.105
0.145
0.12
0.075
0.015
-0.065
-0.135
-0.155
-0.15
-0.155
-0.165
-0.165
-0.145
-0.135
-0.155
-0.045
0.455
1.265
1.17
-0.265
-1.105
-0.845
-0.58
-0.275
-0.195
-0.125
-0.12
-0.08
-0.075
-0.065
-0.06
-0.025
-0.025
-0.01
0.005
0.03
0.045
0.085
0.14
0.195
0.245
0.325
0.38
0.42
0.445
0.465
0.455
0.4
0.295
0.195
0.075
-0.03
-0.09
-0.14
-0.17
-0.165
-0.195
-0.21
-0.21
-0.195
-0.195
-0.205
-0.205
-0.18
-0.19
-0.2
-0.185
-0.175
-0.205
-0.225
-0.225
-0.23
-0.225
-0.24
-0.255
-0.225
-0.225
-0.215
-0.195
-0.165
-0.095
-0.015
0.005
-0.065
-0.105
-0.175
-0.255
-0.28
-0.305
-0.31
-0.32
-0.305
-0.3
-0.28
-0.29
-0.33
-0.12
0.57
1.345
0.515
-0.975
-1.195
-0.93
-0.645
-0.395
-0.285
-0.23
-0.21
-0.2
-0.185
-0.165
-0.185
-0.165
-0.15
-0.125
-0.1
-0.075
-0.06
-0.02
0.035
0.085
0.155
0.19
0.26
0.295
0.32
0.335
0.315
0.23
0.13
0.01
-0.075
-0.155
-0.2
-0.23
-0.24
-0.26
-0.275
-0.25
-0.265
-0.275
-0.26
-0.265
-0.275
-0.26
-0.25
-0.25
-0.24
-0.255
-0.26
-0.275
-0.275
-0.29
-0.3
-0.285
-0.285
-0.28
-0.255
-0.21
-0.185
-0.13
-0.06
-0.05
-0.12
-0.18
-0.225
-0.31
-0.34
-0.345
-0.34
-0.365
-0.345
-0.34
-0.33
-0.365
-0.325
0.055
0.86
1.495
0.245
-1.2
-1.19
-0.91
-0.605
-0.4
-0.315
-0.28
-0.27
-0.255
-0.245
-0.24
-0.225
-0.21
-0.2
-0.185
-0.17
-0.135
-0.095
-0.055
-0.005
0.04
0.115
0.185
0.225
0.24
0.25
0.25
0.21
0.14
0.045
-0.075
-0.155
-0.235
-0.27
-0.305
-0.295
-0.325
-0.325
-0.34
-0.345
-0.345
-0.325
-0.33
-0.315
-0.295
-0.305
-0.315
-0.33
-0.33
-0.325
-0.325
-0.335
-0.355
-0.365
-0.36
-0.36
-0.355
-0.345
-0.34
-0.295
-0.255
-0.23
-0.18
-0.135
-0.135
-0.18
-0.25
-0.305
-0.395
-0.42
-0.425
-0.42
-0.425
-0.42
-0.42
-0.395
-0.41
-0.23
0.38
1.29
1.135
-0.46
-1.345
-1.03
-0.745
-0.505
-0.4
-0.36
-0.33
-0.305
-0.295
-0.28
-0.27
-0.265
-0.24
-0.215
-0.2
-0.18
-0.15
-0.105
-0.045
0.015
0.085
0.155
0.23
0.275
0.315
0.325
0.295
0.23
0.11
-0.005
-0.12
-0.205
-0.275
-0.3
-0.355
-0.35
-0.36
-0.37
-0.38
-0.365
-0.375
-0.355
-0.355
-0.345
-0.35
-0.345
-0.34
-0.345
-0.35
-0.36
-0.36
-0.35
-0.365
-0.38
-0.365
-0.37
-0.375
-0.38
-0.37
-0.355
-0.305
-0.285
-0.24
-0.175
-0.125
-0.14
-0.205
-0.245
-0.33
-0.405
-0.415
-0.41
-0.43
-0.41
-0.41
-0.4
-0.38
-0.395
-0.175
0.465
1.34
1.005
-0.6
-1.305
-0.99
-0.68
-0.46
-0.385
-0.33
-0.295
-0.29
-0.28
-0.28
-0.24
-0.24
-0.235
-0.22
-0.19
-0.15
-0.11
-0.08
-0.025
0.015
0.095
0.17
0.225
0.28
0.32
0.335
0.31
0.23
0.13
0.025
-0.095
-0.18
-0.25
-0.295
-0.31
-0.32
-0.33
-0.325
-0.335
-0.33
-0.325
-0.33
-0.325
-0.33
-0.32
-0.325
-0.315
-0.31
-0.3
-0.31
-0.315
-0.33
-0.335
-0.325
-0.33
-0.325
-0.315
-0.325
-0.33
-0.335
-0.325
-0.305
-0.29
-0.24
-0.215
-0.17
-0.095
-0.07
-0.135
-0.19
-0.25
-0.335
-0.375
-0.37
-0.37
-0.37
-0.36
-0.365
-0.335
-0.335
-0.305
0.07
0.905
1.625
0.375
-1.11
-1.095
-0.84
-0.515
-0.385
-0.315
-0.29
-0.255
-0.24
-0.225
-0.22
-0.215
-0.195
-0.165
-0.155
-0.135
-0.105
-0.06
-0.025
0.045
0.095
0.165
0.215
0.285
0.32
0.36
0.37
0.335
0.24
0.125
0.0
-0.09
-0.17
-0.21
-0.24
-0.27
-0.27
-0.275
-0.275
-0.285
-0.295
-0.275
-0.275
-0.27
-0.255
-0.255
-0.265
-0.255
-0.255
-0.25
-0.26
-0.275
-0.26
-0.275
-0.285
-0.285
-0.295
-0.285
-0.275
-0.27
-0.275
-0.29
-0.29
-0.28
-0.265
-0.23
-0.2
-0.165
-0.1
-0.02
-0.025
-0.095
-0.15
-0.22
-0.305
-0.33
-0.32
-0.32
-0.33
-0.325
-0.31
-0.3
-0.32
-0.25
0.155
0.965
1.52
0.155
-1.2
-1.075
-0.795
-0.46
-0.315
-0.25
-0.235
-0.205
-0.205
-0.185
-0.165
-0.165
-0.15
-0.14
-0.115
-0.085
-0.06
-0.03
0.005
0.07
0.135
0.21
0.27
0.31
0.36
0.38
0.375
0.365
0.28
0.185
0.055
-0.05
-0.12
-0.17
-0.225
-0.245
-0.255
-0.265
-0.255
-0.235
-0.25
-0.24
-0.24
-0.24
-0.22
-0.215
-0.235
-0.235
-0.23
-0.235
-0.22
-0.23
-0.245
-0.24
-0.265
-0.24
-0.26
-0.26
-0.235
-0.23
-0.24
-0.24
-0.205
-0.14
-0.095
-0.005
0.06
0.005
-0.08
-0.105
-0.19
-0.25
-0.255
-0.23
-0.245
-0.24
-0.23
-0.225
-0.2
-0.235
-0.13
0.475
1.29
1.075
-0.365
-1.1
-0.895
-0.605
-0.28
-0.15
-0.07
-0.025
-0.01
0.01
0.015
0.04
0.065
0.08
0.125
0.16
0.2
0.23
0.255
0.315
0.4
0.46
0.535
0.595
0.64
0.685
0.715
0.73
0.69
0.615
0.51
0.415
0.335
0.31
0.28
0.265
0.255
0.265
0.27
0.285
0.295
0.305
0.305
0.325
0.35
0.365
0.355
0.37
0.385
0.385
0.385
0.375
0.37
0.395
0.385
0.4
0.405
0.405
0.415
0.425
0.42
0.47
0.505
0.55
0.63
0.695
0.705
0.64
0.595
0.545
0.46
0.445
0.45
0.46
0.455
0.455
0.47
0.485
0.485
0.595
1.13
1.985
2.295
0.855
-0.355
-0.195
0.08
0.385
0.515
0.58
0.595
0.635
0.64
0.65
0.67
0.695
0.705
0.72
0.73
0.775
0.79
0.835
0.875
0.94
0.995
1.08
1.125
1.185
1.22
1.245
1.235
1.18
1.08
0.975
0.89
0.795
0.72
0.67
0.635
0.615
0.605
0.595
0.585
0.59
0.6
0.595
0.6
0.61
0.62
0.625
0.625
0.63
0.615
0.615
0.615
0.6
0.595
0.595
0.585
0.58
0.58
0.585
0.58
0.58
0.585
0.59
0.615
0.655
0.695
0.745
0.84
0.84
0.76
0.705
0.64
0.575
0.525
0.515
0.515
0.52
0.535
0.545
0.545
0.535
0.645
1.16
2.02
2.355
0.86
-0.365
-0.155
0.13
0.415
0.505
0.57
0.59
0.61
0.61
0.64
0.635
0.655
0.655
0.67
0.685
0.72
0.735
0.775
0.82
0.87
0.925
0.995
1.055
1.105
1.15
1.155
1.14
1.09
1.0
0.88
0.77
0.67
0.61
0.545
0.505
0.49
0.485
0.45
0.45
0.45
0.465
0.46
0.46
0.47
0.465
0.455
0.47
0.455
0.455
0.45
0.425
0.43
0.425
0.43
0.415
0.4
0.385
0.4
0.39
0.365
0.355
0.37
0.385
0.425
0.44
0.475
0.525
0.59
0.605
0.525
0.465
0.39
0.315
0.265
0.275
0.265
0.275
0.27
0.275
0.28
0.26
0.355
0.88
1.745
1.985
0.51
-0.64
-0.42
-0.16
0.12
0.24
0.275
0.295
0.31
0.325
0.33
0.33
0.325
0.335
0.37
0.385
0.405
0.415
0.46
0.505
0.555
0.615
0.69
0.74
0.79
0.82
0.85
0.84
0.78
0.7
0.57
0.455
0.365
0.29
0.24
0.215
0.175
0.18
0.165
0.17
0.175
0.175
0.14
0.15
0.165
0.165
0.165
0.165
0.17
0.15
0.15
0.13
0.12
0.125
0.115
0.1
0.105
0.09
0.09
0.095
0.095
0.08
0.08
0.08
0.1
0.13
0.175
0.2
0.275
0.34
0.315
0.26
0.18
0.105
0.035
0.02
0.01
0.015
0.015
0.025
0.015
0.03
0.005
0.165
0.72
1.55
1.44
-0.055
-0.92
-0.645
-0.365
-0.1
0.015
0.065
0.09
0.085
0.095
0.11
0.13
0.135
0.155
0.165
0.185
0.21
0.24
0.26
0.315
0.38
0.425
0.5
0.56
0.615
0.65
0.675
0.67
0.605
0.5
0.385
0.275
0.185
0.1
0.04
0.0
0.005
-0.005
-0.025
-0.03
-0.025
-0.025
-0.02
-0.02
-0.01
-0.005
-0.015
-0.025
-0.02
-0.025
-0.03
-0.035
-0.04
-0.05
-0.07
-0.07
-0.075
-0.06
-0.075
-0.085
-0.095
-0.08
-0.035
-0.015
0.015
0.08
0.175
0.165
0.105
0.03
-0.035
-0.105
-0.165
-0.165
-0.16
-0.17
-0.155
-0.125
-0.14
-0.165
-0.15
0.25
1.05
1.475
0.19
-1.055
-0.97
-0.71
-0.375
-0.2
-0.125
-0.1
-0.075
-0.065
-0.07
-0.05
-0.025
-0.03
-0.015
0.01
0.03
0.05
0.085
0.13
0.17
0.225
0.29
0.345
0.375
0.415
0.44
0.44
0.415
0.34
0.23
0.12
0.025
-0.05
-0.09
-0.125
-0.15
-0.155
-0.165
-0.15
-0.155
-0.165
-0.145
-0.14
-0.145
-0.135
-0.15
-0.145
-0.15
-0.155
-0.145
-0.16
-0.18
-0.175
-0.175
-0.19
-0.195
-0.2
-0.185
-0.185
-0.185
-0.195
-0.19
-0.155
-0.105
-0.065
-0.015
0.055
0.05
-0.035
-0.085
-0.15
-0.225
-0.245
-0.24
-0.255
-0.25
-0.245
-0.245
-0.23
-0.24
-0.08
0.515
1.39
1.365
-0.175
-1.135
-0.91
-0.63
-0.365
-0.255
-0.18
-0.17
-0.135
-0.145
-0.145
-0.12
-0.105
-0.09
-0.07
-0.05
-0.04
0.005
0.04
0.085
0.145
0.225
0.285
0.35
0.41
0.435
0.455
0.44
0.375
0.275
0.175
0.08
-0.035
-0.1
-0.135
-0.175
-0.19
-0.205
-0.21
-0.205
-0.205
-0.2
-0.2
-0.195
-0.185
-0.195
-0.17
-0.15
-0.16
-0.15
-0.17
-0.175
-0.185
-0.18
-0.195
-0.205
-0.205
-0.195
-0.2
-0.19
-0.205
-0.21
-0.19
-0.185
-0.145
-0.11
-0.07
-0.01
0.035
0.025
-0.045
-0.105
-0.16
-0.23
-0.25
-0.25
-0.26
-0.25
-0.25
-0.245
-0.22
-0.24
-0.065
0.545
1.405
1.255
-0.275
-1.135
-0.85
-0.57
-0.315
-0.22
-0.18
-0.155
-0.155
-0.125
-0.12
-0.1
-0.085
-0.08
-0.08
-0.035
-0.005
0.03
0.035
0.11
0.165
0.24
0.31
0.37
0.43
0.455
0.48
0.455
0.4
0.29
0.185
0.08
-0.005
-0.065
-0.13
-0.15
-0.145
-0.165
-0.175
-0.18
-0.18
-0.19
-0.175
-0.155
-0.155
-0.15
-0.13
-0.145
-0.145
-0.14
-0.135
-0.14
-0.13
-0.15
-0.15
-0.155
-0.155
-0.165
-0.165
-0.165
-0.16
-0.15
-0.15
-0.15
-0.13
-0.08
-0.04
-0.005
0.065
0.115
0.065
-0.01
-0.07
-0.13
-0.185
-0.2
-0.19
-0.195
-0.185
-0.18
-0.175
-0.16
-0.15
0.14
0.88
1.705
0.885
-0.675
-0.99
-0.69
-0.395
-0.21
-0.125
-0.1
-0.07
-0.065
-0.055
-0.045
-0.04
-0.015
0.015
0.02
0.04
0.065
0.11
0.145
0.205
0.275
0.335
0.41
0.445
0.49
0.53
0.54
0.515
0.455
0.365
0.24
0.13
0.04
-0.01
-0.045
-0.055
-0.08
-0.095
-0.095
-0.105
-0.105
-0.09
-0.075
-0.09
-0.085
-0.07
-0.07
-0.075
-0.08
-0.075
-0.065
-0.075
-0.08
-0.11
-0.105
-0.1
-0.09
-0.105
-0.095
-0.095
-0.12
-0.105
-0.1
-0.095
-0.065
-0.015
-0.005
0.045
0.105
0.15
0.1
0.035
-0.02
-0.09
-0.14
-0.15
-0.145
-0.14
-0.155
-0.145
-0.13
-0.105
-0.11
0.175
0.89
1.665
0.75
-0.785
-1.005
-0.69
-0.38
-0.19
-0.095
-0.05
-0.01
-0.015
-0.035
-0.01
0.02
0.015
0.04
0.055
0.075
0.085
0.135
0.18
0.235
0.29
0.37
0.43
0.495
0.515
0.555
0.57
0.555
0.485
0.375
0.265
0.14
0.06
0.005
-0.04
-0.07
-0.07
-0.08
-0.11
-0.09
-0.085
-0.08
-0.075
-0.065
-0.065
-0.075
-0.065
-0.06
-0.055
-0.065
-0.08
-0.09
-0.095
-0.08
-0.075
-0.08
-0.105
-0.1
-0.08
-0.105
-0.105
-0.105
-0.075
-0.03
-0.005
0.045
0.13
0.155
0.1
0.045
-0.02
-0.08
-0.125
-0.15
-0.13
-0.125
-0.135
-0.145
-0.13
-0.12
-0.15
0.115
0.84
1.63
0.785
-0.75
-1.0
-0.75
-0.435
-0.18
-0.08
-0.03
-0.03
-0.015
0.0
0.0
0.02
0.04
0.035
0.055
0.08
0.115
0.13
0.18
0.215
0.27
0.325
0.38
0.43
0.47
0.5
0.505
0.485
0.415
0.33
0.23
0.135
0.06
0.0
-0.035
-0.045
-0.055
-0.06
-0.065
-0.06
-0.06
-0.06
-0.05
-0.04
-0.025
-0.03
-0.035
-0.03
-0.025
-0.045
-0.055
-0.06
-0.055
-0.06
-0.075
-0.075
-0.08
-0.08
-0.07
-0.08
-0.085
-0.085
-0.075
-0.05
-0.005
0.025
0.09
0.165
0.185
0.12
0.085
0.015
-0.08
-0.115
-0.115
-0.11
-0.125
-0.125
-0.11
-0.09
-0.09
-0.065
0.29
1.105
1.935
0.88
-0.72
-0.9
-0.615
-0.31
-0.145
-0.065
-0.035
-0.005
0.025
0.035
0.025
0.04
0.055
0.06
0.085
0.115
0.135
0.17
0.21
0.27
0.34
0.39
0.46
0.53
0.58
0.595
0.605
0.575
0.49
0.38
0.275
0.165
0.09
0.035
0.0
-0.025
-0.05
-0.06
-0.07
-0.06
-0.055
-0.04
-0.055
-0.045
-0.03
-0.02
-0.025
-0.02
-0.035
-0.04
-0.035
-0.015
-0.02
-0.045
-0.05
-0.045
-0.05
-0.06
-0.05
-0.035
-0.03
-0.035
-0.055
-0.05
-0.03
-0.005
0.045
0.065
0.125
0.195
0.21
0.155
0.1
0.045
-0.04
-0.085
-0.09
-0.09
-0.08
-0.085
-0.075
-0.07
-0.06
-0.035
0.335
1.14
1.93
0.795
-0.735
-0.82
-0.545
-0.25
-0.105
-0.025
0.02
0.035
0.055
0.07
0.065
0.085
0.095
0.115
0.135
0.165
0.195
0.23
0.245
0.32
0.385
0.465
0.525
0.58
0.625
0.64
0.655
0.635
0.55
0.45
0.335
0.24
0.16
0.1
0.07
0.055
0.04
0.04
0.055
0.03
0.04
0.03
0.055
0.06
0.065
0.08
0.095
0.095
0.095
0.1
0.105
0.11
0.11
0.115
0.11
0.11
0.11
0.135
0.135
0.135
0.155
0.15
0.155
0.155
0.175
0.225
0.285
0.305
0.36
0.44
0.47
0.41
0.36
0.31
0.225
0.2
0.2
0.21
0.22
0.235
0.24
0.265
0.28
0.305
0.645
1.425
2.225
1.19
-0.315
-0.46
-0.185
0.12
0.295
0.38
0.415
0.435
0.455
0.485
0.495
0.505
0.535
0.57
0.59
0.62
0.65
0.685
0.735
0.785
0.855
0.91
0.985
1.035
1.11
1.135
1.15
1.13
1.06
0.95
0.835
0.75
0.665
0.615
0.57
0.56
0.545
0.55
0.56
0.56
0.56
0.565
0.56
0.575
0.58
0.59
0.59
0.59
0.595
0.605
0.595
0.59
0.57
0.56
0.575
0.575
0.585
0.575
0.575
0.57
0.58
0.575
0.57
0.575
0.585
0.615
0.65
0.675
0.71
0.765
0.82
0.825
0.75
0.685
0.625
0.555
0.53
0.545
0.545
0.54
0.54
0.55
0.565
0.535
0.645
1.165
1.995
2.245
0.825
-0.315
-0.135
0.125
0.43
0.53
0.595
0.615
0.635
0.63
0.655
0.67
0.675
0.695
0.7
0.725
0.765
0.78
0.825
0.845
0.88
0.955
1.055
1.085
1.145
1.17
1.2
1.19
1.155
1.07
0.965
0.835
0.735
0.65
0.595
0.575
0.56
0.57
0.545
0.52
0.505
0.51
0.515
0.515
0.53
0.53
0.535
0.535
0.53
0.52
0.525
0.515
0.49
0.49
0.495
0.495
0.485
0.47
0.48
0.48
0.475
0.465
0.465
0.465
0.475
0.51
0.535
0.58
0.645
0.68
0.645
0.57
0.53
0.455
0.39
0.385
0.365
0.365
0.365
0.37
0.365
0.385
0.33
0.415
0.945
1.755
1.76
0.355
-0.595
-0.375
-0.115
0.18
0.315
0.42
0.415
0.42
0.425
0.44
0.455
0.46
0.475
0.48
0.495
0.5
0.535
0.57
0.61
0.67
0.73
0.79
0.835
0.865
0.915
0.94
0.94
0.895
0.82
0.705
0.6
0.5
0.43
0.385
0.335
0.315
0.32
0.315
0.32
0.315
0.32
0.32
0.31
0.32
0.335
0.31
0.3
0.3
0.31
0.3
0.28
0.275
0.275
0.255
0.255
0.255
0.24
0.235
0.25
0.235
0.25
0.28
0.335
0.325
0.34
0.42
0.47
0.44
0.395
0.335
0.255
0.18
0.165
0.16
0.14
0.155
0.155
0.17
0.175
0.15
0.43
1.155
1.985
1.295
-0.295
-0.72
-0.455
-0.16
0.08
0.16
0.195
0.22
0.255
0.25
0.265
0.265
0.27
0.275
0.3
0.315
0.355
0.38
0.41
0.46
0.53
0.58
0.635
0.695
0.75
0.77
0.785
0.77
0.695
0.58
0.485
0.38
0.305
0.235
0.2
0.175
0.145
0.13
0.11
0.125
0.115
0.115
0.12
0.145
0.145
0.15
0.155
0.165
0.14
0.155
0.15
0.13
0.115
0.11
0.1
0.095
0.095
0.09
0.085
0.08
0.09
0.08
0.07
0.085
0.085
0.135
0.185
0.195
0.205
0.26
0.285
0.29
0.27
0.23
0.15
0.065
0.015
0.0
0.01
0.0
0.01
0.03
0.035
0.015
0.21
0.865
1.735
1.435
-0.145
-0.87
-0.575
-0.3
-0.06
0.025
0.06
0.08
0.11
0.13
0.135
0.135
0.15
0.16
0.18
0.195
0.23
0.25
0.31
0.345
0.41
0.465
0.535
0.6
0.66
0.68
0.705
0.69
0.64
0.53
0.415
0.305
0.22
0.155
0.115
0.09
0.08
0.055
0.055
0.05
0.045
0.055
0.07
0.08
0.065
0.085
0.085
0.09
0.09
0.09
0.09
0.08
0.08
0.065
0.06
0.06
0.065
0.04
0.05
0.065
0.055
0.055
0.055
0.05
0.05
0.06
0.07
0.09
0.125
0.145
0.155
0.195
0.25
0.275
0.25
0.2
0.14
0.06
0.015
0.01
0.005
0.005
0.015
0.015
0.02
0.02
0.06
0.47
1.305
1.955
0.66
-0.755
-0.705
-0.455
-0.165
-0.02
0.08
0.095
0.115
0.115
0.125
0.14
0.14
0.15
0.175
0.195
0.225
0.26
0.275
0.315
0.37
0.445
0.495
0.56
0.605
0.66
0.68
0.69
0.65
0.565
0.45
0.355
0.27
0.175
0.13
0.095
0.08
0.045
0.045
0.045
0.035
0.04
0.05
0.05
0.05
0.045
0.055
0.055
0.065
0.06
0.05
0.04
0.05
0.04
0.04
0.02
0.015
0.03
0.025
0.015
0.015
0.015
0.015
0.005
0.01
0.055
0.115
0.125
0.135
0.185
0.23
0.25
0.23
0.2
0.135
0.03
-0.025
-0.04
-0.04
-0.035
-0.04
-0.04
-0.02
-0.025
0.025
0.4
1.23
1.85
0.56
-0.835
-0.77
-0.52
-0.21
-0.065
0.005
0.045
0.03
0.07
0.085
0.085
0.105
0.125
0.135
0.16
0.18
0.21
0.25
0.285
0.335
0.405
0.47
0.53
0.595
0.635
0.66
0.685
0.645
0.555
0.45
0.335
0.24
0.145
0.1
0.06
0.035
0.03
0.035
0.015
-0.005
-0.015
0.015
0.035
0.045
0.035
0.045
0.04
0.055
0.055
0.045
0.045
0.025
0.035
0.045
0.04
0.025
0.02
0.015
0.015
-0.005
0.005
0.01
0.03
0.085
0.1
0.12
0.16
0.22
0.27
0.26
0.24
0.155
0.05
-0.005
-0.04
-0.045
-0.04
-0.055
-0.055
-0.01
-0.015
-0.08
0.115
0.775
1.55
0.965
-0.52
-0.945
-0.695
-0.4
-0.125
-0.025
0.03
0.06
0.065
0.1
0.105
0.12
0.115
0.13
0.155
0.165
0.205
0.24
0.275
0.325
0.38
0.435
0.495
0.56
0.595
0.63
0.655
0.645
0.585
0.505
0.39
0.285
0.205
0.14
0.08
0.05
0.055
0.055
0.05
0.055
0.05
0.06
0.065
0.06
0.06
0.07
0.07
0.085
0.08
0.065
0.06
0.05
0.04
0.03
0.05
0.035
0.025
0.025
0.035
0.03
0.035
0.08
0.13
0.13
0.175
0.24
0.29
0.31
0.275
0.185
0.105
0.03
-0.005
-0.02
-0.03
-0.035
-0.025
-0.025
0.0
-0.045
0.145
0.8
1.665
1.42
-0.125
-0.9
-0.665
-0.4
-0.11
-0.01
0.03
0.055
0.08
0.09
0.09
0.11
0.125
0.15
0.15
0.18
0.205
0.235
0.27
0.325
0.38
0.45
0.49
0.565
0.615
0.655
0.66
0.655
0.595
0.495
0.39
0.295
0.19
0.135
0.1
0.08
0.06
0.045
0.025
0.02
0.025
0.05
0.065
0.055
0.08
0.08
0.08
0.09
0.08
0.08
0.055
0.07
0.06
0.055
0.035
0.045
0.035
0.035
0.035
0.04
0.035
0.055
0.04
0.045
0.1
0.15
0.17
0.17
0.25
0.29
0.295
0.285
0.23
0.135
0.05
0.005
0.0
-0.01
-0.015
-0.015
0.01
0.01
-0.02
0.2
0.87
1.745
1.4
-0.19
-0.895
-0.595
-0.325
-0.07
0.005
0.055
0.08
0.095
0.1
0.125
0.135
0.15
0.155
0.19
0.19
0.235
0.255
0.31
0.35
0.405
0.47
0.555
0.615
0.66
0.695
0.735
0.715
0.665
0.55
0.435
0.325
0.23
0.165
0.12
0.1
0.08
0.06
0.07
0.08
0.055
0.06
0.085
0.085
0.095
0.095
0.105
0.13
0.11
0.105
0.11
0.105
0.1
0.1
0.09
0.095
0.095
0.085
0.08
0.085
0.08
0.085
0.08
0.09
0.095
0.155
0.205
0.2
0.25
0.305
0.335
0.34
0.305
0.22
0.125
0.065
0.05
0.045
0.055
0.035
0.05
0.045
0.045
0.085
0.48
1.295
2.0
0.745
-0.705
-0.69
-0.43
-0.13
0.035
0.085
0.12
0.125
0.15
0.165
0.18
0.18
0.205
0.215
0.245
0.265
0.305
0.335
0.385
0.445
0.515
0.575
0.645
0.69
0.735
0.765
0.77
0.75
0.67
0.545
0.435
0.335
0.27
0.205
0.175
0.155
0.15
0.13
0.13
0.145
0.13
0.15
0.145
0.165
0.155
0.155
0.16
0.17
0.17
0.155
0.155
0.15
0.17
0.18
0.155
0.135
0.15
0.145
0.145
0.145
0.155
0.15
0.145
0.125
0.155
0.135
0.18
0.225
0.25
0.25
0.29
0.335
0.36
0.345
0.345
0.275
0.185
0.125
0.115
0.11
0.11
0.11
0.125
0.14
0.165
0.14
0.39
1.085
1.88
1.035
-0.495
-0.74
-0.44
-0.145
0.07
0.165
0.195
0.21
0.24
0.255
0.275
0.275
0.28
0.295
0.32
0.35
0.345
0.39
0.44
0.49
0.55
0.61
0.685
0.74
0.78
0.83
0.86
0.84
0.755
0.655
0.56
0.465
0.365
0.295
0.25
0.235
0.225
0.185
0.18
0.2
0.2
0.21
0.215
0.225
0.24
0.23
0.24
0.255
0.235
0.23
0.215
0.22
0.215
0.19
0.205
0.21
0.195
0.215
0.215
0.215
0.24
0.29
0.32
0.315
0.41
0.485
0.505
0.485
0.405
0.32
0.21
0.175
0.17
0.165
0.145
0.15
0.155
0.175
0.135
0.155
0.585
1.395
1.815
0.505
-0.755
-0.66
-0.385
-0.045
0.14
0.215
0.24
0.255
0.285
0.31
0.315
0.315
0.33
0.345
0.355
0.39
0.415
0.455
0.5
0.545
0.595
0.665
0.735
0.785
0.815
0.825
0.825
0.79
0.7
0.6
0.515
0.415
0.34
0.3
0.26
0.245
0.24
0.24
0.24
0.245
0.26
0.255
0.235
0.255
0.265
0.265
0.255
0.255
0.25
0.255
0.245
0.225
0.24
0.23
0.225
0.24
0.225
0.22
0.21
0.21
0.235
0.25
0.295
0.325
0.335
0.385
0.445
0.475
0.475
0.445
0.37
0.26
0.19
0.165
0.16
0.14
0.145
0.16
0.17
0.17
0.22
0.66
1.515
2.205
0.86
-0.63
-0.595
-0.325
-0.015
0.14
0.215
0.22
0.24
0.265
0.275
0.29
0.3
0.305
0.315
0.34
0.38
0.4
0.43
0.49
0.55
0.605
0.685
0.745
0.795
0.845
0.885
0.87
0.84
0.75
0.635
0.515
0.42
0.345
0.305
0.26
0.24
0.215
0.22
0.23
0.205
0.21
0.215
0.24
0.245
0.245
0.26
0.255
0.25
0.255
0.255
0.255
0.255
0.245
0.255
0.245
0.24
0.24
0.22
0.22
0.215
0.225
0.225
0.235
0.265
0.325
0.35
0.35
0.405
0.455
0.495
0.475
0.45
0.35
0.26
0.195
0.185
0.185
0.175
0.185
0.195
0.205
0.205
0.29
0.81
1.685
2.015
0.545
-0.655
-0.445
-0.195
0.105
0.2
0.27
0.3
0.325
0.335
0.35
0.355
0.355
0.395
0.415
0.43
0.455
0.495
0.55
0.585
0.64
0.73
0.79
0.85
0.905
0.955
0.985
0.985
0.95
0.845
0.74
0.65
0.55
0.47
0.42
0.385
0.375
0.375
0.37
0.36
0.37
0.365
0.37
0.385
0.38
0.4
0.4
0.42
0.425
0.41
0.41
0.42
0.415
0.405
0.41
0.415
0.415
0.42
0.42
0.405
0.415
0.41
0.42
0.415
0.425
0.49
0.535
0.535
0.555
0.61
0.67
0.7
0.67
0.62
0.535
0.435
0.385
0.385
0.385
0.4
0.38
0.41
0.42
0.4
0.57
1.175
2.03
1.81
0.305
-0.45
-0.19
0.09
0.34
0.415
0.485
0.52
0.53
0.54
0.55
0.56
0.58
0.595
0.62
0.64
0.665
0.695
0.745
0.805
0.85
0.9
0.97
1.04
1.1
1.125
1.165
1.155
1.1
0.99
0.88
0.765
0.69
0.61
0.58
0.545
0.51
0.51
0.525
0.52
0.51
0.52
0.53
0.535
0.535
0.56
0.56
0.57
0.57
0.55
0.55
0.565
0.57
0.565
0.54
0.535
0.555
0.575
0.56
0.55
0.565
0.56
0.575
0.635
0.68
0.695
0.72
0.8
0.87
0.88
0.88
0.815
0.73
0.635
0.605
0.605
0.595
0.615
0.625
0.64
0.655
0.63
0.735
1.28
2.095
1.99
0.57
-0.215
-0.01
0.275
0.59
0.72
0.795
0.825
0.85
0.885
0.89
0.9
0.935
0.955
0.98
1.02
1.02
1.075
1.105
1.155
1.225
1.305
1.365
1.44
1.495
1.53
1.56
1.555
1.52
1.45
1.34
1.235
1.14
1.065
1.02
0.995
0.995
0.975
0.985
0.99
1.005
1.01
1.005
1.015
1.035
1.02
1.045
1.05
1.04
1.04
1.03
1.02
1.015
1.03
1.025
1.03
1.005
1.005
1.01
1.01
1.05
1.095
1.115
1.145
1.185
1.255
1.295
1.275
1.21
1.13
1.03
0.975
0.955
0.965
0.965
0.955
0.96
0.975
0.94
1.01
1.545
2.375
2.515
1.115
0.045
0.215
0.48
0.79
0.915
1.0
1.03
1.04
1.045
1.06
1.07
1.085
1.095
1.105
1.115
1.15
1.175
1.205
1.25
1.29
1.36
1.415
1.475
1.5
1.53
1.56
1.55
1.5
1.405
1.295
1.2
1.125
1.05
1.01
0.975
0.965
0.945
0.94
0.925
0.935
0.925
0.925
0.945
0.95
0.95
0.935
0.935
0.95
0.945
0.925
0.91
0.89
0.88
0.88
0.88
0.885
0.89
0.865
0.87
0.855
0.855
0.895
0.94
0.965
0.975
1.015
1.07
1.11
1.085
1.04
0.925
0.835
0.79
0.765
0.75
0.755
0.735
0.75
0.75
0.735
0.88
1.46
2.345
2.38
0.84
-0.175
0.09
0.37
0.625
0.725
0.77
0.775
0.785
0.8
0.81
0.825
0.83
0.85
0.845
0.87
0.89
0.905
0.945
0.99
1.045
1.105
1.18
1.25
1.295
1.335
1.33
1.34
1.28
1.175
1.04
0.93
0.825
0.765
0.72
0.685
0.65
0.635
0.615
0.6
0.585
0.6
0.605
0.62
0.62
0.61
0.61
0.61
0.61
0.595
0.6
0.59
0.58
0.575
0.56
0.55
0.545
0.54
0.54
0.53
0.53
0.525
0.53
0.585
0.62
0.615
0.635
0.705
0.74
0.735
0.725
0.635
0.535
0.465
0.425
0.405
0.405
0.4
0.4
0.415
0.425
0.415
0.71
1.455
2.29
1.47
-0.115
-0.43
-0.15
0.155
0.325
0.395
0.425
0.445
0.455
0.465
0.47
0.475
0.5
0.5
0.525
0.54
0.57
0.61
0.67
0.69
0.73
0.8
0.88
0.93
0.985
1.01
1.01
0.98
0.905
0.815
0.69
0.57
0.485
0.435
0.39
0.365
0.35
0.335
0.325
0.315
0.325
0.32
0.305
0.33
0.315
0.32
0.335
0.325
0.335
0.325
0.325
0.305
0.29
0.28
0.285
0.28
0.285
0.285
0.265
0.26
0.245
0.27
0.28
0.325
0.345
0.355
0.38
0.455
0.49
0.49
0.49
0.39
0.3
0.24
0.175
0.18
0.16
0.155
0.185
0.165
0.185
0.16
0.405
1.075
1.87
1.13
-0.43
-0.76
-0.445
-0.135
0.1
0.15
0.2
0.215
0.22
0.225
0.24
0.255
0.26
0.28
0.29
0.305
0.31
0.37
0.42
0.45
0.52
0.595
0.655
0.7
0.745
0.795
0.82
0.785
0.725
0.61
0.485
0.37
0.29
0.215
0.17
0.15
0.135
0.125
0.09
0.09
0.1
0.12
0.11
0.115
0.13
0.14
0.155
0.23
0.47
0.94
1.745
3.105
4.5
5.095
4.015
2.02
0.515
-0.19
-0.245
-0.295
-0.38
-0.425
-0.415
-0.355
-0.335
-0.33
-0.365
-0.445
-0.53
-0.595
-0.685
-0.765
-0.88
-0.985
-1.1
-1.185
-1.24
-1.22
-1.14
-0.97
-0.77
-0.53
-0.33
-0.165
-0.07
0.015
0.03
0.045
0.06
0.055
0.035
0.025
0.045
0.055
0.055
0.055
0.05
0.08
0.055
0.045
0.045
0.03
0.035
0.03
0.025
0.02
0.005
-0.015
-0.015
0.005
-0.015
-0.025
-0.025
-0.015
-0.015
-0.015
-0.035
-0.035
-0.03
-0.03
-0.045
-0.035
-0.035
-0.03
-0.04
-0.04
-0.05
-0.04
-0.04
-0.045
-0.055
-0.045
-0.05
-0.055
-0.055
-0.045
-0.055
-0.045
-0.065
-0.055
-0.065
-0.04
-0.055
-0.07
-0.045
0.015
0.05
0.06
0.1
0.165
0.21
0.2
0.185
0.105
0.01
-0.08
-0.105
-0.12
-0.12
-0.115
-0.105
-0.095
-0.095
0.215
1.02
1.92
1.09
-0.535
-0.89
-0.635
-0.35
-0.185
-0.09
-0.06
-0.04
-0.025
-0.025
-0.015
-0.005
0.02
0.02
0.045
0.055
0.085
0.11
0.13
0.165
0.205
0.25
0.285
0.31
0.35
0.37
0.375
0.395
0.375
0.375
0.32
0.255
0.18
0.135
0.07
0.02
-0.005
-0.02
-0.015
-0.015
-0.03
-0.01
0.005
0.015
0.02
0.015
0.015
0.02
-0.01
-0.01
-0.01
-0.025
-0.05
-0.03
-0.045
-0.06
-0.075
-0.085
-0.08
-0.075
-0.07
-0.075
-0.065
-0.045
-0.005
0.03
0.055
0.09
0.135
0.16
0.15
0.085
0.01
-0.095
-0.125
-0.13
-0.13
-0.15
-0.125
-0.13
-0.125
-0.145
0.09
0.775
1.63
1.175
-0.395
-1.005
-0.715
-0.415
-0.2
-0.125
-0.06
-0.045
-0.035
-0.01
-0.005
0.015
0.025
0.045
0.055
0.08
0.105
0.125
0.155
0.215
0.27
0.315
0.375
0.415
0.45
0.475
0.47
0.455
0.4
0.315
0.225
0.145
0.06
-0.005
-0.035
-0.06
-0.065
-0.095
-0.105
-0.08
-0.085
-0.08
-0.085
-0.08
-0.07
-0.07
-0.065
-0.065
-0.065
-0.075
-0.09
-0.08
-0.1
-0.125
-0.11
-0.125
-0.125
-0.13
-0.11
-0.115
-0.115
-0.105
-0.045
-0.015
-0.01
0.035
0.09
0.12
0.125
0.095
0.015
-0.09
-0.14
-0.165
-0.185
-0.17
-0.17
-0.17
-0.16
-0.17
-0.125
0.265
1.08
1.72
0.44
-0.955
-0.925
-0.655
-0.325
-0.17
-0.105
-0.08
-0.08
-0.055
-0.045
-0.03
-0.015
-0.01
0.0
0.025
0.065
0.085
0.115
0.145
0.195
0.26
0.325
0.375
0.425
0.445
0.495
0.49
0.46
0.39
0.3
0.185
0.1
0.035
-0.035
-0.07
-0.1
-0.105
-0.11
-0.11
-0.11
-0.08
-0.085
-0.06
-0.05
-0.06
-0.07
-0.06
-0.055
-0.055
-0.06
-0.065
-0.075
-0.085
-0.08
-0.08
-0.09
-0.105
-0.095
-0.08
-0.03
0.01
0.01
0.04
0.12
0.18
0.185
0.155
0.06
-0.055
-0.115
-0.13
-0.155
-0.15
-0.135
-0.13
-0.13
-0.15
-0.17
0.1
0.805
1.575
0.635
-0.87
-1.015
-0.74
-0.425
-0.17
-0.08
-0.04
-0.035
-0.01
-0.005
-0.005
0.025
0.045
0.07
0.08
0.1
0.125
0.15
0.19
0.225
0.285
0.36
0.415
0.455
0.48
0.49
0.505
0.485
0.43
0.335
0.255
0.15
0.055
-0.005
-0.025
-0.05
-0.05
-0.045
-0.05
-0.065
-0.055
-0.055
-0.04
-0.03
-0.015
-0.035
-0.045
-0.04
-0.045
-0.05
-0.055
-0.06
-0.075
-0.08
-0.075
-0.075
-0.1
-0.065
-0.025
0.015
0.03
0.065
0.135
0.19
0.17
0.125
0.05
-0.035
-0.115
-0.135
-0.14
-0.135
-0.145
-0.13
-0.125
-0.135
-0.1
0.315
1.155
1.72
0.4
-0.975
-0.93
-0.645
-0.33
-0.15
-0.065
-0.045
-0.01
-0.005
0.02
0.025
0.035
0.04
0.06
0.09
0.115
0.15
0.17
0.21
0.265
0.315
0.375
0.425
0.47
0.515
0.53
0.54
0.5
0.43
0.35
0.255
0.165
0.09
0.035
0.01
-0.005
0.015
-0.01
-0.005
0.025
0.03
0.055
0.08
0.085
0.1
0.115
0.115
0.115
0.11
0.125
0.135
0.12
0.12
0.13
0.15
0.165
0.155
0.155
0.185
0.245
0.295
0.325
0.35
0.415
0.47
0.51
0.505
0.455
0.38
0.3
0.275
0.26
0.27
0.285
0.295
0.325
0.34
0.33
0.61
1.36
2.235
1.58
-0.04
-0.495
-0.165
0.155
0.37
0.465
0.52
0.55
0.58
0.585
0.59
0.62
0.635
0.675
0.71
0.73
0.765
0.805
0.865
0.91
0.975
1.055
1.135
1.19
1.225
1.275
1.285
1.255
1.195
1.095
0.99
0.895
0.81
0.745
0.72
0.69
0.68
0.675
0.655
0.67
0.67
0.685
0.695
0.71
0.72
0.715
0.72
0.72
0.71
0.715
0.715
0.71
0.695
0.69
0.685
0.68
0.665
0.68
0.67
0.67
0.67
0.67
0.66
0.68
0.745
0.79
0.79
0.85
0.915
0.925
0.855
0.81
0.705
0.645
0.605
0.605
0.61
0.595
0.605
0.62
0.62
0.6
0.72
1.25
2.12
2.3
0.83
-0.285
-0.06
0.205
0.47
0.575
0.65
0.67
0.68
0.69
0.695
0.7
0.71
0.73
0.74
0.76
0.775
0.805
0.84
0.88
0.93
0.995
1.06
1.115
1.155
1.2
1.21
1.21
1.16
1.075
0.965
0.865
0.755
0.69
0.625
0.595
0.58
0.57
0.565
0.55
0.54
0.565
0.56
0.56
0.565
0.555
0.565
0.555
0.56
0.56
0.55
0.55
0.53
0.51
0.515
0.495
0.495
0.495
0.485
0.5
0.475
0.46
0.47
0.475
0.47
0.535
0.54
0.54
0.555
0.625
0.635
0.63
0.635
0.58
0.485
0.41
0.4
0.375
0.37
0.37
0.375
0.39
0.39
0.355
0.62
1.325
2.16
1.455
-0.12
-0.505
-0.225
0.07
0.29
0.36
0.41
0.43
0.425
0.435
0.455
0.45
0.465
0.475
0.505
0.5
0.515
0.535
0.565
0.645
0.685
0.75
0.81
0.88
0.91
0.935
0.95
0.935
0.88
0.77
0.635
0.53
0.43
0.38
0.345
0.305
0.275
0.245
0.245
0.25
0.245
0.25
0.27
0.245
0.26
0.27
0.27
0.255
0.265
0.25
0.23
0.215
0.225
0.22
0.215
0.205
0.195
0.2
0.18
0.175
0.21
0.275
0.275
0.285
0.355
0.43
0.455
0.41
0.33
0.24
0.155
0.1
0.06
0.08
0.075
0.065
0.08
0.09
0.045
0.14
0.64
1.435
1.475
0.095
-0.87
-0.695
-0.44
-0.105
0.02
0.1
0.13
0.13
0.135
0.145
0.165
0.175
0.18
0.175
0.205
0.23
0.255
0.3
0.33
0.4
0.45
0.52
0.565
0.615
0.655
0.68
0.685
0.63
0.525
0.42
0.315
0.235
0.17
0.12
0.09
0.08
0.055
0.06
0.055
0.08
0.085
0.095
0.11
0.105
0.115
0.135
0.145
0.125
0.13
0.145
0.135
0.135
0.135
0.14
0.145
0.14
0.145
0.155
0.155
0.155
0.18
0.225
0.275
0.29
0.335
0.41
0.455
0.46
0.445
0.375
0.265
0.21
0.185
0.175
0.175
0.175
0.17
0.195
0.205
0.215
0.555
1.345
2.17
1.185
-0.395
-0.61
-0.33
-0.025
0.175
0.255
0.295
0.33
0.32
0.335
0.365
0.38
0.39
0.395
0.435
0.455
0.46
0.505
0.54
0.595
0.67
0.725
0.795
0.84
0.875
0.905
0.92
0.895
0.825
0.73
0.615
0.51
0.435
0.365
0.34
0.31
0.295
0.28
0.275
0.265
0.26
0.27
0.29
0.295
0.305
0.315
0.315
0.315
0.305
0.295
0.285
0.275
0.265
0.27
0.27
0.255
0.24
0.25
0.255
0.245
0.24
0.25
0.24
0.245
0.24
0.26
0.285
0.305
0.325
0.335
0.375
0.41
0.425
0.415
0.395
0.335
0.25
0.19
0.185
0.17
0.175
0.17
0.165
0.19
0.175
0.255
0.695
1.55
2.095
0.72
-0.645
-0.545
-0.29
0.02
0.125
0.19
0.225
0.235
0.24
0.245
0.26
0.26
0.285
0.295
0.325
0.335
0.35
0.4
0.42
0.47
0.525
0.59
0.655
0.705
0.74
0.765
0.75
0.735
0.655
0.55
0.445
0.34
0.27
0.205
0.17
0.15
0.145
0.135
0.12
0.12
0.115
0.125
0.14
0.145
0.13
0.145
0.15
0.155
0.14
0.135
0.13
0.115
0.1
0.105
0.105
0.095
0.095
0.085
0.085
0.07
0.08
0.08
0.115
0.16
0.175
0.19
0.235
0.295
0.31
0.29
0.245
0.155
0.05
0.015
-0.005
-0.01
-0.035
-0.025
-0.01
0.0
-0.015
0.07
0.535
1.395
1.77
0.355
-0.865
-0.7
-0.45
-0.15
-0.03
0.035
0.03
0.055
0.065
0.07
0.095
0.1
0.11
0.14
0.16
0.17
0.2
0.23
0.27
0.315
0.375
0.455
0.515
0.56
0.595
0.62
0.605
0.575
0.49
0.375
0.26
0.17
0.09
0.045
0.005
-0.025
-0.045
-0.035
-0.035
-0.05
-0.04
-0.045
-0.04
-0.045
-0.035
-0.025
-0.01
-0.025
-0.035
-0.03
-0.03
-0.04
-0.055
-0.065
-0.07
-0.065
-0.07
-0.065
-0.09
-0.08
-0.08
-0.1
-0.095
-0.095
-0.08
-0.095
-0.055
-0.02
-0.005
0.015
0.045
0.085
0.08
0.08
0.045
-0.025
-0.105
-0.15
-0.165
-0.175
-0.175
-0.165
-0.15
-0.145
-0.19
-0.02
0.555
1.395
1.225
-0.29
-1.1
-0.835
-0.565
-0.285
-0.21
-0.14
-0.12
-0.11
-0.11
-0.1
-0.115
-0.08
-0.075
-0.065
-0.045
-0.03
-0.015
0.02
0.065
0.125
0.165
0.23
0.3
0.35
0.405
0.415
0.41
0.365
0.275
0.155
0.05
-0.06
-0.125
-0.165
-0.205
-0.225
-0.245
-0.265
-0.265
-0.25
-0.25
-0.25
-0.24
-0.24
-0.235
-0.23
-0.24
-0.245
-0.255
-0.245
-0.255
-0.275
-0.29
-0.285
-0.275
-0.295
-0.295
-0.29
-0.295
-0.265
-0.22
-0.205
-0.185
-0.115
-0.05
-0.015
-0.03
-0.095
-0.19
-0.285
-0.35
-0.36
-0.35
-0.36
-0.36
-0.355
-0.365
-0.39
-0.35
0.1
0.895
1.25
-0.095
-1.29
-1.16
-0.88
-0.575
-0.4
-0.33
-0.295
-0.26
-0.26
-0.265
-0.24
-0.235
-0.23
-0.225
-0.2
-0.165
-0.14
-0.12
-0.075
-0.025
0.035
0.095
0.155
0.215
0.255
0.265
0.27
0.245
0.16
0.05
-0.045
-0.145
-0.215
-0.265
-0.295
-0.33
-0.34
-0.35
-0.34
-0.34
-0.345
-0.31
-0.3
-0.305
-0.315
-0.32
-0.32
-0.32
-0.315
-0.33
-0.325
-0.325
-0.33
-0.335
-0.35
-0.35
-0.345
-0.335
-0.335
-0.345
-0.305
-0.265
-0.245
-0.21
-0.145
-0.08
-0.055
-0.075
-0.145
-0.235
-0.33
-0.36
-0.39
-0.39
-0.375
-0.37
-0.375
-0.36
-0.405
-0.17
0.515
1.37
0.895
-0.695
-1.27
-0.985
-0.705
-0.455
-0.34
-0.3
-0.28
-0.275
-0.255
-0.245
-0.23
-0.215
-0.22
-0.19
-0.185
-0.155
-0.105
-0.07
-0.025
0.035
0.09
0.15
0.205
0.25
0.285
0.285
0.275
0.24
0.14
0.025
-0.09
-0.17
-0.215
-0.26
-0.295
-0.315
-0.325
-0.335
-0.325
-0.335
-0.325
-0.315
-0.29
-0.285
-0.275
-0.275
-0.29
-0.295
-0.285
-0.29
-0.3
-0.325
-0.325
-0.315
-0.325
-0.335
-0.345
-0.34
-0.33
-0.35
-0.335
-0.31
-0.265
-0.24
-0.23
-0.185
-0.115
-0.095
-0.1
-0.12
-0.215
-0.315
-0.38
-0.4
-0.41
-0.4
-0.4
-0.4
-0.395
-0.4
-0.325
0.18
1.03
1.405
-0.03
-1.27
-1.09
-0.825
-0.555
-0.43
-0.36
-0.345
-0.33
-0.315
-0.315
-0.305
-0.3
-0.275
-0.24
-0.23
-0.195
-0.17
-0.135
-0.095
-0.04
0.01
0.085
0.14
0.21
0.235
0.275
0.27
0.22
0.11
0.02
-0.095
-0.175
-0.24
-0.305
-0.345
-0.36
-0.385
-0.375
-0.39
-0.395
-0.37
-0.365
-0.365
-0.355
-0.345
-0.35
-0.36
-0.35
-0.35
-0.365
-0.355
-0.375
-0.385
-0.375
-0.375
-0.385
-0.38
-0.39
-0.385
-0.385
-0.395
-0.39
-0.38
-0.34
-0.295
-0.28
-0.255
-0.18
-0.145
-0.13
-0.135
-0.195
-0.29
-0.38
-0.43
-0.435
-0.45
-0.435
-0.435
-0.415
-0.4
-0.43
-0.2
0.495
1.36
0.835
-0.7
-1.265
-0.98
-0.705
-0.485
-0.41
-0.355
-0.35
-0.32
-0.31
-0.305
-0.29
-0.27
-0.265
-0.24
-0.225
-0.19
-0.18
-0.14
-0.065
-0.015
0.035
0.11
0.165
0.21
0.24
0.24
0.24
0.17
0.09
-0.015
-0.12
-0.215
-0.285
-0.33
-0.345
-0.355
-0.385
-0.385
-0.385
-0.375
-0.355
-0.365
-0.35
-0.345
-0.345
-0.35
-0.34
-0.36
-0.35
-0.365
-0.375
-0.36
-0.37
-0.385
-0.38
-0.395
-0.385
-0.385
-0.395
-0.385
-0.385
-0.38
-0.4
-0.375
-0.325
-0.295
-0.305
-0.255
-0.185
-0.16
-0.175
-0.2
-0.275
-0.375
-0.43
-0.445
-0.44
-0.435
-0.44
-0.455
-0.445
-0.44
-0.405
-0.025
0.775
1.445
0.23
-1.19
-1.2
-0.935
-0.63
-0.5
-0.4
-0.375
-0.365
-0.33
-0.33
-0.33
-0.305
-0.295
-0.275
-0.26
-0.24
-0.22
-0.175
-0.115
-0.095
-0.025
0.02
0.095
0.15
0.185
0.205
0.22
0.19
0.145
0.04
-0.06
-0.145
-0.255
-0.33
-0.375
-0.385
-0.385
-0.4
-0.41
-0.41
-0.39
-0.385
-0.37
-0.37
-0.355
-0.365
-0.38
-0.375
-0.375
-0.365
-0.375
-0.395
-0.39
-0.38
-0.4
-0.395
-0.39
-0.395
-0.405
-0.395
-0.36
-0.315
-0.29
-0.275
-0.2
-0.135
-0.115
-0.14
-0.21
-0.275
-0.38
-0.43
-0.435
-0.435
-0.435
-0.43
-0.43
-0.42
-0.46
-0.385
0.135
0.935
1.005
-0.37
-1.36
-1.155
-0.89
-0.575
-0.435
-0.355
-0.325
-0.32
-0.305
-0.305
-0.305
-0.285
-0.235
-0.215
-0.205
-0.185
-0.14
-0.125
-0.095
-0.03
0.035
0.07
0.125
0.2
0.215
0.235
0.24
0.205
0.135
0.015
-0.09
-0.18
-0.24
-0.3
-0.32
-0.34
-0.34
-0.33
-0.33
-0.325
-0.335
-0.34
-0.335
-0.33
-0.33
-0.31
-0.32
-0.325
-0.33
-0.325
-0.33
-0.34
-0.355
-0.36
-0.355
-0.335
-0.34
-0.35
-0.35
-0.35
-0.29
-0.24
-0.225
-0.195
-0.105
-0.055
-0.06
-0.11
-0.165
-0.27
-0.335
-0.375
-0.39
-0.39
-0.4
-0.385
-0.365
-0.375
-0.385
-0.06
0.735
1.52
0.53
-1.035
-1.215
-0.925
-0.64
-0.415
-0.345
-0.31
-0.295
-0.265
-0.24
-0.225
-0.235
-0.21
-0.2
-0.205
-0.175
-0.135
-0.105
-0.06
-0.02
0.02
0.08
0.14
0.2
0.22
0.24
0.255
0.23
0.19
0.085
-0.01
-0.08
-0.185
-0.235
-0.26
-0.29
-0.305
-0.3
-0.315
-0.305
-0.3
-0.295
-0.275
-0.265
-0.265
-0.26
-0.25
-0.265
-0.27
-0.28
-0.295
-0.3
-0.3
-0.295
-0.29
-0.31
-0.325
-0.32
-0.305
-0.315
-0.315
-0.29
-0.235
-0.21
-0.205
-0.16
-0.085
-0.055
-0.08
-0.085
-0.175
-0.295
-0.34
-0.38
-0.375
-0.37
-0.065
-0.045
-0.05
-0.03
-0.035
-0.015
-0.03
-0.025
-0.03
-0.025
-0.06
-0.05
-0.065
-0.055
-0.07
-0.055
-0.07
-0.055
-0.075
-0.07
-0.085
-0.06
-0.08
-0.055
-0.075
-0.06
-0.08
-0.06
-0.065
-0.05
-0.06
-0.045
-0.055
0.005
0.02
0.065
0.085
0.165
0.135
0.115
0.105
0.11
0.035
-0.02
-0.065
-0.065
-0.085
-0.07
-0.075
-0.055
-0.065
-0.01
-0.025
0.33
1.155
1.88
0.725
-0.915
-1.125
-0.78
-0.41
-0.1
-0.035
0.04
0.035
0.07
0.07
0.11
0.1
0.13
0.125
0.15
0.15
0.165
0.185
0.245
0.26
0.315
0.355
0.435
0.485
0.56
0.59
0.645
0.64
0.635
0.55
0.48
0.37
0.26
0.165
0.115
0.045
0.045
0.0
0.0
-0.03
-0.01
-0.02
-0.015
-0.035
-0.03
-0.035
-0.01
-0.03
-0.015
-0.03
-0.03
-0.035
-0.02
-0.05
-0.045
-0.07
-0.05
-0.075
-0.065
-0.075
-0.075
-0.1
-0.07
-0.08
-0.09
-0.095
-0.075
-0.1
-0.11
-0.13
-0.115
-0.125
-0.115
-0.11
-0.1
-0.075
-0.04
-0.025
0.04
0.085
0.07
0.03
0.035
-0.045
-0.085
-0.135
-0.15
-0.185
-0.155
-0.165
-0.16
-0.16
-0.125
-0.17
-0.13
0.355
1.305
1.425
-0.09
-1.165
-1.005
-0.795
-0.395
-0.21
-0.125
-0.085
-0.05
-0.06
-0.03
-0.05
-0.035
-0.03
-0.02
-0.005
0.035
0.035
0.08
0.1
0.175
0.195
0.25
0.305
0.385
0.405
0.445
0.455
0.47
0.41
0.335
0.24
0.15
0.06
-0.005
-0.06
-0.08
-0.14
-0.13
-0.145
-0.11
-0.115
-0.125
-0.145
-0.12
-0.12
-0.12
-0.15
-0.135
-0.14
-0.14
-0.16
-0.165
-0.185
-0.18
-0.195
-0.2
-0.225
-0.205
-0.21
-0.205
-0.185
-0.195
-0.22
-0.205
-0.21
-0.205
-0.215
-0.205
-0.22
-0.195
-0.225
-0.19
-0.155
-0.12
-0.135
-0.075
-0.015
-0.005
-0.03
-0.045
-0.135
-0.17
-0.245
-0.27
-0.31
-0.29
-0.285
-0.265
-0.29
-0.26
-0.29
-0.23
0.26
1.25
1.49
-0.105
-1.315
-1.19
-0.92
-0.49
-0.335
-0.23
-0.215
-0.185
-0.16
-0.155
-0.15
-0.155
-0.15
-0.11
-0.115
-0.09
-0.08
-0.025
-0.005
0.04
0.095
0.155
0.215
0.29
0.34
0.38
0.375
0.37
0.305
0.235
0.115
0.03
-0.06
-0.135
-0.18
-0.21
-0.25
-0.25
-0.265
-0.24
-0.235
-0.205
-0.205
-0.185
-0.19
-0.17
-0.17
-0.145
-0.155
-0.155
-0.17
-0.165
-0.17
-0.165
-0.165
-0.17
-0.19
-0.17
-0.175
-0.175
-0.185
-0.175
-0.17
-0.165
-0.17
-0.105
-0.065
-0.045
-0.03
0.04
0.075
0.095
0.065
0.015
-0.075
-0.14
-0.195
-0.205
-0.205
-0.195
-0.2
-0.175
-0.175
-0.175
-0.07
0.49
1.505
1.815
0.04
-1.26
-1.025
-0.705
-0.335
-0.19
-0.12
-0.08
-0.07
-0.05
-0.04
-0.035
-0.02
-0.005
0.005
0.045
0.055
0.09
0.11
0.165
0.2
0.27
0.335
0.42
0.475
0.545
0.58
0.595
0.585
0.535
0.435
0.325
0.21
0.125
0.05
0.015
-0.025
-0.04
-0.05
-0.055
-0.07
-0.065
-0.065
-0.065
-0.05
-0.025
-0.035
-0.025
-0.03
-0.03
-0.025
-0.02
-0.03
-0.035
-0.045
-0.055
-0.065
-0.05
-0.05
-0.065
-0.055
-0.04
-0.06
-0.06
-0.055
-0.045
-0.045
-0.03
0.015
0.07
0.08
0.115
0.15
0.195
0.195
0.185
0.14
0.03
-0.03
-0.06
-0.075
-0.08
-0.095
-0.085
-0.075
-0.055
-0.06
0.08
0.665
1.61
1.675
-0.115
-1.26
-0.9
-0.57
-0.195
-0.085
-0.005
0.01
0.055
0.065
0.065
0.07
0.1
0.09
0.1
0.13
0.165
0.185
0.215
0.265
0.29
0.35
0.435
0.505
0.58
0.62
0.665
0.7
0.69
0.615
0.54
0.425
0.3
0.185
0.115
0.055
0.04
0.035
-0.005
-0.005
-0.02
-0.045
-0.035
-0.025
-0.03
-0.015
-0.025
-0.025
-0.01
-0.02
-0.015
-0.03
-0.035
-0.025
-0.03
-0.045
-0.06
-0.065
-0.07
-0.06
-0.05
-0.06
-0.08
-0.095
-0.105
-0.115
-0.11
-0.115
-0.115
-0.12
-0.08
-0.025
-0.005
0.025
0.08
0.13
0.1
0.085
0.04
-0.025
-0.075
-0.14
-0.145
-0.15
-0.165
-0.165
-0.165
-0.15
-0.15
-0.135
0.225
1.145
1.755
0.265
-1.205
-1.145
-0.875
-0.475
-0.245
-0.145
-0.095
-0.055
-0.045
-0.045
-0.04
-0.015
0.0
-0.005
0.005
0.04
0.05
0.075
0.125
0.18
0.225
0.285
0.35
0.445
0.495
0.545
0.555
0.57
0.53
0.44
0.32
0.2
0.1
0.025
-0.03
-0.06
-0.085
-0.105
-0.115
-0.12
-0.115
-0.105
-0.12
-0.105
-0.105
-0.08
-0.075
-0.105
-0.1
-0.075
-0.095
-0.115
-0.12
-0.09
-0.105
-0.135
-0.135
-0.12
-0.115
-0.11
-0.12
-0.115
-0.07
-0.03
-0.02
0.035
0.1
0.125
0.095
0.065
-0.005
-0.08
-0.135
-0.165
-0.17
-0.165
-0.17
-0.15
-0.15
-0.14
-0.16
0.205
1.135
1.91
0.56
-1.055
-1.145
-0.88
-0.52
-0.24
-0.135
-0.08
-0.045
-0.045
-0.055
-0.015
-0.01
0.03
0.03
0.04
0.05
0.08
0.125
0.17
0.2
0.275
0.35
0.425
0.5
0.585
0.63
0.665
0.635
0.57
0.465
0.34
0.225
0.135
0.05
0.0
-0.02
-0.025
-0.08
-0.08
-0.08
-0.065
-0.075
-0.075
-0.075
-0.04
-0.03
-0.025
-0.03
-0.015
-0.01
0.01
-0.015
-0.01
-0.015
-0.01
-0.01
-0.01
-0.015
-0.02
-0.015
-0.015
0.005
0.07
0.095
0.125
0.175
0.24
0.245
0.21
0.12
0.05
-0.025
-0.055
-0.075
-0.045
-0.045
-0.025
-0.035
-0.005
-0.02
0.28
1.14
2.06
1.04
-0.735
-1.08
-0.755
-0.395
-0.1
-0.015
0.06
0.07
0.085
0.09
0.12
0.105
0.125
0.12
0.15
0.17
0.205
0.215
0.27
0.31
0.375
0.44
0.52
0.59
0.675
0.705
0.76
0.745
0.715
0.605
0.48
0.345
0.245
0.155
0.1
0.055
0.035
0.015
0.005
-0.025
-0.015
-0.025
-0.015
-0.02
-0.005
-0.01
-0.005
-0.01
0.0
-0.005
0.0
-0.01
0.01
-0.02
-0.025
-0.025
-0.02
-0.045
-0.04
-0.04
-0.05
-0.05
0.015
0.05
0.08
0.105
0.185
0.225
0.19
0.095
0.03
-0.075
-0.09
-0.115
-0.11
-0.125
-0.095
-0.105
-0.08
-0.09
-0.015
0.395
1.35
1.92
0.315
-1.22
-1.065
-0.7
-0.285
-0.145
-0.05
-0.035
0.005
0.01
0.035
0.035
0.065
0.07
0.095
0.105
0.13
0.15
0.205
0.225
0.295
0.345
0.42
0.48
0.575
0.625
0.685
0.71
0.7
0.63
0.53
0.395
0.29
0.165
0.1
0.035
0.02
-0.01
-0.02
-0.045
-0.035
-0.065
-0.035
-0.055
-0.045
-0.05
-0.035
-0.055
-0.035
-0.065
-0.045
-0.065
-0.045
-0.07
-0.07
-0.08
-0.075
-0.085
-0.05
-0.085
-0.075
-0.075
-0.005
0.04
0.07
0.095
0.185
0.18
0.135
0.03
-0.03
-0.125
-0.155
-0.18
-0.17
-0.19
-0.17
-0.185
-0.14
-0.17
-0.08
0.41
1.41
1.69
0.01
-1.29
-1.085
-0.8
-0.36
-0.205
-0.11
-0.11
-0.05
-0.055
-0.04
-0.055
-0.04
-0.025
0.01
0.015
0.05
0.045
0.125
0.12
0.205
0.27
0.365
0.41
0.5
0.565
0.645
0.645
0.635
0.535
0.415
0.27
0.165
0.04
0.0
-0.08
-0.095
-0.125
-0.115
-0.145
-0.14
-0.175
-0.17
-0.185
-0.165
-0.195
-0.145
-0.17
-0.165
-0.175
-0.15
-0.19
-0.165
-0.19
-0.185
-0.205
-0.185
-0.2
-0.205
-0.235
-0.21
-0.195
-0.1
-0.13
-0.045
0.03
0.08
-0.01
-0.06
-0.175
-0.23
-0.28
-0.28
-0.31
-0.29
-0.295
-0.27
-0.285
-0.28
-0.26
0.22
1.175
1.665
0.02
-1.365
-1.265
-0.965
-0.565
-0.355
-0.28
-0.21
-0.22
-0.185
-0.185
-0.15
-0.16
-0.145
-0.145
-0.11
-0.1
-0.05
-0.06
0.0
0.05
0.13
0.19
0.285
0.345
0.42
0.46
0.51
0.465
0.375
0.24
0.12
-0.015
-0.08
-0.185
-0.205
-0.265
-0.255
-0.285
-0.275
-0.31
-0.28
-0.305
-0.275
-0.29
-0.27
-0.285
-0.26
-0.27
-0.25
-0.27
-0.235
-0.265
-0.25
-0.265
-0.255
-0.285
-0.27
-0.275
-0.27
-0.27
-0.18
-0.165
-0.13
-0.07
0.015
-0.03
-0.08
-0.2
-0.24
-0.315
-0.315
-0.34
-0.31
-0.345
-0.31
-0.32
-0.285
-0.315
0.01
0.865
1.77
0.64
-1.095
-1.38
-1.04
-0.68
-0.365
-0.3
-0.235
-0.23
-0.21
-0.21
-0.18
-0.185
-0.15
-0.155
-0.13
-0.125
-0.075
-0.045
0.01
0.045
0.115
0.165
0.26
0.33
0.415
0.45
0.5
0.47
0.435
0.31
0.195
0.045
-0.03
-0.145
-0.175
-0.23
-0.225
-0.255
-0.24
-0.27
-0.255
-0.285
-0.255
-0.28
-0.245
-0.275
-0.255
-0.265
-0.255
-0.27
-0.26
-0.28
-0.255
-0.29
-0.27
-0.295
-0.27
-0.295
-0.27
-0.295
-0.275
-0.305
-0.28
-0.25
-0.175
-0.16
-0.095
-0.045
0.015
-0.035
-0.115
-0.225
-0.285
-0.345
-0.33
-0.365
-0.345
-0.345
-0.33
-0.345
-0.305
-0.285
0.08
0.915
1.715
0.43
-1.245
-1.385
-0.98
-0.59
-0.355
-0.285
-0.23
-0.23
-0.205
-0.21
-0.165
-0.185
-0.15
-0.15
-0.11
-0.12
-0.06
-0.065
0.015
0.03
0.125
0.17
0.27
0.32
0.41
0.45
0.5
0.49
0.465
0.345
0.23
0.08
-0.005
-0.105
-0.14
-0.185
-0.19
-0.22
-0.215
-0.24
-0.225
-0.235
-0.22
-0.235
-0.215
-0.24
-0.225
-0.24
-0.22
-0.24
-0.23
-0.255
-0.235
-0.26
-0.25
-0.265
-0.255
-0.27
-0.24
-0.27
-0.24
-0.27
-0.25
-0.28
-0.26
-0.27
-0.255
-0.265
-0.22
-0.205
-0.15
-0.16
-0.095
-0.075
-0.065
-0.1
-0.075
-0.15
-0.21
-0.28
-0.275
-0.315
-0.295
-0.31
-0.28
-0.295
-0.265
-0.28
-0.03
0.66
1.575
0.915
-0.85
-1.45
-1.035
-0.695
-0.345
-0.285
-0.21
-0.2
-0.17
-0.17
-0.135
-0.165
-0.13
-0.135
-0.095
-0.095
-0.045
-0.045
0.015
0.03
0.1
0.145
0.24
0.285
0.38
0.42
0.48
0.46
0.465
0.375
0.29
0.145
0.045
-0.075
-0.11
-0.175
-0.175
-0.205
-0.205
-0.24
-0.205
-0.24
-0.215
-0.24
-0.215
-0.235
-0.21
-0.235
-0.225
-0.235
-0.215
-0.245
-0.22
-0.255
-0.225
-0.25
-0.23
-0.26
-0.24
-0.27
-0.245
-0.265
-0.24
-0.26
-0.25
-0.27
-0.24
-0.255
-0.24
-0.26
-0.235
-0.245
-0.18
-0.18
-0.145
-0.13
-0.06
-0.09
-0.08
-0.1
-0.13
-0.205
-0.24
-0.31
-0.295
-0.31
-0.295
-0.3
-0.26
-0.27
-0.24
-0.21
0.255
1.16
1.69
0.04
-1.395
-1.255
-0.89
-0.495
-0.295
-0.24
-0.175
-0.17
-0.13
-0.155
-0.13
-0.135
-0.115
-0.115
-0.075
-0.075
-0.02
-0.03
0.04
0.055
0.135
0.195
0.3
0.345
0.44
0.465
0.525
0.51
0.47
0.35
0.245
0.105
0.015
-0.095
-0.12
-0.185
-0.185
-0.24
-0.235
-0.265
-0.24
-0.265
-0.25
-0.265
-0.24
-0.255
-0.225
-0.265
-0.24
-0.265
-0.225
-0.265
-0.235
-0.275
-0.255
-0.29
-0.255
-0.27
-0.255
-0.285
-0.255
-0.28
-0.255
-0.29
-0.255
-0.285
-0.255
-0.29
-0.26
-0.285
-0.25
-0.285
-0.225
-0.225
-0.185
-0.185
-0.115
-0.085
-0.075
-0.12
-0.125
-0.22
-0.255
-0.325
-0.31
-0.34
-0.325
-0.34
-0.305
-0.32
-0.275
-0.325
-0.21
0.375
1.38
1.15
-0.475
-1.36
-1.165
-0.895
-0.46
-0.335
-0.24
-0.24
-0.2
-0.205
-0.165
-0.195
-0.155
-0.165
-0.12
-0.135
-0.09
-0.09
-0.045
-0.015
0.065
0.105
0.195
0.23
0.315
0.37
0.435
0.415
0.415
0.315
0.255
0.1
0.035
-0.09
-0.14
-0.225
-0.24
-0.275
-0.255
-0.28
-0.265
-0.295
-0.24
-0.27
-0.235
-0.26
-0.225
-0.24
-0.225
-0.265
-0.26
-0.29
-0.26
-0.29
-0.27
-0.295
-0.275
-0.295
-0.275
-0.32
-0.285
-0.315
-0.29
-0.325
-0.3
-0.33
-0.29
-0.31
-0.28
-0.305
-0.28
-0.31
-0.265
-0.255
-0.215
-0.235
-0.165
-0.13
-0.095
-0.145
-0.115
-0.215
-0.24
-0.325
-0.325
-0.36
-0.325
-0.35
-0.32
-0.335
-0.28
-0.34
-0.25
0.275
1.33
1.485
-0.15
-1.36
-1.175
-0.925
-0.495
-0.35
-0.235
-0.225
-0.195
-0.195
-0.15
-0.175
-0.13
-0.15
-0.1
-0.1
-0.065
-0.07
-0.005
0.02
0.085
0.11
0.205
0.255
0.34
0.365
0.44
0.42
0.44
0.355
0.285
0.155
0.07
-0.035
-0.08
-0.15
-0.165
-0.19
-0.18
-0.23
-0.21
-0.235
-0.2
-0.21
-0.18
-0.195
-0.17
-0.185
-0.155
-0.175
-0.165
-0.185
-0.165
-0.205
-0.185
-0.215
-0.2
-0.22
-0.19
-0.225
-0.205
-0.225
-0.21
-0.24
-0.215
-0.225
-0.205
-0.235
-0.215
-0.23
-0.2
-0.225
-0.195
-0.225
-0.17
-0.165
-0.12
-0.125
-0.045
-0.02
-0.015
-0.05
-0.025
-0.105
-0.145
-0.225
-0.23
-0.255
-0.225
-0.25
-0.235
-0.23
-0.205
-0.225
-0.065
0.48
1.49
1.535
-0.22
-1.39
-1.04
-0.735
-0.34
-0.255
-0.165
-0.155
-0.115
-0.12
-0.095
-0.105
-0.08
-0.095
-0.045
-0.05
-0.01
-0.005
0.055
0.07
0.14
0.18
0.27
0.315
0.405
0.44
0.51
0.505
0.525
0.445
0.36
0.235
0.135
-0.005
-0.025
-0.105
-0.12
-0.165
-0.15
-0.19
-0.175
-0.205
-0.195
-0.205
-0.185
-0.19
-0.165
-0.195
-0.16
-0.19
-0.155
-0.195
-0.155
-0.2
-0.19
-0.215
-0.195
-0.23
-0.205
-0.24
-0.21
-0.24
-0.21
-0.245
-0.2
-0.24
-0.21
-0.235
-0.215
-0.24
-0.21
-0.23
-0.205
-0.235
-0.205
-0.225
-0.205
-0.24
-0.19
-0.22
-0.165
-0.165
-0.11
-0.1
-0.025
-0.045
-0.045
-0.065
-0.065
-0.17
-0.195
-0.265
-0.24
-0.265
-0.24
-0.265
-0.22
-0.23
-0.18
-0.225
0.07
0.835
1.73
0.845
-0.875
-1.335
-0.95
-0.61
-0.285
-0.225
-0.135
-0.155
-0.1
-0.12
-0.065
-0.095
-0.055
-0.08
-0.015
-0.04
0.01
0.015
0.08
0.08
0.16
0.19
0.295
0.345
0.425
0.45
0.53
0.51
0.51
0.405
0.335
0.2
0.13
0.015
-0.015
-0.095
-0.09
-0.13
-0.125
-0.155
-0.145
-0.175
-0.14
-0.16
-0.125
-0.145
-0.11
-0.15
-0.105
-0.15
-0.115
-0.165
-0.14
-0.165
-0.14
-0.165
-0.145
-0.17
-0.14
-0.18
-0.14
-0.18
-0.15
-0.17
-0.145
-0.185
-0.145
-0.165
-0.14
-0.165
-0.13
-0.165
-0.13
-0.175
-0.14
-0.165
-0.13
-0.155
-0.135
-0.16
-0.135
-0.145
-0.12
-0.12
-0.055
-0.06
-0.015
0.015
0.05
0.01
0.03
-0.005
-0.045
-0.135
-0.16
-0.19
-0.16
-0.195
-0.165
-0.18
-0.14
-0.155
-0.135
0.09
0.88
1.715
0.99
-0.755
-1.225
-0.935
-0.55
-0.255
-0.14
-0.085
-0.04
-0.045
-0.015
-0.03
0.005
0.0
0.03
0.025
0.065
0.035
0.1
0.1
0.17
0.205
0.285
0.32
0.405
0.445
0.515
0.53
0.575
0.535
0.505
0.38
0.315
0.165
0.105
0.03
0.015
-0.055
-0.06
-0.095
-0.075
-0.12
-0.075
-0.105
-0.07
-0.09
-0.045
-0.085
-0.055
-0.08
-0.065
-0.09
-0.055
-0.105
-0.075
-0.115
-0.105
-0.11
-0.095
-0.115
-0.08
-0.135
-0.13
-0.15
-0.115
-0.13
-0.115
-0.14
-0.115
-0.14
-0.11
-0.125
-0.12
-0.145
-0.115
-0.14
-0.12
-0.145
-0.125
-0.155
-0.125
-0.16
-0.12
-0.105
-0.06
-0.075
-0.02
0.035
0.075
0.015
0.035
-0.035
-0.08
-0.165
-0.165
-0.215
-0.185
-0.22
-0.165
-0.2
-0.15
-0.19
-0.205
0.095
1.02
1.745
0.48
-1.09
-1.1
-0.935
-0.535
-0.26
-0.155
-0.145
-0.095
-0.08
-0.065
-0.09
-0.065
-0.065
-0.02
-0.045
0.0
-0.01
0.05
0.05
0.12
0.145
0.215
0.265
0.345
0.375
0.43
0.43
0.47
0.415
0.375
0.255
0.185
0.065
0.02
-0.08
-0.095
-0.135
-0.135
-0.17
-0.15
-0.16
-0.125
-0.155
-0.115
-0.135
-0.115
-0.12
-0.11
-0.13
-0.12
-0.155
-0.14
-0.18
-0.16
-0.185
-0.155
-0.19
-0.175
-0.195
-0.185
-0.205
-0.17
-0.19
-0.175
-0.22
-0.175
-0.205
-0.19
-0.21
-0.18
-0.225
-0.18
-0.21
-0.2
-0.215
-0.185
-0.205
-0.145
-0.14
-0.11
-0.095
-0.01
0.0
0.005
-0.03
-0.055
-0.135
-0.165
-0.24
-0.24
-0.265
-0.23
-0.255
-0.205
-0.225
-0.215
-0.25
0.095
0.975
1.755
0.43
-1.105
-1.185
-0.95
-0.585
-0.29
-0.24
-0.17
-0.16
-0.1
-0.125
-0.075
-0.1
-0.055
-0.05
-0.035
-0.03
0.005
0.01
0.065
0.09
0.17
0.2
0.285
0.31
0.405
0.405
0.455
0.435
0.41
0.33
0.255
0.13
0.06
-0.04
-0.065
-0.13
-0.12
-0.165
-0.15
-0.16
-0.13
-0.155
-0.12
-0.14
-0.115
-0.135
-0.105
-0.135
-0.11
-0.145
-0.12
-0.15
-0.135
-0.165
-0.145
-0.185
-0.15
-0.185
-0.165
-0.185
-0.175
-0.195
-0.17
-0.195
-0.155
-0.195
-0.165
-0.185
-0.165
-0.19
-0.15
-0.175
-0.145
-0.17
-0.135
-0.15
-0.09
-0.095
-0.06
-0.025
0.035
-0.005
0.01
-0.01
-0.06
-0.15
-0.165
-0.225
-0.21
-0.22
-0.195
-0.205
-0.185
-0.175
-0.165
0.075
0.88
1.75
0.99
-0.795
-1.255
-0.945
-0.56
-0.285
-0.175
-0.13
-0.1
-0.105
-0.07
-0.095
-0.055
-0.065
-0.035
-0.04
0.005
-0.005
0.06
0.065
0.12
0.155
0.24
0.275
0.36
0.395
0.475
0.485
0.515
0.47
0.415
0.305
0.22
0.095
0.04
-0.045
-0.065
-0.105
-0.11
-0.145
-0.14
-0.165
-0.135
-0.15
-0.13
-0.15
-0.125
-0.125
-0.105
-0.13
-0.115
-0.14
-0.12
-0.14
-0.135
-0.165
-0.145
-0.17
-0.155
-0.18
-0.16
-0.185
-0.17
-0.195
-0.17
-0.195
-0.175
-0.185
-0.18
-0.2
-0.18
-0.19
-0.18
-0.195
-0.185
-0.185
-0.17
-0.2
-0.18
-0.195
-0.15
-0.135
-0.105
-0.1
-0.03
-0.01
0.005
-0.035
-0.025
-0.09
-0.135
-0.195
-0.215
-0.23
-0.22
-0.235
-0.205
-0.21
-0.185
-0.215
-0.05
0.54
1.505
1.445
-0.315
-1.37
-1.04
-0.74
-0.335
-0.235
-0.145
-0.13
-0.095
-0.105
-0.085
-0.09
-0.065
-0.065
-0.03
-0.035
-0.005
0.005
0.045
0.07
0.14
0.185
0.25
0.3
0.385
0.415
0.46
0.475
0.49
0.415
0.355
0.24
0.14
0.035
-0.01
-0.08
-0.105
-0.145
-0.135
-0.155
-0.155
-0.165
-0.14
-0.165
-0.135
-0.15
-0.125
-0.135
-0.12
-0.145
-0.115
-0.145
-0.125
-0.15
-0.135
-0.165
-0.155
-0.18
-0.165
-0.185
-0.165
-0.18
-0.165
-0.18
-0.165
-0.185
-0.16
-0.175
-0.15
-0.18
-0.155
-0.165
-0.15
-0.17
-0.15
-0.17
-0.15
-0.16
-0.145
-0.165
-0.145
-0.155
-0.13
-0.13
-0.08
-0.075
-0.03
0.01
0.065
0.015
0.025
-0.005
-0.045
-0.125
-0.14
-0.185
-0.185
-0.185
-0.17
-0.185
-0.155
-0.145
-0.13
-0.02
0.6
1.535
1.485
-0.275
-1.295
-1.03
-0.705
-0.325
-0.175
-0.11
-0.065
-0.06
-0.04
-0.05
-0.03
-0.04
0.0
-0.005
0.02
0.025
0.07
0.08
0.145
0.16
0.225
0.275
0.345
0.385
0.45
0.47
0.505
0.485
0.465
0.37
0.29
0.175
0.1
0.025
-0.02
-0.07
-0.065
-0.095
-0.08
-0.115
-0.095
-0.11
-0.085
-0.105
-0.07
-0.08
-0.07
-0.095
-0.065
-0.1
-0.09
-0.11
-0.105
-0.125
-0.12
-0.13
-0.13
-0.155
-0.125
-0.155
-0.145
-0.16
-0.14
-0.16
-0.145
-0.155
-0.135
-0.165
-0.13
-0.15
-0.135
-0.155
-0.135
-0.155
-0.145
-0.16
-0.145
-0.165
-0.15
-0.16
-0.145
-0.155
-0.125
-0.115
-0.065
-0.065
-0.03
0.015
0.035
-0.01
0.0
-0.03
-0.075
-0.16
-0.19
-0.225
-0.2
-0.21
-0.205
-0.21
-0.175
-0.165
-0.165
-0.005
0.675
1.56
1.21
-0.51
-1.275
-1.03
-0.71
-0.345
-0.205
-0.15
-0.11
-0.09
-0.075
-0.075
-0.065
-0.065
-0.04
-0.045
-0.005
-0.01
0.015
0.035
0.085
0.115
0.185
0.24
0.305
0.345
0.405
0.435
0.46
0.44
0.41
0.315
0.225
0.115
0.035
-0.045
-0.08
-0.125
-0.135
-0.165
-0.16
-0.185
-0.165
-0.18
-0.17
-0.17
-0.16
-0.155
-0.145
-0.165
-0.155
-0.165
-0.165
-0.175
-0.165
-0.185
-0.18
-0.21
-0.19
-0.21
-0.195
-0.215
-0.205
-0.225
-0.19
-0.215
-0.2
-0.21
-0.185
-0.195
-0.2
-0.22
-0.19
-0.21
-0.205
-0.205
-0.2
-0.215
-0.2
-0.205
-0.18
-0.17
-0.125
-0.125
-0.095
-0.035
0.01
-0.04
-0.04
-0.08
-0.125
-0.21
-0.26
-0.275
-0.275
-0.275
-0.255
-0.28
-0.24
-0.24
-0.285
-0.175
0.515
1.45
0.955
-0.645
-1.22
-1.09
-0.795
-0.415
-0.285
-0.215
-0.195
-0.185
-0.155
-0.15
-0.12
-0.12
-0.11
-0.115
-0.09
-0.08
-0.04
-0.02
0.015
0.045
0.11
0.15
0.225
0.255
0.31
0.335
0.345
0.315
0.285
0.2
0.135
0.025
-0.04
-0.12
-0.17
-0.205
-0.21
-0.215
-0.205
-0.225
-0.21
-0.225
-0.21
-0.215
-0.215
-0.215
-0.205
-0.215
-0.21
-0.225
-0.225
-0.24
-0.24
-0.24
-0.23
-0.25
-0.25
-0.265
-0.255
-0.265
-0.24
-0.255
-0.255
-0.255
-0.24
-0.265
-0.24
-0.25
-0.24
-0.24
-0.235
-0.24
-0.235
-0.24
-0.22
-0.21
-0.165
-0.15
-0.12
-0.07
-0.01
-0.035
-0.045
-0.07
-0.13
-0.19
-0.225
-0.275
-0.27
-0.28
-0.27
-0.275
-0.26
-0.235
-0.255
-0.14
0.495
1.485
1.415
-0.31
-1.325
-1.115
-0.825
-0.425
-0.27
-0.19
-0.155
-0.15
-0.13
-0.115
-0.095
-0.105
-0.08
-0.075
-0.055
-0.035
-0.015
0.02
0.06
0.095
0.15
0.2
0.265
0.315
0.35
0.375
0.405
0.4
0.355
0.28
0.195
0.095
0.015
-0.045
-0.08
-0.115
-0.13
-0.145
-0.155
-0.165
-0.155
-0.155
-0.15
-0.135
-0.135
-0.14
-0.125
-0.12
-0.105
-0.12
-0.125
-0.13
-0.14
-0.15
-0.155
-0.165
-0.165
-0.175
-0.165
-0.18
-0.18
-0.175
-0.175
-0.17
-0.165
-0.19
-0.17
-0.165
-0.17
-0.17
-0.165
-0.17
-0.17
-0.165
-0.165
-0.165
-0.15
-0.135
-0.095
-0.085
-0.06
-0.015
0.035
0.01
-0.005
0.005
-0.05
-0.115
-0.165
-0.2
-0.205
-0.2
-0.205
-0.195
-0.18
-0.16
-0.155
-0.055
0.475
1.43
1.705
-0.04
-1.325
-1.065
-0.76
-0.37
-0.205
-0.125
-0.095
-0.075
-0.055
-0.04
-0.035
-0.03
-0.01
0.005
0.015
0.035
0.045
0.08
0.115
0.155
0.215
0.255
0.32
0.38
0.435
0.49
0.51
0.505
0.465
0.38
0.29
0.185
0.1
0.015
-0.04
-0.07
-0.095
-0.105
-0.12
-0.13
-0.135
-0.115
-0.115
-0.11
-0.1
-0.08
-0.075
-0.075
-0.08
-0.08
-0.09
-0.09
-0.095
-0.105
-0.105
-0.105
-0.115
-0.125
-0.13
-0.13
-0.14
-0.13
-0.135
-0.145
-0.145
-0.145
-0.135
-0.135
-0.14
-0.13
-0.14
-0.125
-0.125
-0.12
-0.14
-0.13
-0.135
-0.12
-0.08
-0.055
-0.04
0.0
0.05
0.04
0.01
0.02
-0.03
-0.09
-0.145
-0.175
-0.18
-0.17
-0.185
-0.165
-0.165
-0.14
-0.13
-0.09
0.32
1.23
1.825
0.34
-1.195
-1.14
-0.845
-0.45
-0.215
-0.13
-0.08
-0.07
-0.055
-0.035
-0.04
0.005
0.005
0.015
0.02
0.05
0.055
0.085
0.12
0.165
0.21
0.265
0.325
0.4
0.44
0.49
0.505
0.505
0.475
0.415
0.325
0.23
0.12
0.055
-0.02
-0.05
-0.08
-0.085
-0.1
-0.095
-0.115
-0.095
-0.105
-0.095
-0.095
-0.075
-0.085
-0.075
-0.085
-0.075
-0.085
-0.09
-0.095
-0.095
-0.12
-0.115
-0.125
-0.115
-0.13
-0.125
-0.135
-0.135
-0.135
-0.13
-0.135
-0.125
-0.14
-0.12
-0.135
-0.14
-0.13
-0.12
-0.135
-0.115
-0.135
-0.12
-0.12
-0.12
-0.12
-0.08
-0.065
-0.015
-0.005
0.05
0.06
0.045
0.02
0.025
-0.04
-0.09
-0.155
-0.155
-0.175
-0.16
-0.165
-0.145
-0.145
-0.105
-0.13
0.07
0.75
1.645
1.185
-0.525
-1.255
-0.955
-0.65
-0.265
-0.165
-0.08
-0.06
-0.045
-0.035
-0.005
0.005
0.02
0.015
0.035
0.035
0.065
0.08
0.13
0.15
0.205
0.23
0.305
0.355
0.415
0.445
0.485
0.5
0.505
0.455
0.395
0.275
0.205
0.095
0.05
-0.015
-0.03
-0.06
-0.07
-0.1
-0.07
-0.09
-0.08
-0.085
-0.075
-0.085
-0.06
-0.07
-0.05
-0.065
-0.06
-0.07
-0.07
-0.095
-0.08
-0.105
-0.085
-0.105
-0.1
-0.12
-0.11
-0.125
-0.105
-0.12
-0.11
-0.125
-0.09
-0.115
-0.105
-0.12
-0.105
-0.125
-0.105
-0.13
-0.12
-0.13
-0.105
-0.115
-0.085
-0.065
-0.03
-0.04
0.03
0.07
0.095
0.045
0.05
-0.03
-0.08
-0.145
-0.15
-0.165
-0.15
-0.16
-0.145
-0.15
-0.13
-0.16
-0.135
0.275
1.235
1.665
0.15
-1.18
-1.05
-0.845
-0.43
-0.215
-0.12
-0.085
-0.06
-0.055
-0.025
-0.045
-0.01
-0.025
0.015
0.015
0.055
0.045
0.095
0.115
0.18
0.195
0.27
0.295
0.36
0.41
0.455
0.455
0.475
0.425
0.375
0.265
0.19
0.095
0.025
-0.04
-0.06
-0.095
-0.08
-0.115
-0.105
-0.12
-0.095
-0.11
-0.075
-0.095
-0.08
-0.115
-0.08
-0.1
-0.105
-0.12
-0.095
-0.125
-0.125
-0.15
-0.13
-0.155
-0.14
-0.165
-0.14
-0.17
-0.14
-0.165
-0.14
-0.16
-0.145
-0.18
-0.145
-0.15
-0.13
-0.16
-0.14
-0.175
-0.135
-0.145
-0.08
-0.075
-0.055
-0.04
0.055
0.05
0.05
-0.005
-0.035
-0.115
-0.135
-0.195
-0.185
-0.22
-0.195
-0.21
-0.195
-0.195
-0.145
-0.225
0.03
0.88
1.715
0.6
-0.95
-1.145
-0.955
-0.62
-0.275
-0.215
-0.13
-0.13
-0.09
-0.11
-0.075
-0.08
-0.05
-0.07
-0.03
-0.05
0.005
0.02
0.06
0.08
0.16
0.175
0.265
0.295
0.375
0.4
0.44
0.43
0.415
0.32
0.265
0.145
0.085
-0.03
-0.065
-0.13
-0.125
-0.15
-0.145
-0.16
-0.14
-0.165
-0.125
-0.13
-0.11
-0.14
-0.105
-0.125
-0.12
-0.14
-0.125
-0.15
-0.13
-0.165
-0.15
-0.175
-0.155
-0.16
-0.145
-0.18
-0.16
-0.185
-0.165
-0.175
-0.165
-0.175
-0.155
-0.18
-0.145
-0.16
-0.145
-0.17
-0.13
-0.095
-0.045
-0.055
0.015
0.055
0.08
0.015
0.035
-0.025
-0.065
-0.15
-0.17
-0.215
-0.17
-0.2
-0.16
-0.175
-0.135
-0.15
-0.08
0.31
1.25
1.895
0.485
-1.145
-1.115
-0.815
-0.39
-0.19
-0.095
-0.08
-0.035
-0.045
-0.01
-0.02
0.01
0.01
0.045
0.035
0.075
0.08
0.125
0.145
0.2
0.23
0.31
0.365
0.45
0.48
0.54
0.56
0.565
0.515
0.47
0.33
0.27
0.145
0.085
0.02
0.015
-0.045
-0.04
-0.065
-0.055
-0.08
-0.055
-0.075
-0.065
-0.065
-0.03
-0.05
-0.03
-0.05
-0.03
-0.055
-0.045
-0.07
-0.055
-0.09
-0.065
-0.095
-0.075
-0.105
-0.07
-0.1
-0.07
-0.11
-0.08
-0.105
-0.075
-0.115
-0.08
-0.11
-0.08
-0.11
-0.08
-0.105
-0.08
-0.12
-0.08
-0.09
-0.03
-0.025
0.015
0.035
0.115
0.09
0.08
0.04
0.03
-0.04
-0.07
-0.145
-0.13
-0.155
-0.125
-0.135
-0.11
-0.115
-0.08
-0.075
0.3
1.135
1.895
0.645
-0.99
-1.165
-0.805
-0.425
-0.165
-0.105
-0.02
-0.03
0.015
-0.005
0.03
0.03
0.06
0.035
0.08
0.065
0.115
0.105
0.175
0.19
0.265
0.3
0.38
0.435
0.51
0.53
0.59
0.58
0.58
0.495
0.415
0.29
0.23
0.11
0.07
0.015
0.005
-0.035
-0.03
-0.05
-0.03
-0.06
-0.03
-0.055
-0.03
-0.04
-0.02
-0.035
-0.005
-0.03
-0.005
-0.05
-0.025
-0.055
-0.04
-0.06
-0.05
-0.075
-0.055
-0.075
-0.065
-0.08
-0.055
-0.085
-0.065
-0.085
-0.05
-0.08
-0.065
-0.075
-0.06
-0.08
-0.065
-0.07
-0.06
-0.08
-0.06
-0.07
-0.045
-0.05
0.01
0.005
0.055
0.095
0.125
0.08
0.095
0.055
0.035
-0.05
-0.08
-0.125
-0.105
-0.135
-0.1
-0.12
-0.08
-0.085
-0.055
0.09
0.76
1.635
1.435
-0.35
-1.235
-0.95
-0.61
-0.24
-0.095
-0.06
0.01
-0.005
0.04
0.025
0.06
0.05
0.065
0.065
0.11
0.095
0.145
0.14
0.21
0.24
0.305
0.355
0.435
0.465
0.53
0.555
0.585
0.56
0.535
0.44
0.375
0.25
0.195
0.095
0.065
0.01
0.0
-0.035
-0.005
-0.03
-0.015
-0.03
-0.005
-0.02
0.015
0.0
0.035
-0.015
0.01
-0.005
0.015
-0.01
0.0
-0.03
-0.035
-0.055
-0.025
-0.055
-0.025
-0.055
-0.035
-0.05
-0.02
-0.065
-0.045
-0.075
-0.045
-0.075
-0.045
-0.045
-0.04
-0.07
-0.04
-0.075
-0.045
-0.07
-0.045
-0.055
0.015
0.005
0.05
0.065
0.14
0.125
0.11
0.09
0.045
-0.03
-0.055
-0.105
-0.095
-0.13
-0.1
-0.12
-0.09
-0.105
-0.085
-0.11
0.27
1.165
1.81
0.385
-1.04
-1.04
-0.805
-0.47
-0.155
-0.105
-0.035
-0.02
0.015
-0.005
0.02
0.005
0.04
0.035
0.07
0.065
0.105
0.1
0.17
0.17
0.255
0.27
0.35
0.405
0.475
0.485
0.55
0.515
0.515
0.435
0.38
0.25
0.18
0.07
0.03
-0.045
-0.04
-0.08
-0.06
-0.1
-0.06
-0.07
-0.075
-0.09
-0.045
-0.09
-0.06
-0.09
-0.07
-0.095
-0.08
-0.105
-0.09
-0.115
-0.105
-0.14
-0.125
-0.13
-0.115
-0.15
-0.13
-0.155
-0.125
-0.16
-0.14
-0.165
-0.12
-0.16
-0.125
-0.17
-0.145
-0.155
-0.125
-0.145
-0.075
-0.09
-0.045
-0.02
0.08
0.045
0.05
0.015
-0.015
-0.105
-0.14
-0.225
-0.185
-0.2
-0.175
-0.195
-0.165
-0.19
-0.155
-0.21
0.135
0.99
1.745
0.45
-1.055
-1.125
-0.9
-0.56
-0.27
-0.2
-0.125
-0.125
-0.08
-0.095
-0.07
-0.07
-0.04
-0.045
-0.015
-0.04
0.03
0.015
0.075
0.095
0.175
0.21
0.285
0.31
0.4
0.425
0.455
0.445
0.45
0.35
0.27
0.145
0.08
-0.03
-0.06
-0.14
-0.13
-0.165
-0.15
-0.17
-0.155
-0.19
-0.135
-0.145
-0.125
-0.145
-0.125
-0.18
-0.145
-0.16
-0.145
-0.185
-0.165
-0.215
-0.185
-0.215
-0.19
-0.225
-0.195
-0.23
-0.21
-0.23
-0.185
-0.225
-0.21
-0.25
-0.22
-0.23
-0.2
-0.235
-0.21
-0.215
-0.145
-0.15
-0.09
-0.015
0.035
-0.025
-0.015
-0.105
-0.145
-0.205
-0.25
-0.285
-0.26
-0.29
-0.255
-0.275
-0.24
-0.26
-0.26
0.035
0.95
1.71
0.55
-1.07
-1.18
-1.005
-0.625
-0.34
-0.225
-0.195
-0.145
-0.145
-0.105
-0.125
-0.095
-0.095
-0.06
-0.065
-0.015
-0.015
0.035
0.04
0.125
0.14
0.225
0.265
0.355
0.375
0.43
0.43
0.46
0.415
0.36
0.25
0.185
0.08
0.04
-0.05
-0.06
-0.1
-0.075
-0.12
-0.105
-0.135
-0.1
-0.12
-0.075
-0.095
-0.06
-0.075
-0.05
-0.08
-0.055
-0.08
-0.055
-0.09
-0.07
-0.105
-0.095
-0.115
-0.09
-0.12
-0.105
-0.125
-0.1
-0.135
-0.1
-0.13
-0.095
-0.13
-0.1
-0.115
-0.105
-0.115
-0.1
-0.12
-0.08
-0.075
-0.015
-0.03
0.03
0.055
0.095
0.045
0.06
0.03
0.0
-0.08
-0.105
-0.155
-0.135
-0.155
-0.125
-0.15
-0.11
-0.115
-0.085
0.11
0.85
1.755
1.36
-0.53
-1.27
-0.87
-0.495
-0.215
-0.085
-0.065
-0.01
-0.015
0.025
0.01
0.055
0.035
0.08
0.06
0.105
0.1
0.15
0.155
0.23
0.255
0.335
0.37
0.475
0.495
0.58
0.595
0.63
0.6
0.56
0.45
0.365
0.24
0.185
0.085
0.08
0.01
0.015
-0.015
-0.01
-0.035
-0.01
-0.035
-0.005
-0.02
0.015
-0.01
0.03
0.015
0.05
0.01
0.035
0.015
0.04
0.01
0.03
0.005
0.03
-0.015
0.035
0.005
0.02
0.005
0.025
-0.005
0.025
0.0
0.04
0.025
0.045
0.02
0.065
0.025
0.07
0.045
0.075
0.075
0.135
0.115
0.18
0.19
0.26
0.23
0.23
0.205
0.22
0.145
0.1
0.02
0.045
0.02
0.065
0.04
0.07
0.065
0.115
0.105
0.415
1.17
1.985
1.09
-0.625
-1.05
-0.65
-0.3
0.015
0.08
0.165
0.175
0.21
0.21
0.265
0.23
0.255
0.235
0.29
0.28
0.33
0.325
0.39
0.415
0.49
0.52
0.605
0.655
0.745
0.765
0.83
0.805
0.825
0.735
0.66
0.535
0.47
0.34
0.305
0.24
0.23
0.18
0.195
0.165
0.185
0.145
0.185
0.17
0.195
0.165
0.215
0.185
0.21
0.18
0.22
0.18
0.2
0.17
0.195
0.145
0.18
0.145
0.155
0.14
0.165
0.125
0.13
0.095
0.14
0.11
0.15
0.11
0.15
0.11
0.15
0.12
0.15
0.12
0.15
0.105
0.155
0.13
0.19
0.18
0.23
0.225
0.32
0.29
0.285
0.24
0.24
0.15
0.115
0.055
0.075
0.04
0.07
0.035
0.085
0.06
0.09
0.035
0.22
0.89
1.815
1.275
-0.355
-1.01
-0.8
-0.5
-0.085
0.01
0.105
0.1
0.155
0.125
0.165
0.145
0.175
0.155
0.2
0.18
0.23
0.24
0.28
0.275
0.355
0.38
0.485
0.52
0.61
0.615
0.7
0.685
0.7
0.62
0.57
0.42
0.355
0.215
0.17
0.085
0.08
0.025
0.06
0.015
0.035
-0.005
0.055
0.025
0.05
0.025
0.06
0.01
0.035
-0.005
0.025
-0.025
0.015
-0.015
-0.015
-0.055
-0.04
-0.055
-0.03
-0.06
-0.03
-0.07
-0.05
-0.07
-0.045
-0.08
-0.055
-0.07
-0.03
-0.09
-0.065
-0.075
-0.025
-0.025
0.025
0.015
0.115
0.115
0.12
0.065
0.055
-0.045
-0.065
-0.15
-0.12
-0.15
-0.125
-0.165
-0.125
-0.15
-0.1
-0.185
-0.045
0.525
1.505
1.275
-0.295
-1.195
-0.99
-0.76
-0.345
-0.225
-0.12
-0.115
-0.07
-0.08
-0.06
-0.08
-0.045
-0.04
0.005
-0.005
0.005
-0.005
0.055
0.08
0.155
0.19
0.29
0.33
0.4
0.43
0.5
0.49
0.495
0.41
0.35
0.2
0.12
-0.01
-0.045
-0.135
-0.14
-0.195
-0.175
-0.205
-0.195
-0.225
-0.18
-0.225
-0.165
-0.19
-0.19
-0.225
-0.165
-0.21
-0.22
-0.235
-0.205
-0.255
-0.25
-0.27
-0.24
-0.275
-0.235
-0.27
-0.225
-0.265
-0.24
-0.265
-0.24
-0.28
-0.255
-0.295
-0.24
-0.275
-0.235
-0.235
-0.17
-0.17
-0.11
-0.075
-0.005
-0.065
-0.045
-0.11
-0.15
-0.25
-0.265
-0.3
-0.28
-0.31
-0.265
-0.29
-0.25
-0.265
-0.255
-0.045
0.795
1.665
0.94
-0.795
-1.27
-1.05
-0.685
-0.38
-0.24
-0.21
-0.16
-0.17
-0.125
-0.125
-0.105
-0.12
-0.08
-0.09
-0.045
-0.04
0.005
0.015
0.095
0.115
0.2
0.235
0.335
0.37
0.445
0.455
0.5
0.445
0.405
0.29
0.24
0.09
0.04
-0.055
-0.055
-0.115
-0.1
-0.14
-0.125
-0.16
-0.135
-0.165
-0.13
-0.135
-0.1
-0.115
-0.085
-0.1
-0.085
-0.095
-0.075
-0.1
-0.09
-0.11
-0.11
-0.14
-0.1
-0.135
-0.12
-0.15
-0.13
-0.145
-0.125
-0.155
-0.125
-0.155
-0.12
-0.15
-0.125
-0.125
-0.11
-0.145
-0.125
-0.14
-0.11
-0.105
-0.035
-0.035
0.035
0.055
0.06
-0.005
0.055
-0.01
-0.035
-0.14
-0.14
-0.155
-0.135
-0.185
-0.14
-0.15
-0.105
-0.135
-0.03
0.38
1.355
1.93
0.3
-1.24
-1.055
-0.73
-0.315
-0.185
-0.08
-0.065
-0.02
-0.035
-0.01
-0.01
0.025
0.0
0.035
0.035
0.095
0.09
0.135
0.145
0.23
0.25
0.34
0.4
0.475
0.515
0.59
0.59
0.615
0.535
0.49
0.365
0.275
0.155
0.075
0.01
-0.01
-0.07
-0.045
-0.075
-0.08
-0.1
-0.07
-0.09
-0.065
-0.08
-0.05
-0.055
-0.025
-0.055
-0.04
-0.08
-0.045
-0.08
-0.075
-0.12
-0.105
-0.125
-0.09
-0.1
-0.08
-0.12
-0.095
-0.135
-0.12
-0.145
-0.125
-0.155
-0.115
-0.135
-0.125
-0.125
-0.08
-0.11
-0.09
-0.065
-0.01
-0.015
0.045
0.075
0.115
0.06
0.095
0.025
-0.035
-0.11
-0.145
-0.17
-0.125
-0.17
-0.155
-0.155
-0.125
-0.165
-0.13
0.245
1.185
1.79
0.375
-1.165
-1.14
-0.895
-0.445
-0.215
-0.105
-0.08
-0.055
-0.045
0.01
-0.01
0.015
-0.015
0.02
0.03
0.08
0.075
0.105
0.115
0.195
0.22
0.305
0.345
0.46
0.52
0.575
0.56
0.595
0.56
0.525
0.36
0.28
0.16
0.105
0.055
0.015
-0.065
-0.02
-0.045
-0.04
-0.04
-0.015
-0.03
-0.015
-0.035
0.015
0.015
0.045
0.02
0.05
0.015
0.035
-0.02
0.0
0.0
0.01
-0.025
0.0
-0.025
0.025
-0.025
-0.03
-0.045
0.015
-0.01
0.06
0.1
0.105
0.135
0.185
0.195
0.235
0.135
0.05
-0.03
-0.035
-0.09
-0.07
-0.115
-0.05
-0.065
-0.045
-0.105
0.01
0.475
1.455
1.89
0.345
-1.08
-0.985
-0.735
-0.305
-0.1
0.02
-0.005
0.035
0.045
0.065
0.055
0.11
0.075
0.11
0.105
0.115
0.165
0.2
0.22
0.27
0.285
0.39
0.455
0.57
0.555
0.63
0.61
0.585
0.475
0.4
0.235
0.135
-0.03
-0.08
-0.12
-0.13
-0.24
-0.24
-0.25
-0.29
-0.29
-0.255
-0.29
-0.29
-0.265
-0.24
-0.305
-0.24
-0.255
-0.3
-0.29
-0.275
-0.295
-0.295
-0.3
-0.26
-0.31
-0.355
-0.345
-0.32
-0.375
-0.345
-0.29
-0.21
-0.295
-0.195
-0.145
-0.155
-0.22
-0.265
-0.34
-0.39
-0.475
-0.45
-0.49
-0.485
-0.44
-0.435
-0.455
-0.425
-0.175
0.7
1.5
0.625
-1.08
-1.515
-1.225
-0.755
-0.505
-0.38
-0.295
-0.25
-0.25
-0.215
-0.225
-0.23
-0.215
-0.155
-0.165
-0.125
-0.105
-0.045
-0.035
0.025
0.065
0.19
0.285
0.36
0.385
0.465
0.485
0.495
0.425
0.325
0.165
0.055
-0.075
-0.165
-0.24
-0.24
-0.295
-0.32
-0.335
-0.325
-0.365
-0.38
-0.39
-0.365
-0.37
-0.345
-0.36
-0.355
-0.375
-0.33
-0.365
-0.35
-0.36
-0.35
-0.38
-0.36
-0.375
-0.36
-0.37
-0.355
-0.39
-0.365
-0.37
-0.37
-0.335
-0.29
-0.29
-0.235
-0.205
-0.165
-0.175
-0.205
-0.29
-0.385
-0.445
-0.445
-0.475
-0.465
-0.49
-0.455
-0.465
-0.455
-0.315
0.33
1.26
1.225
-0.52
-1.6
-1.34
-0.985
-0.615
-0.495
-0.425
-0.4
-0.4
-0.37
-0.37
-0.365
-0.375
-0.335
-0.34
-0.305
-0.315
-0.27
-0.24
-0.185
-0.155
-0.08
0.005
0.085
0.135
0.225
0.25
0.28
0.25
0.19
0.055
-0.055
-0.195
-0.285
-0.36
-0.395
-0.43
-0.45
-0.48
-0.475
-0.49
-0.465
-0.505
-0.49
-0.5
-0.475
-0.49
-0.475
-0.505
-0.505
-0.51
-0.495
-0.505
-0.495
-0.51
-0.49
-0.505
-0.505
-0.535
-0.51
-0.545
-0.52
-0.485
-0.415
-0.4
-0.365
-0.31
-0.255
-0.295
-0.315
-0.415
-0.505
-0.56
-0.55
-0.56
-0.55
-0.575
-0.56
-0.555
-0.54
-0.405
0.225
1.17
1.155
-0.685
-1.775
-1.4
-1.01
-0.67
-0.555
-0.515
-0.475
-0.455
-0.425
-0.425
-0.4
-0.4
-0.375
-0.37
-0.335
-0.315
-0.28
-0.255
-0.19
-0.15
-0.075
-0.02
0.07
0.145
0.225
0.27
0.305
0.275
0.22
0.095
-0.005
-0.14
-0.235
-0.31
-0.345
-0.375
-0.365
-0.39
-0.385
-0.415
-0.4
-0.43
-0.445
-0.445
-0.44
-0.47
-0.435
-0.48
-0.48
-0.49
-0.485
-0.485
-0.465
-0.485
-0.48
-0.495
-0.495
-0.525
-0.5
-0.495
-0.445
-0.395
-0.37
-0.36
-0.27
-0.24
-0.27
-0.345
-0.42
-0.515
-0.535
-0.56
-0.55
-0.555
-0.535
-0.54
-0.5
-0.535
-0.33
0.35
1.3
0.755
-0.975
-1.665
-1.41
-1.105
-0.7
-0.62
-0.54
-0.525
-0.49
-0.475
-0.455
-0.46
-0.43
-0.43
-0.4
-0.375
-0.345
-0.32
-0.26
-0.23
-0.165
-0.08
0.015
0.095
0.175
0.215
0.28
0.28
0.27
0.145
0.005
-0.145
-0.25
-0.355
-0.425
-0.47
-0.47
-0.51
-0.5
-0.525
-0.54
-0.56
-0.53
-0.525
-0.545
-0.57
-0.54
-0.535
-0.525
-0.545
-0.53
-0.525
-0.525
-0.555
-0.55
-0.55
-0.54
-0.605
-0.59
-0.535
-0.46
-0.45
-0.4
-0.345
-0.3
-0.335
-0.39
-0.475
-0.525
-0.6
-0.6
-0.625
-0.625
-0.595
-0.585
-0.57
-0.565
-0.455
0.25
1.205
1.03
-0.72
-1.705
-1.48
-1.105
-0.73
-0.575
-0.505
-0.48
-0.465
-0.435
-0.415
-0.39
-0.395
-0.36
-0.355
-0.315
-0.295
-0.24
-0.205
-0.135
-0.095
-0.025
0.05
0.16
0.22
0.295
0.335
0.35
0.285
0.215
0.07
-0.055
-0.195
-0.275
-0.325
-0.355
-0.395
-0.395
-0.43
-0.43
-0.44
-0.44
-0.435
-0.43
-0.45
-0.415
-0.415
-0.415
-0.435
-0.42
-0.415
-0.415
-0.425
-0.41
-0.425
-0.42
-0.445
-0.425
-0.44
-0.4
-0.355
-0.32
-0.31
-0.205
-0.145
-0.155
-0.23
-0.31
-0.415
-0.455
-0.485
-0.47
-0.485
-0.465
-0.47
-0.455
-0.47
-0.345
0.2
1.185
1.465
-0.305
-1.66
-1.37
-1.01
-0.615
-0.495
-0.4
-0.385
-0.35
-0.345
-0.345
-0.335
-0.315
-0.31
-0.28
-0.27
-0.24
-0.22
-0.175
-0.135
-0.065
-0.015
0.08
0.155
0.25
0.31
0.37
0.39
0.38
0.295
0.19
0.04
-0.08
-0.19
-0.24
-0.305
-0.325
-0.36
-0.35
-0.37
-0.38
-0.39
-0.4
-0.395
-0.4
-0.4
-0.38
-0.39
-0.395
-0.395
-0.375
-0.385
-0.375
-0.39
-0.385
-0.395
-0.385
-0.395
-0.395
-0.395
-0.385
-0.385
-0.305
-0.26
-0.235
-0.19
-0.11
-0.105
-0.17
-0.275
-0.355
-0.425
-0.43
-0.445
-0.445
-0.445
-0.425
-0.415
-0.405
-0.36
0.065
0.955
1.645
0.135
-1.505
-1.45
-1.015
-0.61
-0.445
-0.36
-0.315
-0.295
-0.285
-0.285
-0.255
-0.25
-0.23
-0.225
-0.195
-0.17
-0.145
-0.115
-0.055
-0.005
0.07
0.15
0.235
0.315
0.39
0.445
0.49
0.48
0.43
0.31
0.185
0.045
-0.065
-0.145
-0.19
-0.23
-0.25
-0.265
-0.265
-0.28
-0.28
-0.295
-0.29
-0.3
-0.29
-0.305
-0.285
-0.305
-0.29
-0.295
-0.29
-0.28
-0.28
-0.295
-0.295
-0.3
-0.29
-0.295
-0.29
-0.3
-0.295
-0.31
-0.315
-0.32
-0.295
-0.225
-0.165
-0.15
-0.08
-0.03
-0.01
-0.08
-0.165
-0.255
-0.32
-0.345
-0.33
-0.335
-0.335
-0.325
-0.315
-0.295
-0.255
0.095
0.995
1.735
0.29
-1.335
-1.335
-0.98
-0.56
-0.365
-0.285
-0.24
-0.23
-0.22
-0.18
-0.18
-0.175
-0.175
-0.155
-0.135
-0.095
-0.065
-0.03
0.01
0.065
0.135
0.215
0.3
0.4
0.475
0.56
0.59
0.575
0.52
0.4
0.24
0.115
-0.005
-0.09
-0.15
-0.19
-0.205
-0.21
-0.235
-0.24
-0.235
-0.265
-0.29
-0.285
-0.29
-0.305
-0.295
-0.29
-0.3
-0.305
-0.3
-0.285
-0.29
-0.29
-0.29
-0.3
-0.315
-0.3
-0.295
-0.305
-0.31
-0.285
-0.295
-0.3
-0.295
-0.31
-0.31
-0.255
-0.21
-0.21
-0.185
-0.125
-0.1
-0.105
-0.145
-0.215
-0.295
-0.35
-0.375
-0.37
-0.365
-0.345
-0.33
-0.34
-0.335
-0.31
0.1
1.065
1.62
0.05
-1.39
-1.295
-1.03
-0.615
-0.415
-0.33
-0.285
-0.27
-0.26
-0.24
-0.23
-0.25
-0.235
-0.2
-0.175
-0.16
-0.125
-0.085
-0.045
-0.005
0.07
0.155
0.24
0.315
0.4
0.46
0.48
0.465
0.39
0.29
0.135
0.005
-0.09
-0.165
-0.23
-0.265
-0.28
-0.29
-0.305
-0.305
-0.31
-0.325
-0.335
-0.315
-0.31
-0.305
-0.3
-0.29
-0.275
-0.275
-0.275
-0.275
-0.265
-0.275
-0.28
-0.275
-0.28
-0.295
-0.29
-0.295
-0.275
-0.28
-0.285
-0.275
-0.225
-0.185
-0.175
-0.14
-0.075
-0.065
-0.06
-0.08
-0.165
-0.245
-0.305
-0.325
-0.34
-0.335
-0.315
-0.315
-0.295
-0.32
-0.185
0.445
1.44
1.38
-0.4
-1.455
-1.17
-0.83
-0.455
-0.325
-0.24
-0.215
-0.195
-0.2
-0.17
-0.165
-0.155
-0.14
-0.12
-0.1
-0.06
-0.045
0.0
0.05
0.105
0.18
0.265
0.345
0.43
0.49
0.545
0.575
0.54
0.445
0.335
0.195
0.065
-0.035
-0.095
-0.145
-0.165
-0.19
-0.195
-0.21
-0.22
-0.23
-0.225
-0.23
-0.22
-0.22
-0.21
-0.21
-0.195
-0.195
-0.19
-0.19
-0.18
-0.2
-0.195
-0.205
-0.2
-0.205
-0.195
-0.21
-0.21
-0.215
-0.205
-0.21
-0.2
-0.22
-0.21
-0.21
-0.195
-0.185
-0.17
-0.12
-0.075
-0.06
-0.005
0.015
0.02
-0.02
-0.06
-0.13
-0.195
-0.23
-0.225
-0.225
-0.22
-0.22
-0.2
-0.185
-0.175
0.145
1.025
1.865
0.68
-1.09
-1.255
-0.88
-0.485
-0.26
-0.185
-0.135
-0.11
-0.1
-0.075
-0.07
-0.065
-0.06
-0.025
-0.025
0.01
0.025
0.06
0.095
0.155
0.225
0.31
0.375
0.465
0.535
0.61
0.63
0.65
0.595
0.5
0.37
0.24
0.11
0.035
-0.04
-0.065
-0.09
-0.105
-0.13
-0.135
-0.145
-0.135
-0.15
-0.135
-0.15
-0.14
-0.145
-0.13
-0.15
-0.13
-0.145
-0.135
-0.135
-0.145
-0.165
-0.15
-0.165
-0.155
-0.165
-0.145
-0.16
-0.15
-0.155
-0.145
-0.15
-0.14
-0.15
-0.135
-0.15
-0.135
-0.1
-0.065
-0.06
-0.005
0.025
0.045
0.02
0.05
-0.02
-0.07
-0.14
-0.15
-0.165
-0.155
-0.18
-0.165
-0.165
-0.115
-0.105
0.26
1.12
1.885
0.47
-1.185
-1.22
-0.825
-0.43
-0.2
-0.13
-0.08
-0.085
-0.05
-0.06
-0.025
-0.04
-0.01
-0.005
0.03
0.05
0.08
0.095
0.15
0.175
0.265
0.315
0.41
0.47
0.57
0.605
0.66
0.65
0.6
0.495
0.375
0.22
0.135
0.03
-0.02
-0.065
-0.075
-0.1
-0.1
-0.115
-0.105
-0.13
-0.115
-0.13
-0.11
-0.115
-0.105
-0.11
-0.1
-0.115
-0.095
-0.12
-0.105
-0.13
-0.105
-0.125
-0.12
-0.13
-0.11
-0.135
-0.115
-0.14
-0.13
-0.135
-0.125
-0.135
-0.13
-0.13
-0.11
-0.125
-0.1
-0.075
-0.03
-0.045
-0.005
0.02
0.055
0.035
0.06
0.005
-0.035
-0.13
-0.165
-0.18
-0.175
-0.185
-0.155
-0.165
-0.125
-0.16
0.09
0.795
1.725
1.055
-0.73
-1.325
-0.915
-0.55
-0.205
-0.135
-0.055
-0.065
-0.015
-0.025
-0.005
-0.01
0.01
0.02
0.055
0.06
0.115
0.115
0.165
0.19
0.265
0.32
0.405
0.46
0.55
0.595
0.675
0.675
0.665
0.555
0.465
0.315
0.21
0.09
0.05
-0.015
-0.015
-0.05
-0.045
-0.075
-0.065
-0.085
-0.08
-0.075
-0.09
-0.085
-0.08
-0.08
-0.045
-0.08
-0.075
-0.08
-0.07
-0.09
-0.07
-0.095
-0.055
-0.025
0.03
0.07
0.265
0.71
1.52
2.375
3.065
3.415
3.795
4.025
4.08
4.01
3.505
2.23
0.905
-0.005
-0.425
-0.575
-0.685
-0.805
-0.88
-0.975
-0.945
-1.01
-1.155
-1.31
-1.4
-1.565
-1.675
-1.835
-1.95
-2.065
-2.095
-2.135
-2.06
-1.965
-1.775
-1.58
-1.305
-1.06
-0.76
-0.56
-0.385
-0.285
-0.185
-0.17
-0.13
-0.14
-0.105
-0.115
-0.095
-0.115
-0.08
-0.095
-0.07
-0.08
-0.065
-0.065
-0.035
-0.055
-0.025
-0.035
-0.01
-0.015
0.005
-0.025
0.005
-0.01
-0.01
-0.01
0.005
0.01
0.03
0.005
0.04
0.015
0.04
0.02
0.06
0.035
0.06
0.035
0.065
0.06
0.085
0.08
0.105
0.08
0.085
0.095
0.12
0.11
0.13
0.11
0.14
0.115
0.135
0.135
0.17
0.155
0.175
0.165
0.18
0.17
0.19
0.19
0.215
0.195
0.215
0.19
0.23
0.22
0.285
0.31
0.35
0.385
0.49
0.505
0.525
0.475
0.415
0.325
0.29
0.235
0.245
0.24
0.245
0.255
0.285
0.24
0.575
1.49
2.405
1.205
-0.485
-0.69
-0.45
-0.105
0.22
0.285
0.365
0.355
0.385
0.38
0.4
0.4
0.43
0.425
0.465
0.47
0.51
0.515
0.56
0.585
0.65
0.69
0.765
0.795
0.88
0.915
0.955
0.955
0.98
0.925
0.88
0.775
0.72
0.6
0.56
0.48
0.47
0.42
0.43
0.405
0.43
0.415
0.435
0.435
0.45
0.445
0.465
0.45
0.455
0.435
0.445
0.41
0.425
0.4
0.395
0.37
0.385
0.36
0.375
0.35
0.365
0.345
0.36
0.345
0.36
0.34
0.355
0.34
0.35
0.335
0.35
0.325
0.355
0.38
0.43
0.435
0.475
0.53
0.57
0.56
0.55
0.475
0.4
0.315
0.29
0.25
0.26
0.255
0.285
0.25
0.285
0.265
0.595
1.43
2.275
1.185
-0.545
-0.825
-0.465
-0.11
0.175
0.25
0.32
0.31
0.355
0.345
0.375
0.345
0.385
0.385
0.42
0.415
0.465
0.475
0.515
0.53
0.615
0.655
0.74
0.78
0.855
0.88
0.91
0.895
0.88
0.785
0.695
0.555
0.475
0.375
0.335
0.265
0.27
0.225
0.225
0.185
0.205
0.19
0.205
0.19
0.21
0.215
0.23
0.225
0.24
0.205
0.22
0.205
0.21
0.175
0.185
0.16
0.18
0.15
0.15
0.135
0.155
0.125
0.155
0.13
0.15
0.135
0.145
0.125
0.155
0.125
0.15
0.125
0.15
0.125
0.13
0.115
0.175
0.185
0.215
0.205
0.275
0.29
0.29
0.265
0.275
0.175
0.125
0.065
0.07
0.035
0.065
0.035
0.055
0.055
0.065
0.13
0.62
1.55
2.035
0.355
-1.055
-0.915
-0.58
-0.17
0.035
0.085
0.135
0.125
0.15
0.15
0.175
0.165
0.195
0.18
0.21
0.215
0.265
0.26
0.315
0.335
0.395
0.44
0.515
0.565
0.64
0.665
0.705
0.685
0.675
0.57
0.48
0.35
0.285
0.175
0.145
0.085
0.08
0.03
0.03
0.02
0.035
0.015
0.035
0.015
0.045
0.025
0.04
0.03
0.04
0.005
0.015
-0.01
0.005
-0.025
-0.01
-0.035
-0.035
-0.065
-0.04
-0.075
-0.045
-0.07
-0.06
-0.08
-0.065
-0.09
-0.075
-0.095
-0.07
-0.105
-0.07
-0.11
-0.07
-0.11
-0.075
-0.11
-0.09
-0.11
-0.095
-0.075
-0.04
-0.035
0.015
0.045
0.07
0.03
0.035
-0.005
-0.065
-0.15
-0.175
-0.205
-0.195
-0.21
-0.175
-0.185
-0.16
-0.18
-0.095
0.365
1.295
1.785
0.17
-1.305
-1.15
-0.845
-0.415
-0.24
-0.145
-0.145
-0.1
-0.13
-0.08
-0.1
-0.06
-0.08
-0.065
-0.05
-0.005
-0.005
0.035
0.05
0.1
0.135
0.205
0.25
0.335
0.34
0.41
0.4
0.42
0.365
0.315
0.195
0.12
0.005
-0.055
-0.125
-0.145
-0.185
-0.185
-0.225
-0.205
-0.225
-0.19
-0.215
-0.185
-0.205
-0.195
-0.21
-0.19
-0.225
-0.205
-0.235
-0.22
-0.25
-0.245
-0.27
-0.25
-0.265
-0.255
-0.28
-0.265
-0.295
-0.26
-0.285
-0.27
-0.295
-0.275
-0.3
-0.28
-0.3
-0.265
-0.29
-0.28
-0.3
-0.28
-0.295
-0.275
-0.295
-0.285
-0.285
-0.25
-0.235
-0.2
-0.205
-0.135
-0.12
-0.11
-0.155
-0.12
-0.21
-0.265
-0.315
-0.33
-0.35
-0.335
-0.365
-0.335
-0.345
-0.31
-0.33
-0.06
0.695
1.585
0.735
-0.97
-1.43
-1.12
-0.775
-0.42
-0.35
-0.245
-0.265
-0.215
-0.225
-0.185
-0.21
-0.18
-0.195
-0.15
-0.16
-0.11
-0.115
-0.055
-0.045
0.025
0.045
0.13
0.16
0.235
0.26
0.305
0.295
0.29
0.225
0.17
0.035
-0.03
-0.145
-0.165
-0.25
-0.25
-0.295
-0.28
-0.315
-0.295
-0.31
-0.275
-0.295
-0.275
-0.275
-0.255
-0.275
-0.26
-0.3
-0.28
-0.295
-0.285
-0.325
-0.295
-0.325
-0.305
-0.33
-0.315
-0.34
-0.325
-0.35
-0.325
-0.345
-0.32
-0.345
-0.325
-0.34
-0.32
-0.35
-0.325
-0.355
-0.32
-0.34
-0.325
-0.335
-0.31
-0.325
-0.305
-0.305
-0.255
-0.25
-0.205
-0.185
-0.115
-0.155
-0.15
-0.18
-0.205
-0.305
-0.33
-0.38
-0.355
-0.38
-0.34
-0.36
-0.325
-0.325
-0.315
-0.115
0.695
1.55
0.81
-0.91
-1.365
-1.115
-0.72
-0.415
-0.29
-0.24
-0.195
-0.205
-0.16
-0.17
-0.13
-0.135
-0.1
-0.12
-0.065
-0.065
0.005
0.005
0.07
0.095
0.17
0.21
0.29
0.325
0.405
0.405
0.46
0.425
0.405
0.305
0.245
0.135
0.075
-0.01
-0.03
-0.07
-0.055
-0.09
-0.06
-0.075
-0.04
-0.045
-0.02
-0.045
-0.005
-0.035
0.005
-0.005
0.02
-0.005
0.015
-0.015
0.01
-0.005
0.01
-0.015
0.02
0.005
0.025
0.0
0.02
0.005
0.03
0.01
0.045
0.025
0.06
0.035
0.065
0.03
0.06
0.05
0.085
0.055
0.09
0.08
0.09
0.085
0.125
0.15
0.195
0.19
0.265
0.295
0.305
0.27
0.285
0.195
0.155
0.09
0.11
0.065
0.085
0.065
0.105
0.105
0.145
0.08
0.31
1.15
2.045
1.055
-0.545
-0.87
-0.65
-0.325
0.045
0.12
0.21
0.2
0.24
0.24
0.26
0.255
0.295
0.275
0.325
0.325
0.355
0.345
0.41
0.42
0.51
0.53
0.615
0.635
0.72
0.735
0.79
0.775
0.79
0.7
0.655
0.55
0.46
0.365
0.33
0.255
0.255
0.215
0.23
0.205
0.23
0.215
0.255
0.23
0.25
0.23
0.255
0.225
0.245
0.22
0.245
0.195
0.21
0.18
0.195
0.145
0.175
0.14
0.165
0.145
0.155
0.135
0.155
0.13
0.15
0.135
0.155
0.125
0.145
0.13
0.155
0.13
0.145
0.1
0.155
0.13
0.2
0.195
0.24
0.245
0.335
0.305
0.315
0.285
0.255
0.17
0.12
0.055
0.08
0.05
0.08
0.055
0.11
0.085
0.075
0.13
0.72
1.705
1.89
0.185
-0.98
-0.84
-0.545
-0.165
0.055
0.105
0.175
0.155
0.205
0.17
0.215
0.195
0.235
0.215
0.26
0.265
0.285
0.305
0.35
0.375
0.45
0.47
0.54
0.575
0.635
0.615
0.665
0.615
0.61
0.515
0.445
0.335
0.27
0.18
0.14
0.08
0.07
0.035
0.055
0.02
0.055
0.03
0.055
0.04
0.07
0.04
0.065
0.05
0.05
0.03
0.04
0.025
0.035
-0.005
0.01
-0.02
-0.005
-0.035
-0.02
-0.045
-0.03
-0.05
-0.045
-0.055
-0.04
-0.06
-0.045
-0.075
-0.045
-0.08
-0.04
-0.075
-0.045
-0.065
-0.045
-0.07
-0.05
-0.08
-0.055
-0.06
-0.01
-0.01
0.02
0.045
0.105
0.045
0.06
0.025
0.0
-0.105
-0.135
-0.175
-0.165
-0.185
-0.16
-0.175
-0.15
-0.145
-0.145
0.065
0.815
1.69
1.11
-0.69
-1.285
-0.985
-0.62
-0.295
-0.185
-0.14
-0.11
-0.1
-0.075
-0.105
-0.07
-0.07
-0.035
-0.065
-0.02
-0.03
0.02
0.03
0.085
0.11
0.175
0.21
0.28
0.31
0.375
0.375
0.41
0.375
0.35
0.25
0.175
0.045
-0.02
-0.105
-0.135
-0.19
-0.185
-0.21
-0.215
-0.235
-0.22
-0.24
-0.22
-0.23
-0.205
-0.23
-0.2
-0.225
-0.205
-0.24
-0.225
-0.26
-0.25
-0.275
-0.265
-0.285
-0.275
-0.305
-0.285
-0.32
-0.305
-0.325
-0.31
-0.325
-0.3
-0.325
-0.305
-0.32
-0.3
-0.335
-0.31
-0.34
-0.32
-0.345
-0.33
-0.345
-0.325
-0.34
-0.315
-0.35
-0.32
-0.33
-0.275
-0.275
-0.24
-0.21
-0.145
-0.185
-0.18
-0.2
-0.23
-0.305
-0.355
-0.405
-0.395
-0.405
-0.395
-0.4
-0.385
-0.385
-0.375
-0.27
0.325
1.26
1.345
-0.405
-1.52
-1.29
-0.965
-0.575
-0.4
-0.345
-0.3
-0.3
-0.26
-0.265
-0.24
-0.25
-0.225
-0.23
-0.195
-0.2
-0.165
-0.15
-0.105
-0.07
-0.01
0.025
0.105
0.135
0.2
0.215
0.245
0.22
0.195
0.105
0.045
-0.08
-0.145
-0.235
-0.255
-0.315
-0.33
-0.365
-0.35
-0.38
-0.36
-0.37
-0.345
-0.355
-0.325
-0.345
-0.32
-0.335
-0.325
-0.345
-0.34
-0.37
-0.365
-0.39
-0.38
-0.4
-0.395
-0.415
-0.4
-0.425
-0.41
-0.44
-0.415
-0.43
-0.415
-0.44
-0.42
-0.435
-0.42
-0.425
-0.42
-0.425
-0.41
-0.435
-0.415
-0.425
-0.41
-0.435
-0.41
-0.42
-0.42
-0.42
-0.38
-0.37
-0.325
-0.33
-0.255
-0.24
-0.26
-0.285
-0.28
-0.35
-0.39
-0.45
-0.46
-0.475
-0.46
-0.475
-0.455
-0.455
-0.42
-0.45
-0.21
0.505
1.385
0.745
-0.945
-1.545
-1.255
-0.935
-0.55
-0.47
-0.37
-0.355
-0.325
-0.34
-0.305
-0.32
-0.295
-0.29
-0.265
-0.265
-0.23
-0.22
-0.175
-0.165
-0.105
-0.075
-0.01
0.035
0.1
0.125
0.17
0.165
0.165
0.11
0.045
-0.05
-0.125
-0.22
-0.27
-0.345
-0.35
-0.39
-0.38
-0.4
-0.385
-0.4
-0.39
-0.385
-0.375
-0.385
-0.365
-0.375
-0.35
-0.375
-0.375
-0.395
-0.38
-0.41
-0.4
-0.425
-0.42
-0.435
-0.42
-0.44
-0.425
-0.435
-0.435
-0.455
-0.445
-0.465
-0.445
-0.455
-0.435
-0.455
-0.435
-0.45
-0.43
-0.445
-0.425
-0.445
-0.425
-0.45
-0.435
-0.455
-0.435
-0.445
-0.425
-0.425
-0.375
-0.365
-0.335
-0.305
-0.24
-0.29
-0.285
-0.29
-0.335
-0.415
-0.445
-0.485
-0.475
-0.485
-0.47
-0.48
-0.455
-0.445
-0.455
-0.345
0.255
1.185
1.21
-0.52
-1.56
-1.35
-1.045
-0.65
-0.485
-0.405
-0.37
-0.355
-0.325
-0.33
-0.31
-0.31
-0.295
-0.29
-0.255
-0.255
-0.215
-0.21
-0.165
-0.13
-0.07
-0.04
0.035
0.075
0.125
0.15
0.175
0.165
0.145
0.07
-0.005
-0.095
-0.17
-0.24
-0.295
-0.34
-0.345
-0.385
-0.365
-0.375
-0.37
-0.365
-0.355
-0.36
-0.345
-0.355
-0.33
-0.34
-0.335
-0.355
-0.355
-0.36
-0.36
-0.38
-0.375
-0.385
-0.38
-0.395
-0.395
-0.405
-0.405
-0.42
-0.395
-0.415
-0.395
-0.41
-0.39
-0.41
-0.41
-0.41
-0.405
-0.41
-0.4
-0.4
-0.4
-0.415
-0.4
-0.415
-0.395
-0.41
-0.4
-0.4
-0.345
-0.33
-0.305
-0.275
-0.21
-0.25
-0.255
-0.24
-0.3
-0.375
-0.42
-0.465
-0.455
-0.455
-0.445
-0.445
-0.43
-0.415
-0.44
-0.38
0.165
1.115
1.265
-0.375
-1.505
-1.34
-1.07
-0.655
-0.465
-0.39
-0.345
-0.345
-0.315
-0.305
-0.29
-0.285
-0.28
-0.27
-0.235
-0.24
-0.2
-0.185
-0.14
-0.1
-0.065
-0.02
0.045
0.09
0.15
0.17
0.195
0.18
0.16
0.095
0.01
-0.1
-0.175
-0.25
-0.295
-0.345
-0.36
-0.375
-0.385
-0.395
-0.38
-0.38
-0.375
-0.385
-0.36
-0.36
-0.355
-0.365
-0.365
-0.375
-0.37
-0.375
-0.365
-0.39
-0.39
-0.4
-0.405
-0.415
-0.4
-0.4
-0.41
-0.42
-0.41
-0.42
-0.415
-0.425
-0.425
-0.41
-0.4
-0.425
-0.415
-0.43
-0.415
-0.42
-0.42
-0.41
-0.395
-0.39
-0.36
-0.345
-0.325
-0.27
-0.21
-0.225
-0.24
-0.27
-0.325
-0.39
-0.43
-0.455
-0.465
-0.47
-0.455
-0.445
-0.435
-0.42
-0.47
-0.34
0.425
1.32
0.675
-0.905
-1.4
-1.255
-0.95
-0.575
-0.46
-0.38
-0.345
-0.33
-0.31
-0.3
-0.305
-0.29
-0.265
-0.265
-0.245
-0.225
-0.205
-0.17
-0.14
-0.105
-0.055
0.015
0.075
0.105
0.14
0.165
0.175
0.165
0.11
0.05
-0.035
-0.13
-0.215
-0.275
-0.315
-0.33
-0.365
-0.37
-0.36
-0.365
-0.365
-0.35
-0.355
-0.34
-0.335
-0.34
-0.345
-0.335
-0.345
-0.345
-0.37
-0.37
-0.38
-0.385
-0.395
-0.385
-0.4
-0.4
-0.4
-0.4
-0.39
-0.39
-0.4
-0.39
-0.395
-0.395
-0.39
-0.395
-0.39
-0.39
-0.39
-0.375
-0.38
-0.38
-0.365
-0.325
-0.31
-0.29
-0.235
-0.175
-0.195
-0.195
-0.225
-0.29
-0.34
-0.4
-0.42
-0.415
-0.425
-0.42
-0.405
-0.39
-0.37
-0.4
-0.21
0.58
1.495
0.85
-0.855
-1.405
-1.185
-0.855
-0.49
-0.375
-0.3
-0.27
-0.26
-0.235
-0.225
-0.215
-0.195
-0.185
-0.17
-0.155
-0.14
-0.11
-0.075
-0.035
-0.005
0.055
0.1
0.165
0.205
0.245
0.28
0.285
0.255
0.215
0.135
0.065
-0.03
-0.1
-0.15
-0.205
-0.235
-0.24
-0.265
-0.255
-0.255
-0.245
-0.25
-0.24
-0.235
-0.215
-0.22
-0.205
-0.22
-0.21
-0.22
-0.215
-0.225
-0.225
-0.24
-0.24
-0.25
-0.245
-0.26
-0.255
-0.27
-0.265
-0.275
-0.255
-0.275
-0.25
-0.27
-0.25
-0.26
-0.25
-0.25
-0.24
-0.255
-0.24
-0.25
-0.235
-0.24
-0.24
-0.205
-0.165
-0.155
-0.105
-0.055
-0.05
-0.085
-0.07
-0.11
-0.165
-0.23
-0.26
-0.285
-0.27
-0.29
-0.27
-0.27
-0.24
-0.24
-0.185
0.23
1.155
1.765
0.275
-1.285
-1.22
-0.905
-0.5
-0.295
-0.195
-0.165
-0.15
-0.13
-0.115
-0.115
-0.1
-0.08
-0.065
-0.055
-0.03
-0.025
0.02
0.04
0.095
0.135
0.215
0.25
0.325
0.365
0.42
0.43
0.45
0.405
0.35
0.255
0.17
0.08
0.01
-0.06
-0.085
-0.13
-0.14
-0.165
-0.15
-0.17
-0.15
-0.155
-0.13
-0.13
-0.115
-0.125
-0.115
-0.12
-0.11
-0.12
-0.11
-0.13
-0.13
-0.15
-0.135
-0.145
-0.14
-0.165
-0.155
-0.17
-0.155
-0.17
-0.16
-0.175
-0.165
-0.17
-0.16
-0.17
-0.16
-0.165
-0.15
-0.165
-0.15
-0.16
-0.145
-0.155
-0.125
-0.09
-0.07
-0.07
0.015
0.05
0.045
0.015
0.03
-0.035
-0.07
-0.135
-0.155
-0.17
-0.165
-0.165
-0.14
-0.145
-0.11
-0.12
0.0
0.525
1.485
1.725
0.02
-1.235
-0.99
-0.695
-0.28
-0.12
-0.03
0.005
0.05
0.045
0.075
0.07
0.105
0.11
0.145
0.155
0.18
0.19
0.24
0.26
0.33
0.375
0.45
0.505
0.585
0.62
0.685
0.685
0.72
0.665
0.62
0.53
0.445
0.34
0.3
0.24
0.22
0.18
0.18
0.17
0.17
0.17
0.21
0.19
0.215
0.225
0.245
0.24
0.255
0.255
0.275
0.255
0.27
0.24
0.255
0.25
0.275
0.255
0.26
0.245
0.275
0.27
0.275
0.255
0.29
0.27
0.29
0.265
0.295
0.285
0.305
0.285
0.315
0.295
0.31
0.305
0.33
0.32
0.335
0.335
0.39
0.4
0.45
0.47
0.545
0.515
0.505
0.495
0.475
0.39
0.355
0.3
0.32
0.3
0.325
0.305
0.325
0.33
0.365
0.37
0.78
1.65
2.305
0.915
-0.625
-0.65
-0.35
0.01
0.29
0.35
0.415
0.42
0.455
0.445
0.485
0.465
0.495
0.495
0.525
0.53
0.565
0.555
0.595
0.63
0.69
0.715
0.8
0.835
0.92
0.94
0.97
0.955
0.95
0.875
0.805
0.69
0.625
0.53
0.48
0.42
0.415
0.37
0.385
0.36
0.37
0.355
0.37
0.365
0.375
0.365
0.39
0.37
0.37
0.34
0.355
0.33
0.34
0.315
0.325
0.285
0.315
0.285
0.295
0.265
0.29
0.275
0.285
0.27
0.275
0.24
0.26
0.25
0.255
0.245
0.275
0.24
0.255
0.24
0.24
0.215
0.245
0.245
0.28
0.275
0.315
0.3
0.365
0.41
0.425
0.355
0.37
0.275
0.24
0.18
0.165
0.125
0.15
0.12
0.16
0.17
0.185
0.125
0.205
0.735
1.725
1.685
0.085
-0.905
-0.725
-0.485
-0.08
0.065
0.145
0.165
0.205
0.195
0.215
0.21
0.235
0.22
0.245
0.245
0.275
0.26
0.3
0.31
0.385
0.405
0.455
0.5
0.565
0.595
0.635
0.615
0.63
0.575
0.53
0.415
0.355
0.245
0.195
0.105
0.085
0.045
0.055
0.025
0.035
0.01
0.045
0.025
0.06
0.03
0.035
0.015
0.03
0.01
0.01
-0.005
0.0
-0.03
-0.03
-0.065
-0.045
-0.075
-0.065
-0.095
-0.08
-0.08
-0.09
-0.115
-0.1
-0.115
-0.105
-0.115
-0.095
-0.13
-0.11
-0.135
-0.11
-0.135
-0.105
-0.09
-0.075
-0.085
-0.01
0.04
0.055
0.015
0.01
-0.075
-0.125
-0.2
-0.22
-0.23
-0.23
-0.245
-0.225
-0.24
-0.21
-0.24
-0.225
0.185
1.16
1.595
0.095
-1.255
-1.14
-0.96
-0.545
-0.325
-0.235
-0.225
-0.185
-0.175
-0.145
-0.16
-0.145
-0.15
-0.105
-0.12
-0.105
-0.085
-0.045
-0.04
0.015
0.045
0.125
0.145
0.23
0.245
0.295
0.285
0.295
0.25
0.195
0.085
0.005
-0.095
-0.16
-0.22
-0.25
-0.3
-0.3
-0.305
-0.305
-0.33
-0.3
-0.31
-0.28
-0.305
-0.285
-0.31
-0.29
-0.315
-0.29
-0.325
-0.32
-0.355
-0.345
-0.355
-0.345
-0.375
-0.36
-0.38
-0.36
-0.395
-0.375
-0.4
-0.365
-0.4
-0.37
-0.4
-0.39
-0.4
-0.395
-0.395
-0.35
-0.325
-0.285
-0.285
-0.2
-0.185
-0.185
-0.22
-0.24
-0.335
-0.375
-0.44
-0.425
-0.445
-0.425
-0.455
-0.41
-0.425
-0.395
-0.42
-0.03
0.875
1.63
0.275
-1.305
-1.415
-1.145
-0.79
-0.475
-0.425
-0.34
-0.335
-0.295
-0.305
-0.275
-0.285
-0.265
-0.275
-0.235
-0.25
-0.205
-0.205
-0.135
-0.125
-0.07
-0.02
0.05
0.095
0.155
0.17
0.215
0.19
0.195
0.1
0.025
-0.085
-0.14
-0.24
-0.28
-0.325
-0.34
-0.365
-0.365
-0.385
-0.37
-0.395
-0.355
-0.38
-0.345
-0.37
-0.34
-0.365
-0.33
-0.345
-0.335
