signal
-0.22
-0.175
-0.215
-0.24
-0.32
-0.365
-0.41
-0.435
-0.485
-0.5
-0.515
-0.51
-0.52
-0.495
-0.505
-0.425
-0.405
-0.365
0.305
0.845
0.095
-0.82
-1.225
-1.2
-0.93
-0.61
-0.435
-0.365
-0.355
-0.315
-0.3
-0.265
-0.27
-0.225
-0.21
-0.17
-0.14
-0.08
-0.045
0.025
0.07
0.145
0.18
0.24
0.27
0.305
0.28
0.225
0.11
0.02
-0.09
-0.165
-0.245
-0.265
-0.29
-0.285
-0.305
-0.29
-0.3
-0.275
-0.29
-0.28
-0.275
-0.27
-0.29
-0.27
-0.305
-0.295
-0.32
-0.315
-0.335
-0.325
-0.255
-0.135
-0.09
-0.09
-0.125
-0.185
-0.265
-0.295
-0.34
-0.37
-0.4
-0.415
-0.43
-0.395
-0.43
-0.4
-0.36
-0.305
-0.36
0.045
0.885
0.72
-0.38
-0.975
-1.145
-0.96
-0.65
-0.415
-0.315
-0.255
-0.225
-0.185
-0.19
-0.16
-0.155
-0.095
-0.07
-0.03
-0.02
0.03
0.06
0.13
0.175
0.235
0.275
0.32
0.345
0.37
0.325
0.26
0.15
0.065
-0.05
-0.13
-0.205
-0.22
-0.235
-0.215
-0.225
-0.23
-0.26
-0.245
-0.24
-0.205
-0.22
-0.225
-0.26
-0.24
-0.25
-0.235
-0.27
-0.29
-0.32
-0.29
-0.3
-0.285
-0.29
-0.17
-0.06
-0.005
-0.045
-0.1
-0.205
-0.22
-0.285
-0.325
-0.37
-0.36
-0.375
-0.375
-0.395
-0.355
-0.355
-0.305
-0.29
-0.24
0.405
1.005
0.33
-0.59
-1.075
-1.09
-0.855
-0.535
-0.34
-0.24
-0.235
-0.205
-0.195
-0.135
-0.14
-0.125
-0.125
-0.07
-0.025
0.015
0.03
0.115
0.145
0.21
0.26
0.295
0.315
0.355
0.315
0.295
0.185
0.105
-0.015
-0.085
-0.175
-0.205
-0.24
-0.235
-0.255
-0.24
-0.255
-0.24
-0.25
-0.225
-0.25
-0.225
-0.25
-0.24
-0.265
-0.265
-0.295
-0.285
-0.31
-0.3
-0.31
-0.3
-0.325
-0.315
-0.32
-0.21
-0.105
-0.05
-0.08
-0.1
-0.205
-0.24
-0.315
-0.335
-0.39
-0.41
-0.415
-0.41
-0.43
-0.39
-0.4
-0.355
-0.325
-0.345
0.06
0.965
0.795
-0.31
-1.005
-1.175
-1.015
-0.66
-0.42
-0.275
-0.275
-0.23
-0.225
-0.19
-0.195
-0.19
-0.19
-0.115
-0.095
-0.06
-0.02
0.055
0.055
0.145
0.2
0.25
0.28
0.315
0.29
0.275
0.185
0.095
-0.01
-0.09
-0.185
-0.205
-0.24
-0.255
-0.29
-0.265
-0.27
-0.265
-0.275
-0.24
-0.25
-0.245
-0.275
-0.25
-0.27
-0.275
-0.305
-0.305
-0.315
-0.305
-0.325
-0.325
-0.34
-0.325
-0.345
-0.325
-0.28
-0.15
-0.1
-0.105
-0.13
-0.18
-0.26
-0.28
-0.345
-0.36
-0.41
-0.4
-0.41
-0.39
-0.405
-0.38
-0.375
-0.3
-0.375
-0.02
0.91
0.945
-0.19
-0.93
-1.155
-0.995
-0.695
-0.425
-0.305
-0.25
-0.235
-0.195
-0.19
-0.145
-0.145
-0.1
-0.1
-0.055
-0.035
0.03
0.065
0.135
0.17
0.255
0.285
0.345
0.355
0.375
0.32
0.26
0.14
0.055
-0.06
-0.11
-0.18
-0.19
-0.225
-0.21
-0.24
-0.22
-0.235
-0.21
-0.22
-0.2
-0.215
-0.205
-0.22
-0.205
-0.24
-0.225
-0.245
-0.24
-0.27
-0.255
-0.28
-0.27
-0.295
-0.285
-0.3
-0.29
-0.31
-0.27
-0.2
-0.055
-0.045
-0.045
-0.105
-0.155
-0.235
-0.25
-0.31
-0.325
-0.37
-0.35
-0.375
-0.35
-0.375
-0.35
-0.315
-0.255
-0.275
0.31
1.08
0.67
-0.475
-1.045
-1.16
-0.895
-0.565
-0.32
-0.255
-0.21
-0.2
-0.165
-0.16
-0.115
-0.115
-0.085
-0.08
-0.015
0.015
0.07
0.105
0.185
0.22
0.305
0.345
0.385
0.4
0.415
0.35
0.275
0.15
0.06
-0.055
-0.105
-0.185
-0.19
-0.22
-0.225
-0.23
-0.22
-0.255
-0.22
-0.225
-0.225
-0.23
-0.19
-0.22
-0.225
-0.235
-0.2
-0.25
-0.25
-0.27
-0.24
-0.27
-0.27
-0.305
-0.285
-0.28
-0.255
-0.29
-0.285
-0.315
-0.31
-0.325
-0.29
-0.305
-0.285
-0.31
-0.305
-0.33
-0.295
-0.205
-0.065
-0.04
-0.045
-0.09
-0.14
-0.21
-0.23
-0.29
-0.305
-0.355
-0.345
-0.365
-0.345
-0.365
-0.345
-0.33
-0.285
-0.325
0.165
1.04
0.855
-0.295
-0.965
-1.145
-0.94
-0.615
-0.345
-0.25
-0.2
-0.19
-0.145
-0.15
-0.115
-0.11
-0.07
-0.07
-0.025
-0.005
0.045
0.065
0.135
0.185
0.275
0.325
0.4
0.4
0.405
0.335
0.3
0.205
0.125
-0.015
-0.095
-0.165
-0.165
-0.21
-0.22
-0.24
-0.195
-0.21
-0.205
-0.225
-0.19
-0.19
-0.18
-0.215
-0.19
-0.195
-0.195
-0.24
-0.215
-0.23
-0.23
-0.27
-0.245
-0.275
-0.27
-0.275
-0.27
-0.295
-0.255
-0.29
-0.275
-0.28
-0.28
-0.29
-0.275
-0.305
-0.27
-0.295
-0.295
-0.285
-0.275
-0.3
-0.27
-0.31
-0.275
-0.285
-0.285
-0.275
-0.155
-0.06
0.005
-0.04
-0.045
-0.13
-0.195
-0.25
-0.275
-0.325
-0.32
-0.35
-0.335
-0.345
-0.325
-0.325
-0.27
-0.255
-0.25
0.295
1.175
0.79
-0.29
-0.955
-1.08
-0.905
-0.56
-0.335
-0.225
-0.205
-0.16
-0.165
-0.115
-0.135
-0.095
-0.075
-0.05
-0.03
0.03
0.045
0.12
0.14
0.235
0.275
0.35
0.37
0.41
0.39
0.38
0.29
0.215
0.09
0.02
-0.085
-0.125
-0.19
-0.195
-0.215
-0.205
-0.215
-0.205
-0.215
-0.2
-0.215
-0.185
-0.205
-0.18
-0.205
-0.2
-0.22
-0.215
-0.24
-0.23
-0.255
-0.245
-0.275
-0.255
-0.29
-0.265
-0.3
-0.275
-0.305
-0.295
-0.31
-0.3
-0.31
-0.295
-0.325
-0.295
-0.33
-0.3
-0.325
-0.32
-0.325
-0.325
-0.33
-0.315
-0.33
-0.305
-0.27
-0.115
-0.075
-0.04
-0.065
-0.105
-0.215
-0.24
-0.305
-0.335
-0.385
-0.39
-0.395
-0.37
-0.39
-0.355
-0.37
-0.31
-0.32
-0.045
0.885
1.13
0.08
-0.78
-1.15
-1.055
-0.765
-0.46
-0.305
-0.23
-0.23
-0.175
-0.185
-0.155
-0.135
-0.11
-0.105
-0.06
-0.045
0.03
0.05
0.115
0.175
0.265
0.285
0.355
0.385
0.415
0.375
0.345
0.225
0.12
-0.01
-0.07
-0.165
-0.2
-0.24
-0.235
-0.265
-0.25
-0.265
-0.24
-0.26
-0.245
-0.265
-0.24
-0.25
-0.23
-0.265
-0.245
-0.27
-0.255
-0.28
-0.275
-0.305
-0.3
-0.315
-0.295
-0.315
-0.3
-0.325
-0.325
-0.34
-0.325
-0.345
-0.32
-0.34
-0.32
-0.355
-0.34
-0.36
-0.335
-0.35
-0.33
-0.36
-0.345
-0.345
-0.205
-0.105
-0.06
-0.095
-0.09
-0.195
-0.235
-0.31
-0.345
-0.405
-0.405
-0.42
-0.4
-0.42
-0.395
-0.405
-0.345
-0.335
-0.305
0.26
1.14
0.775
-0.355
-1.045
-1.175
-0.985
-0.63
-0.41
-0.29
-0.27
-0.21
-0.215
-0.19
-0.185
-0.145
-0.15
-0.105
-0.09
-0.045
-0.01
0.065
0.095
0.175
0.235
0.325
0.34
0.385
0.39
0.375
0.265
0.18
0.035
-0.055
-0.155
-0.2
-0.26
-0.265
-0.295
-0.275
-0.3
-0.265
-0.285
-0.265
-0.28
-0.26
-0.275
-0.265
-0.265
-0.25
-0.28
-0.26
-0.295
-0.27
-0.315
-0.305
-0.325
-0.325
-0.325
-0.3
-0.345
-0.32
-0.355
-0.355
-0.36
-0.315
-0.345
-0.345
-0.37
-0.34
-0.35
-0.325
-0.345
-0.33
-0.375
-0.365
-0.385
-0.345
-0.26
-0.115
-0.11
-0.075
-0.11
-0.195
-0.285
-0.31
-0.38
-0.37
-0.4
-0.385
-0.4
-0.365
-0.405
-0.385
-0.365
-0.33
-0.38
0.195
1.095
0.875
-0.27
-0.965
-1.17
-0.99
-0.715
-0.45
-0.345
-0.27
-0.265
-0.235
-0.23
-0.175
-0.175
-0.165
-0.155
-0.095
-0.08
-0.025
0.03
0.1
0.135
0.24
0.285
0.33
0.365
0.4
0.325
0.275
0.17
0.05
-0.095
-0.145
-0.215
-0.26
-0.31
-0.275
-0.305
-0.305
-0.315
-0.265
-0.295
-0.29
-0.29
-0.25
-0.275
-0.27
-0.285
-0.25
-0.28
-0.285
-0.305
-0.28
-0.31
-0.32
-0.335
-0.29
-0.335
-0.335
-0.35
-0.315
-0.345
-0.35
-0.37
-0.34
-0.36
-0.355
-0.385
-0.355
-0.36
-0.345
-0.385
-0.37
-0.39
-0.355
-0.365
-0.245
-0.135
-0.07
-0.1
-0.09
-0.2
-0.255
-0.315
-0.345
-0.385
-0.39
-0.415
-0.395
-0.415
-0.4
-0.425
-0.4
-0.375
-0.325
0.005
0.995
1.095
-0.05
-0.95
-1.2
-1.11
-0.77
-0.5
-0.315
-0.315
-0.26
-0.24
-0.22
-0.215
-0.175
-0.19
-0.13
-0.12
-0.07
-0.04
0.025
0.065
0.16
0.21
0.295
0.345
0.4
0.395
0.405
0.305
0.205
0.065
-0.035
-0.165
-0.215
-0.275
-0.285
-0.33
-0.32
-0.33
-0.305
-0.33
-0.315
-0.34
-0.305
-0.315
-0.295
-0.32
-0.295
-0.315
-0.29
-0.315
-0.31
-0.345
-0.335
-0.36
-0.35
-0.37
-0.345
-0.375
-0.36
-0.38
-0.36
-0.38
-0.365
-0.385
-0.36
-0.385
-0.365
-0.38
-0.365
-0.39
-0.37
-0.395
-0.375
-0.4
-0.385
-0.41
-0.38
-0.385
-0.275
-0.175
-0.115
-0.15
-0.165
-0.26
-0.29
-0.325
-0.36
-0.41
-0.415
-0.445
-0.42
-0.44
-0.415
-0.425
-0.395
-0.365
-0.33
-0.08
0.89
1.095
0.035
-0.9
-1.2
-1.125
-0.78
-0.505
-0.325
-0.295
-0.25
-0.24
-0.205
-0.21
-0.17
-0.17
-0.125
-0.12
-0.06
-0.035
0.03
0.08
0.165
0.22
0.315
0.365
0.435
0.445
0.445
0.36
0.275
0.125
0.015
-0.1
-0.155
-0.225
-0.24
-0.285
-0.265
-0.29
-0.275
-0.3
-0.265
-0.275
-0.245
-0.27
-0.24
-0.25
-0.225
-0.24
-0.225
-0.25
-0.235
-0.26
-0.25
-0.275
-0.255
-0.295
-0.28
-0.295
-0.285
-0.315
-0.295
-0.315
-0.305
-0.325
-0.305
-0.325
-0.305
-0.325
-0.295
-0.32
-0.305
-0.325
-0.29
-0.32
-0.3
-0.32
-0.3
-0.325
-0.285
-0.26
-0.15
-0.105
-0.105
-0.165
-0.17
-0.23
-0.24
-0.3
-0.315
-0.355
-0.35
-0.36
-0.335
-0.35
-0.31
-0.33
-0.265
-0.24
-0.175
0.475
1.26
0.7
-0.41
-1.035
-1.105
-0.88
-0.51
-0.31
-0.205
-0.185
-0.135
-0.15
-0.105
-0.11
-0.065
-0.07
-0.025
-0.01
0.055
0.08
0.15
0.195
0.29
0.34
0.435
0.46
0.515
0.515
0.495
0.37
0.285
0.135
0.035
-0.075
-0.115
-0.18
-0.18
-0.22
-0.205
-0.225
-0.2
-0.22
-0.185
-0.21
-0.17
-0.19
-0.165
-0.175
-0.155
-0.17
-0.15
-0.18
-0.16
-0.195
-0.185
-0.205
-0.19
-0.215
-0.2
-0.225
-0.2
-0.24
-0.21
-0.235
-0.22
-0.235
-0.215
-0.235
-0.205
-0.235
-0.215
-0.235
-0.215
-0.23
-0.21
-0.23
-0.195
-0.23
-0.205
-0.225
-0.205
-0.215
-0.155
-0.125
-0.01
0.005
-0.015
-0.065
-0.075
-0.14
-0.14
-0.2
-0.205
-0.24
-0.235
-0.255
-0.225
-0.24
-0.205
-0.22
-0.145
-0.14
0.035
0.89
1.4
0.475
-0.525
-0.97
-0.945
-0.69
-0.34
-0.175
-0.095
-0.08
-0.035
-0.035
0.01
-0.005
0.03
0.035
0.1
0.105
0.165
0.19
0.275
0.315
0.42
0.46
0.55
0.585
0.635
0.615
0.585
0.465
0.37
0.21
0.125
0.015
-0.025
-0.08
-0.08
-0.12
-0.09
-0.12
-0.08
-0.115
-0.09
-0.1
-0.085
-0.095
-0.055
-0.08
-0.06
-0.08
-0.065
-0.085
-0.075
-0.1
-0.085
-0.105
-0.1
-0.12
-0.105
-0.13
-0.11
-0.14
-0.115
-0.145
-0.11
-0.135
-0.12
-0.14
-0.12
-0.145
-0.115
-0.15
-0.13
-0.135
-0.115
-0.15
-0.115
-0.13
-0.105
-0.135
-0.105
-0.13
-0.11
-0.095
-0.015
0.04
0.12
0.07
0.05
-0.01
-0.025
-0.075
-0.08
-0.14
-0.13
-0.16
-0.135
-0.16
-0.135
-0.165
-0.12
-0.09
-0.035
0.02
0.81
1.49
0.865
-0.27
-0.81
-0.905
-0.645
-0.335
-0.085
-0.035
0.03
0.025
0.065
0.05
0.09
0.09
0.145
0.135
0.19
0.22
0.27
0.285
0.405
0.475
0.57
0.58
0.655
0.67
0.71
0.665
0.61
0.44
0.325
0.195
0.145
0.035
0.02
-0.015
-0.02
-0.065
-0.03
-0.05
-0.015
-0.035
-0.01
-0.04
-0.01
-0.025
0.0
-0.03
0.005
-0.035
-0.005
-0.03
-0.015
-0.055
-0.03
-0.06
-0.045
-0.07
-0.055
-0.09
-0.05
-0.08
-0.06
-0.095
-0.065
-0.08
-0.045
-0.06
0.025
0.1
0.135
0.085
0.085
0.005
0.0
-0.045
-0.065
-0.115
-0.115
-0.145
-0.11
-0.135
-0.115
-0.115
-0.035
-0.035
0.005
0.575
1.57
1.34
0.115
-0.725
-0.88
-0.755
-0.42
-0.17
-0.005
0.01
0.08
0.055
0.11
0.095
0.14
0.145
0.19
0.205
0.27
0.285
0.355
0.4
0.51
0.565
0.685
0.725
0.775
0.755
0.745
0.625
0.525
0.365
0.255
0.135
0.1
0.04
0.035
-0.005
0.03
-0.005
0.01
-0.015
0.02
-0.005
0.03
0.01
0.04
0.01
0.035
0.02
0.055
0.015
0.03
0.0
0.015
-0.025
-0.01
-0.03
-0.005
-0.03
-0.02
-0.05
-0.01
-0.03
0.03
0.105
0.15
0.095
0.125
0.06
0.06
-0.01
-0.06
-0.09
-0.08
-0.115
-0.08
-0.1
-0.075
-0.085
-0.025
0.01
0.045
0.445
1.52
1.535
0.285
-0.665
-0.88
-0.75
-0.38
-0.14
0.035
0.035
0.095
0.085
0.125
0.125
0.155
0.145
0.2
0.215
0.29
0.295
0.38
0.435
0.545
0.59
0.69
0.725
0.8
0.785
0.775
0.665
0.56
0.38
0.275
0.15
0.105
0.035
0.04
-0.015
0.01
-0.02
0.005
-0.025
0.01
-0.02
0.01
-0.015
0.015
-0.01
0.025
-0.005
0.015
-0.015
0.01
-0.025
-0.015
-0.055
-0.03
-0.065
-0.045
-0.08
-0.065
-0.08
-0.01
0.075
0.19
0.155
0.15
0.06
0.03
-0.04
-0.065
-0.135
-0.125
-0.17
-0.145
-0.17
-0.145
-0.165
-0.14
-0.1
-0.015
0.03
0.775
1.425
0.77
-0.395
-0.895
-0.95
-0.645
-0.325
-0.095
-0.04
0.005
0.015
0.05
0.045
0.085
0.085
0.14
0.135
0.205
0.215
0.305
0.33
0.425
0.495
0.6
0.635
0.695
0.705
0.725
0.645
0.56
0.385
0.27
0.125
0.065
-0.02
-0.03
-0.055
-0.035
-0.06
-0.05
-0.085
-0.065
-0.08
-0.04
-0.075
-0.055
-0.07
-0.025
-0.065
-0.04
-0.05
-0.045
-0.085
-0.055
-0.09
-0.075
-0.105
-0.09
-0.12
-0.105
-0.13
-0.105
-0.145
-0.105
-0.145
-0.115
-0.145
-0.065
0.03
0.135
0.115
0.125
0.055
-0.01
-0.08
-0.095
-0.17
-0.165
-0.215
-0.195
-0.21
-0.175
-0.21
-0.17
-0.135
-0.07
-0.08
0.57
1.37
0.935
-0.28
-0.87
-1.0
-0.76
-0.435
-0.165
-0.09
-0.04
-0.035
0.01
0.01
0.05
0.035
0.085
0.095
0.15
0.165
0.24
0.27
0.375
0.42
0.525
0.56
0.635
0.65
0.685
0.62
0.56
0.41
0.295
0.15
0.08
-0.005
-0.03
-0.07
-0.055
-0.1
-0.07
-0.105
-0.075
-0.1
-0.07
-0.095
-0.065
-0.08
-0.055
-0.075
-0.055
-0.08
-0.065
-0.095
-0.08
-0.115
-0.105
-0.135
-0.125
-0.15
-0.12
-0.15
-0.13
-0.175
-0.145
-0.165
-0.13
-0.135
-0.025
0.075
0.14
0.085
0.09
0.005
-0.045
-0.115
-0.13
-0.18
-0.195
-0.245
-0.215
-0.235
-0.195
-0.215
-0.18
-0.145
-0.1
0.025
0.955
1.35
0.435
-0.58
-0.955
-0.965
-0.655
-0.365
-0.135
-0.08
-0.055
-0.075
-0.01
-0.005
0.05
0.04
0.085
0.085
0.125
0.135
0.24
0.275
0.345
0.395
0.515
0.545
0.62
0.625
0.655
0.56
0.475
0.31
0.215
0.075
0.04
-0.035
-0.065
-0.115
-0.1
-0.135
-0.105
-0.12
-0.09
-0.125
-0.095
-0.12
-0.09
-0.115
-0.07
-0.1
-0.07
-0.1
-0.08
-0.115
-0.105
-0.135
-0.115
-0.15
-0.125
-0.17
-0.135
-0.17
-0.135
-0.165
-0.09
0.02
0.12
0.07
0.08
-0.005
-0.045
-0.095
-0.11
-0.185
-0.205
-0.215
-0.195
-0.24
-0.2
-0.215
-0.19
-0.14
-0.11
-0.02
0.995
1.53
0.655
-0.48
-0.95
-0.96
-0.7
-0.41
-0.155
-0.115
-0.04
-0.045
0.0
-0.015
0.045
0.025
0.07
0.095
0.145
0.15
0.24
0.295
0.395
0.435
0.545
0.585
0.665
0.645
0.685
0.595
0.505
0.35
0.25
0.1
0.05
-0.02
-0.03
-0.08
-0.055
-0.075
-0.055
-0.085
-0.055
-0.09
-0.055
-0.08
-0.035
-0.06
-0.03
-0.07
-0.04
-0.075
-0.045
-0.08
-0.065
-0.095
-0.085
-0.12
-0.095
-0.13
-0.1
-0.12
-0.095
-0.07
0.07
0.12
0.115
0.07
0.05
-0.035
-0.03
-0.12
-0.14
-0.195
-0.185
-0.21
-0.19
-0.21
-0.175
-0.185
-0.09
-0.08
0.125
0.995
1.475
0.47
-0.57
-1.015
-0.915
-0.645
-0.31
-0.145
-0.06
-0.05
-0.005
-0.005
0.035
0.03
0.08
0.065
0.13
0.14
0.22
0.25
0.34
0.39
0.495
0.55
0.63
0.655
0.705
0.67
0.61
0.465
0.355
0.195
0.105
0.01
-0.02
-0.07
-0.065
-0.1
-0.08
-0.115
-0.085
-0.105
-0.08
-0.105
-0.075
-0.09
-0.065
-0.08
-0.055
-0.09
-0.065
-0.1
-0.09
-0.115
-0.105
-0.13
-0.12
-0.155
-0.125
-0.175
-0.155
-0.18
-0.15
-0.18
-0.165
-0.185
-0.16
-0.18
-0.095
-0.005
0.115
0.065
0.08
-0.02
-0.055
-0.105
-0.13
-0.205
-0.205
-0.24
-0.225
-0.24
-0.21
-0.23
-0.205
-0.175
-0.095
-0.075
0.57
1.335
0.89
-0.345
-0.965
-1.075
-0.79
-0.44
-0.195
-0.145
-0.09
-0.08
-0.03
-0.025
0.025
0.025
0.065
0.065
0.12
0.13
0.205
0.245
0.35
0.41
0.495
0.53
0.625
0.655
0.675
0.605
0.56
0.4
0.275
0.13
0.05
-0.045
-0.065
-0.115
-0.095
-0.14
-0.11
-0.145
-0.11
-0.145
-0.105
-0.13
-0.105
-0.11
-0.095
-0.115
-0.095
-0.13
-0.08
-0.13
-0.12
-0.15
-0.135
-0.185
-0.17
-0.19
-0.17
-0.205
-0.185
-0.215
-0.185
-0.205
-0.18
-0.215
-0.2
-0.23
-0.2
-0.22
-0.195
-0.225
-0.2
-0.235
-0.205
-0.24
-0.21
-0.235
-0.21
-0.2
-0.05
0.03
0.065
0.035
0.015
-0.095
-0.125
-0.18
-0.205
-0.26
-0.27
-0.295
-0.265
-0.28
-0.24
-0.27
-0.22
-0.185
-0.14
0.105
1.085
1.285
0.22
-0.73
-1.04
-0.98
-0.635
-0.365
-0.165
-0.135
-0.07
-0.07
-0.035
-0.045
0.005
0.0
0.05
0.06
0.11
0.125
0.195
0.235
0.335
0.375
0.47
0.51
0.58
0.59
0.615
0.535
0.465
0.325
0.215
0.07
0.015
-0.065
-0.095
-0.145
-0.115
-0.15
-0.135
-0.15
-0.12
-0.15
-0.105
-0.13
-0.115
-0.135
-0.095
-0.125
-0.105
-0.13
-0.115
-0.155
-0.13
-0.17
-0.135
-0.175
-0.155
-0.19
-0.17
-0.205
-0.165
-0.205
-0.185
-0.205
-0.19
-0.21
-0.185
-0.22
-0.19
-0.225
-0.2
-0.215
-0.18
-0.21
-0.205
-0.235
-0.19
-0.205
-0.17
-0.125
0.01
0.035
0.04
0.005
-0.035
-0.12
-0.125
-0.195
-0.21
-0.255
-0.24
-0.275
-0.24
-0.26
-0.215
-0.245
-0.165
-0.15
-0.085
0.61
1.4
0.83
-0.265
-0.905
-0.975
-0.795
-0.475
-0.24
-0.105
-0.11
-0.07
-0.065
-0.015
0.0
0.035
0.025
0.08
0.09
0.15
0.175
0.24
0.28
0.39
0.435
0.51
0.535
0.605
0.585
0.595
0.51
0.405
0.245
0.155
0.025
-0.03
-0.08
-0.08
-0.135
-0.11
-0.13
-0.105
-0.13
-0.1
-0.125
-0.105
-0.12
-0.09
-0.11
-0.095
-0.105
-0.075
-0.125
-0.09
-0.135
-0.13
-0.17
-0.13
-0.165
-0.145
-0.175
-0.15
-0.185
-0.17
-0.185
-0.145
-0.19
-0.175
-0.2
-0.17
-0.205
-0.115
-0.005
0.09
0.05
0.085
-0.01
-0.065
-0.12
-0.145
-0.2
-0.205
-0.26
-0.23
-0.26
-0.235
-0.25
-0.21
-0.165
-0.11
-0.075
0.755
1.455
0.84
-0.315
-0.895
-1.0
-0.755
-0.45
-0.185
-0.13
-0.07
-0.055
-0.02
-0.025
0.025
0.015
0.05
0.07
0.135
0.135
0.215
0.245
0.345
0.385
0.485
0.52
0.595
0.615
0.66
0.605
0.535
0.385
0.28
0.135
0.07
-0.025
-0.025
-0.08
-0.065
-0.095
-0.08
-0.1
-0.085
-0.105
-0.07
-0.085
-0.065
-0.08
-0.035
-0.065
-0.055
-0.08
-0.05
-0.095
-0.08
-0.115
-0.095
-0.125
-0.1
-0.135
-0.105
-0.145
-0.12
-0.15
-0.14
-0.15
-0.115
-0.165
-0.145
-0.145
-0.08
-0.005
0.125
0.12
0.135
0.07
0.015
-0.07
-0.1
-0.175
-0.185
-0.23
-0.21
-0.23
-0.21
-0.225
-0.195
-0.17
-0.08
-0.05
0.495
1.385
1.15
-0.145
-0.85
-1.025
-0.805
-0.47
-0.18
-0.09
-0.045
-0.035
0.025
-0.005
0.045
0.055
0.08
0.095
0.155
0.15
0.23
0.255
0.345
0.4
0.485
0.545
0.625
0.655
0.715
0.65
0.585
0.455
0.345
0.18
0.095
-0.005
-0.015
-0.07
-0.07
-0.11
-0.095
-0.115
-0.08
-0.115
-0.08
-0.095
-0.075
-0.09
-0.06
-0.085
-0.06
-0.09
-0.065
-0.11
-0.1
-0.14
-0.12
-0.145
-0.13
-0.165
-0.15
-0.175
-0.165
-0.18
-0.155
-0.185
-0.155
-0.19
-0.165
-0.2
-0.17
-0.195
-0.175
-0.2
-0.175
-0.195
-0.18
-0.205
-0.17
-0.08
0.07
0.08
0.085
0.02
-0.03
-0.1
-0.125
-0.2
-0.195
-0.245
-0.24
-0.255
-0.23
-0.255
-0.22
-0.225
-0.145
-0.135
0.09
0.95
1.375
0.405
-0.585
-1.01
-0.945
-0.665
-0.325
-0.165
-0.085
-0.085
-0.035
-0.05
0.005
-0.01
0.025
0.035
0.08
0.09
0.155
0.175
0.265
0.3
0.41
0.445
0.54
0.565
0.63
0.61
0.595
0.475
0.39
0.24
0.145
0.015
-0.02
-0.085
-0.085
-0.125
-0.11
-0.135
-0.11
-0.13
-0.095
-0.125
-0.09
-0.105
-0.085
-0.1
-0.08
-0.105
-0.09
-0.13
-0.105
-0.14
-0.125
-0.15
-0.13
-0.17
-0.15
-0.185
-0.16
-0.18
-0.16
-0.185
-0.15
-0.19
-0.175
-0.185
-0.17
-0.195
-0.175
-0.205
-0.17
-0.2
-0.18
-0.2
-0.165
-0.09
0.035
0.06
0.065
-0.005
-0.035
-0.11
-0.115
-0.185
-0.2
-0.255
-0.24
-0.265
-0.24
-0.24
-0.225
-0.23
-0.15
-0.155
-0.05
0.675
1.39
0.72
-0.365
-0.94
-0.975
-0.76
-0.4
-0.205
-0.095
-0.08
-0.04
-0.035
-0.01
-0.015
0.03
0.035
0.085
0.08
0.145
0.16
0.23
0.275
0.37
0.41
0.51
0.54
0.595
0.59
0.58
0.48
0.405
0.26
0.17
0.04
-0.015
-0.08
-0.1
-0.12
-0.11
-0.13
-0.12
-0.13
-0.115
-0.125
-0.11
-0.125
-0.09
-0.12
-0.095
-0.11
-0.095
-0.125
-0.095
-0.13
-0.13
-0.15
-0.12
-0.15
-0.145
-0.18
-0.155
-0.18
-0.15
-0.175
-0.155
-0.165
-0.165
-0.195
-0.18
-0.2
-0.17
-0.175
-0.08
0.015
0.09
0.04
0.03
-0.055
-0.07
-0.135
-0.175
-0.225
-0.22
-0.255
-0.22
-0.235
-0.21
-0.23
-0.2
-0.165
-0.13
-0.09
0.72
1.43
0.855
-0.25
-0.845
-0.955
-0.735
-0.45
-0.175
-0.13
-0.05
-0.04
-0.025
-0.015
0.025
-0.01
0.045
0.075
0.12
0.11
0.195
0.225
0.275
0.33
0.45
0.485
0.535
0.555
0.625
0.58
0.515
0.365
0.255
0.14
0.08
-0.03
-0.08
-0.13
-0.105
-0.11
-0.095
-0.13
-0.11
-0.15
-0.125
-0.135
-0.08
-0.095
-0.075
-0.095
-0.1
-0.14
-0.12
-0.145
-0.11
-0.135
-0.14
-0.18
-0.165
-0.175
-0.14
-0.155
-0.15
-0.195
-0.185
-0.185
-0.145
-0.12
0.02
0.06
0.07
0.05
0.03
-0.065
-0.1
-0.19
-0.19
-0.215
-0.24
-0.275
-0.24
-0.25
-0.205
-0.225
-0.175
-0.165
-0.105
0.47
1.415
1.115
-0.1
-0.855
-1.01
-0.86
-0.51
-0.255
-0.12
-0.125
-0.075
-0.065
-0.02
-0.035
-0.015
-0.005
0.07
0.08
0.11
0.13
0.225
0.255
0.335
0.415
0.49
0.535
0.595
0.585
0.58
0.485
0.39
0.24
0.135
0.015
-0.035
-0.11
-0.125
-0.145
-0.135
-0.175
-0.145
-0.155
-0.145
-0.165
-0.125
-0.14
-0.12
-0.145
-0.12
-0.135
-0.12
-0.145
-0.15
-0.18
-0.165
-0.185
-0.17
-0.2
-0.185
-0.205
-0.195
-0.225
-0.21
-0.23
-0.215
-0.24
-0.225
-0.24
-0.14
-0.02
0.06
0.03
0.035
-0.065
-0.105
-0.165
-0.21
-0.27
-0.275
-0.315
-0.29
-0.31
-0.285
-0.3
-0.27
-0.235
-0.17
-0.105
0.635
1.3
0.675
-0.48
-1.005
-1.085
-0.79
-0.465
-0.24
-0.17
-0.125
-0.115
-0.08
-0.075
-0.055
-0.045
0.0
0.005
0.06
0.085
0.145
0.18
0.27
0.325
0.41
0.46
0.545
0.565
0.605
0.545
0.495
0.35
0.235
0.09
0.01
-0.07
-0.105
-0.145
-0.145
-0.165
-0.15
-0.165
-0.14
-0.17
-0.155
-0.16
-0.14
-0.155
-0.13
-0.155
-0.13
-0.155
-0.135
-0.16
-0.15
-0.19
-0.175
-0.205
-0.195
-0.215
-0.195
-0.225
-0.195
-0.225
-0.22
-0.23
-0.205
-0.23
-0.22
-0.225
-0.22
-0.24
-0.22
-0.24
-0.225
-0.18
-0.035
0.015
0.035
0.005
-0.05
-0.14
-0.145
-0.22
-0.24
-0.285
-0.28
-0.295
-0.29
-0.3
-0.28
-0.29
-0.23
-0.21
-0.175
0.315
1.26
1.05
-0.14
-0.895
-1.08
-0.915
-0.545
-0.31
-0.18
-0.16
-0.11
-0.105
-0.075
-0.075
-0.035
-0.035
0.01
0.02
0.08
0.095
0.165
0.205
0.29
0.35
0.435
0.485
0.545
0.545
0.545
0.47
0.395
0.245
0.145
0.015
-0.04
-0.11
-0.13
-0.17
-0.16
-0.18
-0.155
-0.185
-0.16
-0.185
-0.155
-0.17
-0.145
-0.17
-0.15
-0.17
-0.16
-0.19
-0.18
-0.21
-0.19
-0.22
-0.2
-0.225
-0.21
-0.24
-0.225
-0.245
-0.235
-0.255
-0.23
-0.26
-0.24
-0.26
-0.245
-0.265
-0.25
-0.275
-0.25
-0.265
-0.24
-0.22
-0.14
-0.08
-0.015
-0.08
-0.095
-0.15
-0.175
-0.215
-0.24
-0.285
-0.28
-0.315
-0.29
-0.305
-0.275
-0.295
-0.27
-0.23
-0.175
-0.145
0.58
1.295
0.73
-0.4
-0.965
-1.065
-0.805
-0.485
-0.235
-0.175
-0.12
-0.125
-0.08
-0.1
-0.065
-0.06
-0.015
-0.01
0.04
0.055
0.12
0.15
0.235
0.28
0.38
0.425
0.5
0.515
0.56
0.505
0.465
0.34
0.23
0.095
0.02
-0.085
-0.105
-0.155
-0.145
-0.18
-0.16
-0.175
-0.155
-0.165
-0.145
-0.16
-0.145
-0.155
-0.135
-0.15
-0.135
-0.16
-0.145
-0.17
-0.165
-0.2
-0.185
-0.22
-0.2
-0.22
-0.21
-0.24
-0.225
-0.23
-0.22
-0.24
-0.225
-0.24
-0.225
-0.25
-0.23
-0.24
-0.22
-0.225
-0.145
-0.065
-0.005
-0.035
-0.04
-0.11
-0.125
-0.195
-0.225
-0.265
-0.255
-0.285
-0.265
-0.295
-0.265
-0.27
-0.255
-0.225
-0.155
-0.18
0.35
1.265
1.145
-0.05
-0.805
-1.04
-0.88
-0.56
-0.295
-0.185
-0.135
-0.13
-0.08
-0.09
-0.06
-0.065
-0.03
-0.025
0.04
0.05
0.115
0.135
0.2
0.245
0.345
0.4
0.465
0.495
0.54
0.52
0.48
0.37
0.27
0.125
0.045
-0.06
-0.095
-0.155
-0.145
-0.16
-0.14
-0.155
-0.145
-0.16
-0.145
-0.155
-0.135
-0.145
-0.115
-0.145
-0.125
-0.14
-0.12
-0.155
-0.145
-0.16
-0.155
-0.2
-0.19
-0.205
-0.175
-0.21
-0.195
-0.21
-0.18
-0.205
-0.17
-0.13
-0.005
-0.015
-0.03
-0.06
-0.085
-0.135
-0.19
-0.265
-0.25
-0.255
-0.245
-0.27
-0.24
-0.26
-0.23
-0.225
-0.15
-0.16
0.195
1.205
1.395
0.255
-0.635
-0.97
-0.875
-0.61
-0.31
-0.165
-0.08
-0.08
-0.035
-0.035
-0.025
-0.015
0.02
0.025
0.095
0.1
0.13
0.17
0.25
0.285
0.39
0.455
0.51
0.535
0.61
0.57
0.52
0.425
0.325
0.155
0.08
-0.005
-0.06
-0.115
-0.1
-0.15
-0.14
-0.145
-0.14
-0.15
-0.115
-0.14
-0.11
-0.115
-0.105
-0.115
-0.105
-0.13
-0.11
-0.14
-0.125
-0.145
-0.14
-0.165
-0.145
-0.165
-0.155
-0.185
-0.17
-0.185
-0.165
-0.16
-0.035
-0.01
0.01
-0.025
-0.045
-0.09
-0.135
-0.21
-0.21
-0.24
-0.225
-0.25
-0.23
-0.23
-0.21
-0.225
-0.145
-0.12
-0.07
0.535
1.375
0.895
-0.275
-0.925
-1.015
-0.805
-0.435
-0.235
-0.12
-0.1
-0.055
-0.06
-0.035
-0.035
-0.005
0.01
0.055
0.075
0.13
0.145
0.23
0.27
0.365
0.415
0.515
0.545
0.6
0.605
0.595
0.51
0.405
0.255
0.135
0.02
-0.035
-0.09
-0.105
-0.145
-0.125
-0.16
-0.135
-0.15
-0.13
-0.145
-0.12
-0.145
-0.115
-0.135
-0.115
-0.125
-0.12
-0.145
-0.135
-0.165
-0.15
-0.185
-0.165
-0.2
-0.175
-0.205
-0.18
-0.2
-0.19
-0.22
-0.2
-0.205
-0.17
-0.115
-0.01
-0.03
-0.025
-0.08
-0.095
-0.165
-0.21
-0.26
-0.24
-0.27
-0.265
-0.27
-0.245
-0.265
-0.24
-0.225
-0.155
-0.15
0.245
1.19
1.255
0.045
-0.78
-1.065
-0.9
-0.555
-0.27
-0.155
-0.085
-0.08
-0.055
-0.055
-0.025
-0.03
0.015
0.02
0.065
0.085
0.15
0.17
0.25
0.305
0.39
0.45
0.535
0.565
0.615
0.59
0.56
0.43
0.32
0.175
0.08
-0.02
-0.055
-0.105
-0.11
-0.14
-0.13
-0.145
-0.13
-0.14
-0.12
-0.13
-0.115
-0.135
-0.11
-0.12
-0.105
-0.125
-0.11
-0.135
-0.125
-0.145
-0.14
-0.17
-0.16
-0.18
-0.165
-0.19
-0.175
-0.2
-0.185
-0.19
-0.14
-0.08
0.015
0.0
0.0
-0.045
-0.075
-0.13
-0.175
-0.24
-0.23
-0.265
-0.25
-0.265
-0.235
-0.25
-0.225
-0.22
-0.15
-0.155
0.175
1.135
1.29
0.135
-0.71
-1.03
-0.9
-0.585
-0.29
-0.165
-0.095
-0.095
-0.05
-0.055
-0.025
-0.025
0.01
0.015
0.075
0.09
0.145
0.17
0.25
0.295
0.385
0.435
0.52
0.545
0.595
0.58
0.54
0.425
0.315
0.185
0.08
-0.015
-0.045
-0.11
-0.11
-0.135
-0.125
-0.135
-0.115
-0.14
-0.105
-0.125
-0.11
-0.11
-0.095
-0.115
-0.105
-0.13
-0.105
-0.13
-0.12
-0.165
-0.15
-0.175
-0.16
-0.18
-0.16
-0.19
-0.165
-0.175
-0.11
-0.03
0.005
-0.02
-0.005
-0.08
-0.1
-0.165
-0.22
-0.255
-0.23
-0.26
-0.23
-0.235
-0.225
-0.24
-0.21
-0.165
-0.125
-0.055
0.79
1.355
0.595
-0.425
-0.89
-0.965
-0.72
-0.41
-0.175
-0.135
-0.075
-0.065
-0.05
-0.065
-0.02
0.01
0.035
0.035
0.1
0.125
0.185
0.215
0.295
0.34
0.41
0.46
0.56
0.565
0.585
0.56
0.505
0.36
0.24
0.115
0.035
-0.04
-0.055
-0.1
-0.095
-0.14
-0.115
-0.13
-0.095
-0.115
-0.09
-0.105
-0.095
-0.115
-0.09
-0.095
-0.095
-0.105
-0.105
-0.15
-0.125
-0.145
-0.125
-0.16
-0.15
-0.165
-0.09
-0.005
0.04
0.01
0.015
-0.05
-0.055
-0.13
-0.15
-0.195
-0.205
-0.24
-0.22
-0.23
-0.215
-0.235
-0.205
-0.13
-0.095
-0.005
0.935
1.515
0.645
-0.505
-0.965
-0.975
-0.715
-0.4
-0.135
-0.105
-0.075
-0.065
-0.025
-0.01
0.025
0.02
0.06
0.07
0.14
0.145
0.21
0.27
0.365
0.42
0.51
0.565
0.635
0.645
0.665
0.595
0.52
0.37
0.24
0.11
0.065
-0.025
-0.055
-0.105
-0.09
-0.11
-0.08
-0.095
-0.065
-0.09
-0.06
-0.08
-0.065
-0.075
-0.045
-0.055
-0.045
-0.07
-0.05
-0.09
-0.085
-0.1
0.015
0.105
0.15
0.1
0.095
0.01
-0.045
-0.08
-0.11
-0.165
-0.165
-0.195
-0.2
-0.22
-0.195
-0.21
-0.145
-0.105
-0.055
0.495
1.52
1.285
-0.105
-0.93
-1.015
-0.815
-0.44
-0.225
-0.08
-0.055
-0.025
-0.015
0.02
0.02
0.065
0.08
0.125
0.15
0.215
0.245
0.315
0.365
0.485
0.55
0.645
0.665
0.72
0.725
0.705
0.595
0.485
0.315
0.205
0.1
0.05
-0.01
-0.02
-0.055
-0.03
-0.065
-0.05
-0.07
-0.045
-0.055
-0.03
-0.045
-0.03
-0.055
-0.025
-0.025
-0.005
-0.045
-0.025
-0.005
0.14
0.17
0.16
0.105
0.065
0.01
-0.025
-0.095
-0.1
-0.145
-0.14
-0.165
-0.135
-0.135
-0.115
-0.16
-0.085
-0.06
0.205
1.215
1.52
0.325
-0.665
-0.985
-0.835
-0.515
-0.24
-0.1
-0.025
-0.02
0.035
0.04
0.07
0.08
0.105
0.11
0.17
0.185
0.235
0.275
0.36
0.425
0.515
0.57
0.645
0.675
0.73
0.675
0.61
0.47
0.35
0.205
0.125
0.035
0.025
-0.015
-0.03
-0.05
-0.025
-0.045
-0.035
-0.06
-0.03
-0.04
-0.01
-0.045
-0.02
-0.025
-0.01
-0.045
-0.01
0.055
0.17
0.17
0.145
0.08
0.055
0.005
-0.015
-0.09
-0.125
-0.175
-0.145
-0.165
-0.15
-0.165
-0.125
-0.09
-0.045
-0.065
0.525
1.455
1.205
-0.095
-0.795
-0.915
-0.715
-0.435
-0.18
-0.1
-0.055
-0.05
-0.005
-0.01
0.025
0.045
0.08
0.085
0.145
0.17
0.24
0.275
0.375
0.425
0.505
0.56
0.64
0.655
0.68
0.615
0.535
0.38
0.275
0.145
0.075
-0.01
-0.025
-0.06
-0.06
-0.085
-0.08
-0.075
-0.05
-0.075
-0.055
-0.08
-0.065
-0.07
-0.05
-0.065
-0.02
0.05
0.15
0.13
0.11
0.03
-0.01
-0.07
-0.07
-0.135
-0.165
-0.205
-0.195
-0.225
-0.2
-0.215
-0.2
-0.15
-0.095
-0.14
0.515
1.34
0.94
-0.235
-0.865
-0.955
-0.72
-0.425
-0.19
-0.125
-0.075
-0.07
-0.03
-0.03
0.005
-0.005
0.04
0.055
0.115
0.145
0.205
0.23
0.3
0.365
0.445
0.485
0.54
0.55
0.57
0.51
0.43
0.305
0.195
0.09
0.03
-0.045
-0.055
-0.08
-0.075
-0.1
-0.08
-0.1
-0.08
-0.095
-0.075
-0.08
-0.07
-0.095
-0.08
-0.07
0.03
0.105
0.165
0.105
0.045
-0.045
-0.075
-0.11
-0.125
-0.175
-0.18
-0.215
-0.215
-0.22
-0.2
-0.21
-0.165
-0.135
-0.125
0.15
1.095
1.185
0.115
-0.695
-0.955
-0.86
-0.51
-0.255
-0.105
-0.085
-0.04
-0.03
-0.005
-0.01
0.03
0.03
0.065
0.095
0.15
0.16
0.24
0.28
0.36
0.405
0.48
0.53
0.585
0.585
0.58
0.5
0.4
0.255
0.165
0.04
0.005
-0.055
-0.07
-0.1
-0.085
-0.11
-0.085
-0.075
-0.06
-0.08
-0.065
-0.07
-0.065
-0.09
-0.075
-0.09
-0.07
-0.11
-0.035
0.05
0.135
0.095
0.09
0.02
-0.045
-0.08
-0.12
-0.165
-0.18
-0.235
-0.23
-0.24
-0.21
-0.215
-0.185
-0.135
-0.1
-0.145
0.51
1.245
0.76
-0.29
-0.845
-0.965
-0.77
-0.48
-0.215
-0.13
-0.08
-0.075
-0.025
-0.035
-0.015
-0.005
0.02
0.04
0.105
0.13
0.19
0.215
0.3
0.335
0.415
0.47
0.545
0.54
0.56
0.515
0.45
0.31
0.21
0.11
0.045
-0.045
-0.055
-0.095
-0.08
-0.105
-0.095
-0.1
-0.065
-0.075
-0.075
-0.08
-0.065
-0.095
-0.1
-0.09
-0.08
-0.125
-0.125
-0.135
-0.115
-0.055
0.055
0.08
0.05
-0.005
-0.025
-0.105
-0.125
-0.185
-0.215
-0.255
-0.23
-0.255
-0.25
-0.26
-0.24
-0.225
-0.165
-0.195
0.21
1.245
1.335
0.045
-0.845
-1.08
-0.915
-0.59
-0.315
-0.19
-0.12
-0.11
-0.09
-0.075
-0.035
-0.03
-0.005
-0.005
0.06
0.09
0.14
0.185
0.26
0.305
0.4
0.45
0.49
0.515
0.53
0.495
0.45
0.335
0.215
0.08
-0.005
-0.075
-0.105
-0.15
-0.135
-0.145
-0.15
-0.16
-0.145
-0.125
-0.11
-0.14
-0.11
-0.125
-0.105
-0.12
-0.115
-0.14
-0.145
-0.165
-0.11
-0.03
0.065
0.055
0.035
-0.04
-0.065
-0.115
-0.145
-0.21
-0.24
-0.29
-0.265
-0.275
-0.265
-0.265
-0.25
-0.215
-0.15
-0.11
0.65
1.455
0.83
-0.455
-1.04
-1.03
-0.74
-0.425
-0.205
-0.155
-0.1
-0.07
-0.065
-0.07
-0.025
-0.01
0.015
0.03
0.1
0.12
0.185
0.24
0.32
0.37
0.455
0.505
0.57
0.59
0.58
0.52
0.43
0.275
0.17
0.05
-0.015
-0.085
-0.11
-0.135
-0.14
-0.145
-0.13
-0.15
-0.14
-0.14
-0.11
-0.12
-0.105
-0.12
-0.11
-0.13
-0.12
-0.15
-0.135
-0.165
-0.155
-0.175
-0.165
-0.145
-0.015
0.055
0.08
0.035
-0.025
-0.09
-0.11
-0.155
-0.19
-0.24
-0.25
-0.26
-0.265
-0.27
-0.25
-0.26
-0.165
-0.14
-0.115
0.565
1.305
0.675
-0.445
-0.99
-0.97
-0.705
-0.385
-0.2
-0.12
-0.11
-0.065
-0.05
-0.025
-0.02
0.02
0.035
0.065
0.085
0.14
0.175
0.245
0.295
0.38
0.42
0.48
0.515
0.575
0.555
0.52
0.425
0.32
0.19
0.09
0.005
-0.035
-0.095
-0.1
-0.115
-0.11
-0.125
-0.105
-0.11
-0.1
-0.115
-0.1
-0.105
-0.1
-0.105
-0.105
-0.13
-0.115
-0.13
-0.125
-0.15
-0.145
-0.175
-0.185
-0.2
-0.18
-0.2
-0.19
-0.195
-0.155
-0.065
0.055
0.085
0.04
-0.035
-0.09
-0.14
-0.175
-0.225
-0.24
-0.265
-0.24
-0.265
-0.26
-0.265
-0.24
-0.215
-0.145
-0.175
0.31
1.2
0.98
-0.18
-0.86
-1.03
-0.825
-0.5
-0.24
-0.155
-0.1
-0.085
-0.05
-0.05
-0.025
-0.005
0.03
0.045
0.08
0.11
0.15
0.195
0.26
0.325
0.38
0.43
0.485
0.495
0.53
0.505
0.455
0.35
0.25
0.135
0.05
-0.025
-0.07
-0.105
-0.11
-0.125
-0.115
-0.13
-0.1
-0.11
-0.1
-0.11
-0.105
-0.105
-0.095
-0.115
-0.115
-0.135
-0.135
-0.165
-0.155
-0.175
-0.165
-0.18
-0.175
-0.195
-0.19
-0.205
-0.195
-0.21
-0.205
-0.21
-0.19
-0.145
-0.01
0.055
0.055
0.03
-0.03
-0.11
-0.14
-0.19
-0.22
-0.265
-0.27
-0.265
-0.265
-0.275
-0.24
-0.26
-0.195
-0.175
-0.155
0.49
1.25
0.715
-0.34
-0.915
-1.005
-0.805
-0.465
-0.24
-0.145
-0.115
-0.08
-0.065
-0.04
-0.04
-0.01
0.005
0.04
0.06
0.1
0.135
0.19
0.23
0.3
0.35
0.415
0.445
0.485
0.485
0.475
0.405
0.325
0.2
0.11
0.02
-0.03
-0.085
-0.105
-0.12
-0.11
-0.12
-0.12
-0.13
-0.12
-0.125
-0.115
-0.115
-0.105
-0.12
-0.11
-0.13
-0.13
-0.155
-0.16
-0.17
-0.165
-0.185
-0.185
-0.2
-0.185
-0.205
-0.19
-0.2
-0.19
-0.215
-0.21
-0.225
-0.215
-0.21
-0.205
-0.195
-0.075
0.015
0.06
0.035
-0.005
-0.075
-0.12
-0.17
-0.205
-0.24
-0.27
-0.295
-0.275
-0.285
-0.27
-0.28
-0.245
-0.215
-0.225
0.14
1.13
1.175
0.07
-0.75
-1.02
-0.925
-0.62
-0.345
-0.185
-0.17
-0.13
-0.11
-0.08
-0.075
-0.04
-0.035
-0.01
0.025
0.06
0.07
0.13
0.19
0.255
0.3
0.355
0.395
0.455
0.46
0.465
0.415
0.33
0.22
0.125
0.03
-0.045
-0.105
-0.13
-0.16
-0.155
-0.18
-0.155
-0.15
-0.14
-0.155
-0.155
-0.17
-0.145
-0.16
-0.15
-0.155
-0.16
-0.195
-0.185
-0.195
-0.175
-0.21
-0.225
-0.26
-0.255
-0.24
-0.225
-0.235
-0.235
-0.25
-0.24
-0.26
-0.245
-0.22
-0.065
0.04
0.055
0.025
-0.04
-0.13
-0.15
-0.21
-0.26
-0.295
-0.295
-0.315
-0.31
-0.31
-0.295
-0.295
-0.225
-0.21
-0.175
0.505
1.335
0.825
-0.3
-0.95
-1.04
-0.815
-0.515
-0.275
-0.165
-0.145
-0.1
-0.095
-0.075
-0.055
-0.03
-0.025
0.02
0.03
0.085
0.115
0.17
0.23
0.295
0.33
0.42
0.45
0.465
0.49
0.49
0.4
0.285
0.165
0.08
0.0
-0.045
-0.095
-0.105
-0.135
-0.135
-0.165
-0.16
-0.155
-0.145
-0.125
-0.105
-0.14
-0.13
-0.12
-0.13
-0.145
-0.135
-0.16
-0.155
-0.175
-0.18
-0.185
-0.185
-0.21
-0.195
-0.205
-0.21
-0.23
-0.215
-0.23
-0.22
-0.22
-0.215
-0.235
-0.225
-0.24
-0.24
-0.225
-0.105
0.02
0.05
0.0
-0.03
-0.095
-0.145
-0.205
-0.225
-0.275
-0.29
-0.295
-0.29
-0.29
-0.285
-0.28
-0.24
-0.21
-0.17
0.25
1.21
1.105
-0.105
-0.895
-1.095
-0.925
-0.56
-0.315
-0.185
-0.155
-0.12
-0.105
-0.08
-0.075
-0.035
-0.02
0.015
0.035
0.07
0.11
0.17
0.205
0.275
0.335
0.41
0.455
0.51
0.515
0.52
0.435
0.37
0.25
0.14
0.03
-0.04
-0.095
-0.12
-0.155
-0.15
-0.165
-0.155
-0.165
-0.145
-0.155
-0.14
-0.145
-0.135
-0.135
-0.125
-0.135
-0.145
-0.165
-0.16
-0.18
-0.175
-0.2
-0.195
-0.21
-0.205
-0.22
-0.215
-0.225
-0.22
-0.235
-0.225
-0.245
-0.235
-0.24
-0.23
-0.24
-0.24
-0.255
-0.24
-0.255
-0.235
-0.17
-0.025
0.03
0.03
0.025
-0.05
-0.135
-0.16
-0.225
-0.26
-0.29
-0.295
-0.3
-0.28
-0.295
-0.28
-0.275
-0.215
-0.19
-0.115
0.615
1.27
0.59
-0.465
-0.99
-1.035
-0.79
-0.45
-0.245
-0.16
-0.13
-0.095
-0.085
-0.06
-0.045
-0.01
-0.005
0.035
0.05
0.1
0.125
0.19
0.24
0.315
0.36
0.425
0.47
0.515
0.515
0.495
0.42
0.33
0.21
0.12
0.015
-0.035
-0.095
-0.115
-0.145
-0.14
-0.15
-0.145
-0.145
-0.135
-0.14
-0.12
-0.135
-0.12
-0.125
-0.125
-0.145
-0.135
-0.155
-0.145
-0.17
-0.18
-0.185
-0.185
-0.195
-0.195
-0.205
-0.195
-0.21
-0.205
-0.22
-0.205
-0.225
-0.21
-0.215
-0.205
-0.215
-0.21
-0.215
-0.205
-0.22
-0.21
-0.22
-0.21
-0.23
-0.22
-0.225
-0.16
-0.05
0.045
0.035
0.03
-0.05
-0.11
-0.14
-0.19
-0.24
-0.255
-0.29
-0.275
-0.285
-0.27
-0.275
-0.255
-0.225
-0.185
-0.195
0.345
1.25
1.055
-0.105
-0.835
-1.04
-0.855
-0.535
-0.275
-0.165
-0.115
-0.105
-0.07
-0.06
-0.04
-0.03
0.005
0.02
0.055
0.08
0.13
0.17
0.23
0.275
0.355
0.405
0.465
0.49
0.525
0.505
0.465
0.365
0.28
0.155
0.075
-0.02
-0.055
-0.1
-0.1
-0.125
-0.115
-0.12
-0.11
-0.11
-0.105
-0.105
-0.08
-0.095
-0.08
-0.095
-0.09
-0.115
-0.115
-0.135
-0.13
-0.155
-0.155
-0.165
-0.165
-0.175
-0.17
-0.185
-0.175
-0.19
-0.18
-0.195
-0.185
-0.195
-0.18
-0.19
-0.19
-0.195
-0.195
-0.195
-0.2
-0.205
-0.19
-0.185
-0.13
-0.05
0.04
0.035
-0.01
-0.055
-0.09
-0.125
-0.155
-0.205
-0.22
-0.24
-0.235
-0.245
-0.23
-0.23
-0.21
-0.19
-0.15
-0.155
0.31
1.255
1.205
0.045
-0.725
-0.985
-0.835
-0.51
-0.24
-0.115
-0.07
-0.055
-0.025
-0.01
0.015
0.02
0.055
0.065
0.1
0.12
0.165
0.2
0.26
0.31
0.39
0.44
0.5
0.53
0.57
0.545
0.51
0.405
0.31
0.19
0.105
0.02
-0.02
-0.065
-0.075
-0.105
-0.095
-0.11
-0.09
-0.105
-0.08
-0.095
-0.075
-0.08
-0.075
-0.08
-0.075
-0.095
-0.08
-0.105
-0.105
-0.125
-0.125
-0.145
-0.135
-0.145
-0.135
-0.15
-0.155
-0.165
-0.16
-0.165
-0.17
-0.175
-0.165
-0.18
-0.175
-0.185
-0.17
-0.175
-0.165
-0.175
-0.165
-0.145
-0.09
-0.03
0.055
0.05
-0.005
-0.045
-0.08
-0.12
-0.135
-0.2
-0.215
-0.24
-0.22
-0.225
-0.205
-0.22
-0.2
-0.185
-0.155
-0.155
0.3
1.275
1.265
0.105
-0.695
-0.96
-0.825
-0.53
-0.255
-0.13
-0.08
-0.06
-0.035
-0.03
-0.005
-0.005
0.025
0.05
0.09
0.11
0.155
0.195
0.26
0.3
0.37
0.415
0.485
0.515
0.55
0.535
0.495
0.405
0.305
0.195
0.105
0.02
-0.025
-0.08
-0.09
-0.115
-0.105
-0.11
-0.09
-0.095
-0.095
-0.105
-0.095
-0.095
-0.08
-0.085
-0.085
-0.09
-0.095
-0.12
-0.115
-0.135
-0.125
-0.135
-0.14
-0.15
-0.145
-0.16
-0.16
-0.175
-0.165
-0.185
-0.185
-0.19
-0.175
-0.185
-0.17
-0.19
-0.18
-0.18
-0.145
-0.11
-0.015
0.045
0.03
-0.005
-0.035
-0.08
-0.11
-0.17
-0.185
-0.215
-0.215
-0.235
-0.225
-0.225
-0.21
-0.205
-0.135
-0.105
-0.04
0.72
1.445
0.82
-0.26
-0.865
-0.935
-0.72
-0.4
-0.18
-0.08
-0.065
-0.025
-0.015
0.015
0.015
0.04
0.055
0.08
0.105
0.15
0.185
0.245
0.285
0.355
0.42
0.495
0.525
0.575
0.575
0.56
0.485
0.39
0.275
0.17
0.08
0.015
-0.045
-0.055
-0.075
-0.07
-0.09
-0.075
-0.08
-0.07
-0.075
-0.055
-0.07
-0.055
-0.06
-0.05
-0.065
-0.06
-0.08
-0.08
-0.095
-0.085
-0.11
-0.115
-0.125
-0.115
-0.135
-0.125
-0.145
-0.14
-0.15
-0.15
-0.165
-0.155
-0.155
-0.15
-0.17
-0.165
-0.17
-0.155
-0.17
-0.165
-0.15
-0.115
-0.035
0.065
0.05
0.03
0.005
-0.04
-0.085
-0.13
-0.18
-0.185
-0.225
-0.215
-0.22
-0.205
-0.21
-0.19
-0.185
-0.12
-0.1
0.205
1.155
1.38
0.275
-0.65
-0.985
-0.87
-0.55
-0.26
-0.1
-0.05
-0.035
-0.005
0.0
0.025
0.03
0.06
0.08
0.11
0.14
0.185
0.22
0.285
0.33
0.41
0.475
0.54
0.58
0.625
0.615
0.585
0.495
0.385
0.255
0.15
0.065
0.005
-0.05
-0.07
-0.085
-0.08
-0.095
-0.075
-0.08
-0.065
-0.08
-0.06
-0.07
-0.05
-0.055
-0.05
-0.065
-0.065
-0.075
-0.075
-0.08
-0.09
-0.11
-0.11
-0.125
-0.115
-0.13
-0.125
-0.145
-0.135
-0.145
-0.135
-0.15
-0.14
-0.145
-0.145
-0.155
-0.155
-0.15
-0.145
-0.155
-0.145
-0.16
-0.13
-0.12
-0.03
0.05
0.075
0.045
0.035
-0.045
-0.065
-0.12
-0.155
-0.18
-0.195
-0.195
-0.195
-0.195
-0.18
-0.185
-0.165
-0.12
-0.085
0.055
0.925
1.415
0.56
-0.47
-0.9
-0.9
-0.62
-0.315
-0.105
-0.055
-0.025
-0.01
0.025
0.02
0.05
0.055
0.09
0.11
0.14
0.175
0.22
0.265
0.325
0.39
0.465
0.515
0.575
0.595
0.62
0.585
0.525
0.41
0.3
0.18
0.095
0.025
-0.025
-0.065
-0.07
-0.08
-0.075
-0.08
-0.07
-0.07
-0.06
-0.065
-0.05
-0.06
-0.055
-0.06
-0.045
-0.065
-0.06
-0.075
-0.075
-0.08
-0.08
-0.095
-0.09
-0.1
-0.1
-0.115
-0.11
-0.115
-0.11
-0.125
-0.125
-0.135
-0.11
-0.125
-0.115
-0.12
-0.11
-0.125
-0.12
-0.1
-0.05
0.035
0.115
0.095
0.08
0.02
-0.015
-0.06
-0.115
-0.155
-0.155
-0.18
-0.165
-0.175
-0.165
-0.165
-0.15
-0.125
-0.085
-0.08
0.37
1.34
1.33
0.145
-0.665
-0.925
-0.775
-0.455
-0.18
-0.06
-0.015
0.01
0.04
0.045
0.06
0.075
0.1
0.115
0.15
0.175
0.215
0.25
0.315
0.365
0.445
0.505
0.565
0.605
0.635
0.63
0.595
0.505
0.395
0.265
0.165
0.07
0.02
-0.02
-0.04
-0.05
-0.045
-0.05
-0.04
-0.045
-0.025
-0.03
-0.01
-0.015
-0.015
-0.025
-0.025
-0.03
-0.025
-0.04
-0.035
-0.07
-0.06
-0.08
-0.075
-0.09
-0.085
-0.095
-0.09
-0.095
-0.09
-0.105
-0.095
-0.105
-0.1
-0.11
-0.1
-0.115
-0.115
-0.115
-0.08
-0.05
0.055
0.09
0.1
0.08
0.02
-0.015
-0.055
-0.13
-0.15
-0.165
-0.17
-0.175
-0.16
-0.17
-0.145
-0.14
-0.085
-0.075
-0.04
0.605
1.45
1.02
-0.13
-0.795
-0.92
-0.715
-0.38
-0.145
-0.045
-0.025
0.01
0.01
0.045
0.055
0.075
0.08
0.105
0.135
0.175
0.205
0.265
0.32
0.385
0.445
0.515
0.565
0.615
0.635
0.63
0.56
0.47
0.34
0.235
0.13
0.055
-0.005
-0.015
-0.055
-0.055
-0.065
-0.06
-0.065
-0.055
-0.055
-0.045
-0.05
-0.035
-0.03
-0.025
-0.04
-0.045
-0.045
-0.045
-0.06
-0.07
-0.08
-0.085
-0.105
-0.1
-0.105
-0.1
-0.12
-0.115
-0.135
-0.125
-0.13
-0.12
-0.125
-0.125
-0.135
-0.115
-0.115
-0.055
0.045
0.095
0.08
0.06
-0.015
-0.035
-0.1
-0.155
-0.175
-0.175
-0.19
-0.19
-0.19
-0.185
-0.175
-0.16
-0.125
-0.105
-0.01
0.845
1.485
0.76
-0.32
-0.85
-0.92
-0.7
-0.4
-0.16
-0.08
-0.055
-0.035
-0.01
-0.005
0.01
0.02
0.055
0.075
0.105
0.125
0.17
0.215
0.285
0.325
0.395
0.465
0.535
0.56
0.585
0.55
0.495
0.385
0.265
0.135
0.055
-0.015
-0.055
-0.1
-0.105
-0.115
-0.105
-0.105
-0.105
-0.115
-0.11
-0.09
-0.095
-0.11
-0.1
-0.08
-0.095
-0.11
-0.12
-0.14
-0.13
-0.145
-0.145
-0.17
-0.165
-0.175
-0.19
-0.195
-0.19
-0.205
-0.2
-0.2
-0.19
-0.195
-0.17
-0.115
-0.015
0.005
-0.01
-0.04
-0.09
-0.13
-0.185
-0.245
-0.235
-0.255
-0.255
-0.25
-0.24
-0.25
-0.24
-0.215
-0.155
-0.15
0.26
1.275
1.375
0.18
-0.715
-1.02
-0.905
-0.585
-0.3
-0.155
-0.115
-0.09
-0.07
-0.06
-0.04
-0.035
0.0
0.02
0.055
0.065
0.11
0.15
0.215
0.275
0.355
0.41
0.475
0.52
0.56
0.55
0.515
0.41
0.295
0.165
0.065
-0.025
-0.07
-0.115
-0.135
-0.155
-0.145
-0.15
-0.14
-0.145
-0.135
-0.14
-0.13
-0.125
-0.125
-0.13
-0.12
-0.13
-0.135
-0.155
-0.15
-0.17
-0.17
-0.185
-0.18
-0.2
-0.2
-0.205
-0.21
-0.22
-0.21
-0.215
-0.21
-0.225
-0.215
-0.215
-0.185
-0.145
-0.04
-0.04
-0.045
-0.075
-0.115
-0.15
-0.205
-0.26
-0.26
-0.275
-0.28
-0.29
-0.27
-0.27
-0.25
-0.25
-0.19
-0.175
0.135
1.11
1.335
0.205
-0.725
-1.05
-0.945
-0.61
-0.32
-0.18
-0.13
-0.105
-0.08
-0.075
-0.045
-0.04
-0.01
-0.005
0.05
0.06
0.105
0.155
0.215
0.27
0.355
0.415
0.485
0.54
0.57
0.57
0.54
0.44
0.335
0.185
0.08
-0.015
-0.075
-0.12
-0.13
-0.15
-0.15
-0.155
-0.155
-0.165
-0.14
-0.15
-0.14
-0.14
-0.125
-0.135
-0.13
-0.14
-0.13
-0.15
-0.15
-0.155
-0.155
-0.175
-0.18
-0.185
-0.185
-0.2
-0.195
-0.205
-0.195
-0.215
-0.205
-0.22
-0.215
-0.21
-0.21
-0.215
-0.195
-0.175
-0.1
-0.025
-0.005
-0.025
-0.045
-0.1
-0.12
-0.195
-0.235
-0.24
-0.25
-0.26
-0.25
-0.265
-0.245
-0.24
-0.21
-0.17
-0.135
0.03
0.93
1.385
0.465
-0.555
-0.965
-0.955
-0.66
-0.35
-0.155
-0.105
-0.075
-0.06
-0.035
-0.025
0.005
0.01
0.035
0.055
0.095
0.125
0.18
0.22
0.29
0.35
0.42
0.485
0.56
0.575
0.59
0.555
0.495
0.375
0.26
0.14
0.05
-0.025
-0.06
-0.095
-0.105
-0.115
-0.105
-0.115
-0.11
-0.11
-0.095
-0.105
-0.08
-0.08
-0.075
-0.085
-0.075
-0.09
-0.08
-0.095
-0.11
-0.115
-0.12
-0.125
-0.13
-0.145
-0.13
-0.15
-0.145
-0.15
-0.145
-0.155
-0.155
-0.165
-0.155
-0.16
-0.16
-0.165
-0.165
-0.17
-0.14
-0.11
0.0
0.06
0.06
0.025
-0.01
-0.07
-0.1
-0.17
-0.185
-0.195
-0.21
-0.22
-0.215
-0.215
-0.195
-0.195
-0.165
-0.135
-0.11
0.225
1.23
1.365
0.24
-0.65
-0.95
-0.865
-0.55
-0.28
-0.115
-0.08
-0.055
-0.035
-0.005
0.005
0.025
0.04
0.075
0.11
0.14
0.155
0.2
0.255
0.325
0.385
0.45
0.5
0.56
0.595
0.62
0.575
0.495
0.375
0.265
0.135
0.055
-0.015
-0.04
-0.065
-0.09
-0.105
-0.09
-0.095
-0.08
-0.09
-0.08
-0.09
-0.06
-0.06
-0.065
-0.07
-0.06
-0.07
-0.08
-0.08
-0.08
-0.11
-0.11
-0.125
-0.105
-0.115
-0.13
-0.145
-0.145
-0.15
-0.14
-0.15
-0.135
-0.155
-0.15
-0.155
-0.13
-0.05
0.04
0.05
0.045
0.01
-0.04
-0.08
-0.155
-0.205
-0.185
-0.21
-0.2
-0.195
-0.185
-0.19
-0.175
-0.17
-0.11
-0.12
0.185
1.23
1.495
0.415
-0.51
-0.895
-0.845
-0.59
-0.3
-0.115
-0.055
-0.045
-0.02
-0.005
0.025
0.025
0.045
0.07
0.105
0.135
0.155
0.2
0.25
0.31
0.385
0.45
0.53
0.565
0.61
0.615
0.585
0.49
0.38
0.25
0.15
0.045
-0.01
-0.045
-0.07
-0.095
-0.075
-0.085
-0.08
-0.085
-0.08
-0.08
-0.065
-0.075
-0.065
-0.055
-0.055
-0.07
-0.06
-0.08
-0.095
-0.1
-0.105
-0.115
-0.115
-0.13
-0.13
-0.14
-0.135
-0.15
-0.14
-0.155
-0.15
-0.155
-0.145
-0.12
-0.015
0.035
0.04
0.015
-0.015
-0.065
-0.1
-0.175
-0.195
-0.2
-0.205
-0.215
-0.2
-0.21
-0.185
-0.185
-0.135
-0.09
-0.04
0.56
1.47
1.145
-0.1
-0.83
-0.98
-0.79
-0.43
-0.185
-0.08
-0.065
-0.025
-0.02
0.015
0.015
0.04
0.06
0.085
0.1
0.15
0.175
0.23
0.285
0.365
0.435
0.515
0.565
0.615
0.63
0.635
0.56
0.45
0.315
0.195
0.085
0.01
-0.045
-0.075
-0.1
-0.1
-0.1
-0.105
-0.115
-0.105
-0.105
-0.095
-0.095
-0.08
-0.085
-0.075
-0.095
-0.085
-0.105
-0.115
-0.125
-0.13
-0.145
-0.145
-0.155
-0.16
-0.165
-0.165
-0.185
-0.175
-0.185
-0.18
-0.19
-0.185
-0.185
-0.18
-0.18
-0.155
-0.09
0.0
0.01
-0.01
-0.04
-0.075
-0.11
-0.17
-0.225
-0.215
-0.235
-0.235
-0.235
-0.225
-0.225
-0.21
-0.195
-0.135
-0.115
0.13
1.065
1.415
0.37
-0.62
-1.005
-0.925
-0.615
-0.305
-0.145
-0.09
-0.065
-0.05
-0.035
-0.02
-0.015
0.015
0.03
0.065
0.095
0.14
0.175
0.245
0.3
0.375
0.445
0.515
0.56
0.6
0.615
0.58
0.495
0.385
0.245
0.14
0.035
-0.025
-0.07
-0.09
-0.11
-0.115
-0.14
-0.13
-0.13
-0.12
-0.13
-0.11
-0.12
-0.095
-0.105
-0.1
-0.11
-0.105
-0.125
-0.125
-0.14
-0.14
-0.15
-0.15
-0.165
-0.165
-0.175
-0.17
-0.18
-0.175
-0.18
-0.18
-0.19
-0.175
-0.185
-0.185
-0.19
-0.175
-0.17
-0.1
-0.01
0.03
0.015
0.01
-0.07
-0.095
-0.15
-0.195
-0.225
-0.23
-0.24
-0.23
-0.245
-0.225
-0.225
-0.21
-0.19
-0.135
-0.12
0.385
1.335
1.21
-0.025
-0.805
-1.03
-0.835
-0.5
-0.235
-0.125
-0.085
-0.06
-0.035
-0.03
-0.01
-0.005
0.02
0.04
0.08
0.105
0.155
0.19
0.255
0.32
0.39
0.45
0.53
0.565
0.61
0.595
0.56
0.46
0.345
0.21
0.11
0.01
-0.04
-0.08
-0.105
-0.12
-0.115
-0.13
-0.125
-0.13
-0.12
-0.125
-0.11
-0.12
-0.11
-0.115
-0.105
-0.12
-0.12
-0.13
-0.13
-0.145
-0.145
-0.165
-0.165
-0.18
-0.18
-0.195
-0.185
-0.2
-0.185
-0.2
-0.2
-0.2
-0.205
-0.215
-0.205
-0.2
-0.205
-0.215
-0.2
-0.19
-0.155
-0.09
0.02
0.01
-0.005
-0.035
-0.09
-0.135
-0.17
-0.215
-0.23
-0.24
-0.24
-0.24
-0.235
-0.245
-0.225
-0.225
-0.165
-0.135
-0.08
0.59
1.405
0.915
-0.25
-0.9
-1.015
-0.79
-0.44
-0.21
-0.115
-0.095
-0.065
-0.06
-0.03
-0.015
0.01
0.015
0.05
0.09
0.135
0.15
0.21
0.255
0.325
0.395
0.47
0.525
0.575
0.595
0.605
0.545
0.45
0.32
0.21
0.09
0.01
-0.06
-0.08
-0.095
-0.105
-0.12
-0.115
-0.12
-0.105
-0.115
-0.125
-0.12
-0.08
-0.105
-0.08
-0.1
-0.08
-0.105
-0.105
-0.135
-0.13
-0.145
-0.135
-0.15
-0.165
-0.175
-0.175
-0.185
-0.165
-0.185
-0.175
-0.19
-0.18
-0.19
-0.18
-0.185
-0.165
-0.12
-0.01
0.01
0.025
0.01
-0.05
-0.1
-0.155
-0.225
-0.23
-0.235
-0.235
-0.24
-0.235
-0.235
-0.235
-0.225
-0.17
-0.135
-0.13
0.485
1.455
1.185
0.025
-0.74
-0.94
-0.805
-0.49
-0.23
-0.12
-0.105
-0.045
-0.03
-0.005
0.0
0.015
0.02
0.065
0.085
0.11
0.135
0.195
0.245
0.315
0.385
0.46
0.52
0.575
0.605
0.6
0.545
0.475
0.33
0.215
0.095
0.035
-0.035
-0.06
-0.085
-0.085
-0.105
-0.105
-0.095
-0.095
-0.115
-0.085
-0.09
-0.075
-0.085
-0.075
-0.08
-0.09
-0.115
-0.11
-0.13
-0.12
-0.145
-0.14
-0.15
-0.15
-0.16
-0.165
-0.165
-0.155
-0.165
-0.16
-0.165
-0.16
-0.165
-0.15
-0.115
0.01
0.035
0.03
0.02
-0.025
-0.085
-0.135
-0.2
-0.19
-0.21
-0.22
-0.22
-0.205
-0.205
-0.185
-0.175
-0.105
-0.08
0.01
0.785
1.525
0.86
-0.285
-0.87
-0.94
-0.7
-0.355
-0.135
-0.06
-0.04
-0.005
0.005
0.025
0.04
0.065
0.08
0.105
0.13
0.175
0.21
0.27
0.32
0.4
0.465
0.545
0.595
0.655
0.655
0.655
0.58
0.465
0.335
0.215
0.105
0.04
-0.03
-0.05
-0.08
-0.075
-0.08
-0.07
-0.075
-0.07
-0.075
-0.07
-0.07
-0.045
-0.06
-0.05
-0.055
-0.05
-0.075
-0.075
-0.095
-0.085
-0.11
-0.105
-0.125
-0.125
-0.135
-0.125
-0.14
-0.14
-0.15
-0.15
-0.16
-0.145
-0.155
-0.145
-0.16
-0.15
-0.13
-0.04
0.025
0.045
0.01
-0.02
-0.06
-0.08
-0.17
-0.195
-0.2
-0.21
-0.225
-0.22
-0.225
-0.205
-0.205
-0.17
-0.135
-0.08
0.25
1.255
1.415
0.25
-0.69
-1.0
-0.885
-0.53
-0.26
-0.105
-0.07
-0.035
-0.03
-0.005
0.01
0.025
0.045
0.07
0.085
0.135
0.165
0.215
0.275
0.345
0.405
0.485
0.56
0.61
0.645
0.655
0.61
0.525
0.395
0.28
0.145
0.055
-0.015
-0.065
-0.095
-0.095
-0.115
-0.115
-0.12
-0.115
-0.12
-0.105
-0.115
-0.1
-0.105
-0.095
-0.105
-0.095
-0.105
-0.11
-0.13
-0.125
-0.14
-0.145
-0.165
-0.165
-0.17
-0.165
-0.175
-0.165
-0.185
-0.17
-0.185
-0.18
-0.195
-0.185
-0.2
-0.185
-0.175
-0.17
-0.14
-0.025
0.005
0.015
-0.005
-0.055
-0.095
-0.13
-0.205
-0.215
-0.23
-0.235
-0.24
-0.225
-0.23
-0.215
-0.215
-0.17
-0.125
-0.09
0.475
1.435
1.17
-0.06
-0.81
-0.985
-0.8
-0.425
-0.19
-0.07
-0.04
-0.005
0.005
0.03
0.05
0.085
0.11
0.14
0.175
0.24
0.265
0.325
0.37
0.435
0.485
0.565
0.615
0.665
0.69
0.695
0.645
0.56
0.415
0.295
0.175
0.1
0.035
-0.005
-0.03
-0.035
-0.06
-0.05
-0.04
-0.04
-0.06
-0.065
-0.08
-0.1
-0.12
-0.125
-0.145
-0.15
-0.17
-0.165
-0.19
-0.185
-0.215
-0.215
-0.235
-0.225
-0.24
-0.23
-0.235
-0.235
-0.25
-0.245
-0.25
-0.21
-0.155
-0.055
-0.035
-0.04
-0.07
-0.135
-0.19
-0.245
-0.33
-0.325
-0.335
-0.345
-0.34
-0.32
-0.32
-0.31
-0.31
-0.245
-0.235
-0.155
0.63
1.295
0.595
-0.45
-0.99
-1.065
-0.845
-0.505
-0.285
-0.195
-0.185
-0.145
-0.135
-0.125
-0.125
-0.08
-0.065
-0.035
-0.005
0.03
0.045
0.105
0.17
0.255
0.325
0.415
0.475
0.515
0.49
0.49
0.425
0.335
0.205
0.085
-0.035
-0.105
-0.155
-0.18
-0.2
-0.215
-0.225
-0.215
-0.205
-0.205
-0.21
-0.175
-0.175
-0.18
-0.205
-0.19
-0.185
-0.175
-0.2
-0.195
-0.2
-0.205
-0.23
-0.215
-0.215
-0.215
-0.235
-0.205
-0.21
-0.185
-0.105
-0.075
-0.07
-0.055
-0.13
-0.125
-0.195
-0.255
-0.25
-0.265
-0.29
-0.27
-0.255
-0.24
-0.265
-0.24
-0.165
-0.14
0.115
1.185
1.575
0.475
-0.625
-1.025
-0.965
-0.65
-0.36
-0.15
-0.105
-0.08
-0.055
-0.03
-0.02
0.01
0.01
0.04
0.055
0.1
0.145
0.195
0.255
0.325
0.41
0.495
0.56
0.635
0.675
0.68
0.63
0.56
0.4
0.27
0.135
0.025
-0.05
-0.08
-0.11
-0.1
-0.13
-0.135
-0.13
-0.135
-0.17
-0.125
-0.105
-0.12
-0.135
-0.125
-0.11
-0.12
-0.125
-0.115
-0.17
-0.165
-0.195
-0.24
-0.22
-0.175
-0.12
-0.05
-0.07
-0.13
-0.12
-0.08
-0.14
-0.2
-0.255
-0.245
-0.305
-0.28
-0.27
-0.295
-0.29
-0.28
-0.205
-0.145
-0.145
0.49
1.63
1.575
0.08
-0.9
-1.085
-0.88
-0.555
-0.285
-0.155
-0.085
-0.05
-0.05
-0.06
-0.015
-0.005
0.025
0.04
0.105
0.115
0.21
0.24
0.31
0.405
0.485
0.525
0.59
0.665
0.715
0.675
0.595
0.465
0.305
0.17
0.06
-0.025
-0.055
-0.1
-0.12
-0.145
-0.135
-0.135
-0.11
-0.135
-0.13
-0.095
-0.075
-0.09
-0.06
-0.045
-0.025
-0.055
-0.075
-0.08
-0.06
-0.035
0.03
0.09
0.115
0.06
0.005
-0.05
-0.06
-0.11
-0.14
-0.165
-0.18
-0.195
-0.195
-0.205
-0.175
-0.16
-0.1
-0.065
0.02
0.83
1.765
1.095
-0.28
-0.925
-0.915
-0.685
-0.345
-0.16
-0.075
-0.03
0.025
0.04
0.07
0.07
0.08
0.105
0.145
0.175
0.22
0.28
0.385
0.46
0.555
0.615
0.695
0.83
0.88
0.665
0.635
0.63
0.435
0.315
0.17
-0.02
-0.07
-0.11
-0.025
-0.025
-0.18
-0.185
-0.055
-0.165
-0.08
-0.04
-0.17
-0.01
-0.105
-0.09
0.055
-0.055
-0.025
-0.02
0.11
0.095
0.015
0.005
0.115
0.05
-0.14
-0.22
-0.19
-0.285
-0.375
-0.31
-0.375
-0.21
-0.155
-0.43
-0.4
-0.29
0.18
1.26
1.525
0.18
-0.99
-1.16
-0.985
-0.745
-0.325
-0.285
-0.44
-0.24
-0.265
-0.3
-0.19
-0.135
-0.21
-0.125
-0.08
-0.1
-0.185
-0.17
0.16
0.055
0.095
0.2
0.32
0.31
0.42
0.495
0.22
-0.075
-0.03
-0.115
-0.445
-0.325
-0.315
-0.495
-0.57
-0.535
-0.54
-0.625
-0.585
-0.505
-0.555
-0.53
-0.485
-0.43
-0.36
-0.615
-0.605
-0.39
-0.4
-0.43
-0.365
-0.44
-0.525
-0.49
-0.52
-0.665
-0.705
-0.67
-0.595
-0.755
-0.785
-0.715
-0.765
-0.66
-0.59
-0.4
0.575
1.355
0.53
-0.865
-1.5
-1.395
-1.21
-1.01
-0.765
-0.67
-0.59
-0.56
-0.505
-0.485
-0.445
-0.445
-0.39
-0.385
-0.355
-0.23
-0.215
-0.23
-0.11
-0.015
0.045
0.05
0.155
0.24
0.13
0.03
-0.02
-0.19
-0.295
-0.425
-0.365
-0.475
-0.63
-0.63
-0.55
-0.615
-0.63
-0.465
-0.565
-0.67
-0.54
-0.475
-0.505
-0.54
-0.465
-0.385
-0.3
-0.255
-0.32
-0.415
-0.425
-0.46
-0.505
-0.56
-0.58
-0.655
-0.63
-0.61
-0.62
-0.655
-0.675
-0.555
-0.555
-0.4
0.805
1.625
0.62
-0.82
-1.36
-1.295
-1.045
-0.79
-0.585
-0.505
-0.45
-0.425
-0.4
-0.4
-0.36
-0.37
-0.315
-0.305
-0.27
-0.21
-0.165
-0.125
-0.025
0.055
0.115
0.17
0.24
0.25
0.24
0.16
0.045
-0.075
-0.195
-0.305
-0.38
-0.415
-0.425
-0.46
-0.45
-0.47
-0.45
-0.47
-0.445
-0.425
-0.425
-0.43
-0.42
-0.405
-0.41
-0.425
-0.36
-0.255
-0.18
-0.21
-0.2
-0.255
-0.315
-0.345
-0.375
-0.475
-0.515
-0.51
-0.505
-0.48
-0.435
-0.475
-0.515
-0.455
-0.415
-0.255
0.725
1.39
0.505
-0.715
-1.2
-1.135
-0.865
-0.585
-0.395
-0.31
-0.275
-0.26
-0.235
-0.24
-0.2
-0.18
-0.125
-0.065
0.005
0.045
0.1
0.15
0.245
0.345
0.415
0.465
0.53
0.56
0.56
0.495
0.38
0.25
0.135
0.015
-0.05
-0.105
-0.125
-0.145
-0.15
-0.15
-0.135
-0.15
-0.12
-0.115
-0.115
-0.115
-0.105
-0.135
-0.115
-0.08
-0.13
-0.205
-0.23
-0.25
-0.215
-0.24
-0.225
-0.175
-0.045
0.025
0.02
-0.015
-0.065
-0.13
-0.17
-0.205
-0.225
-0.28
-0.28
-0.295
-0.285
-0.295
-0.285
-0.27
-0.2
-0.19
-0.105
0.715
1.36
0.6
-0.485
-1.015
-0.99
-0.73
-0.41
-0.2
-0.12
-0.095
-0.06
-0.035
-0.01
0.005
0.035
0.05
0.085
0.115
0.165
0.2
0.275
0.33
0.4
0.465
0.525
0.57
0.61
0.615
0.58
0.48
0.375
0.255
0.145
0.045
-0.01
-0.045
-0.055
-0.065
-0.065
-0.08
-0.06
-0.06
-0.05
-0.06
-0.045
-0.055
-0.055
-0.06
-0.045
-0.08
-0.065
-0.085
-0.08
-0.105
-0.09
-0.035
0.06
0.115
0.13
0.095
0.045
-0.025
-0.055
-0.1
-0.11
-0.17
-0.165
-0.175
-0.17
-0.165
-0.165
-0.185
-0.115
-0.065
0.03
0.81
1.36
0.585
-0.42
-0.905
-0.88
-0.63
-0.325
-0.14
-0.04
-0.02
0.02
0.03
0.05
0.065
0.09
0.09
0.15
0.185
0.21
0.23
0.3
0.35
0.415
0.51
0.595
0.605
0.655
0.67
0.625
0.54
0.425
0.29
0.185
0.11
0.06
0.005
-0.025
-0.03
-0.025
-0.055
-0.045
-0.04
-0.035
-0.035
-0.025
-0.025
-0.02
-0.03
-0.04
-0.05
-0.03
-0.05
-0.05
-0.035
0.06
0.12
0.185
0.15
0.085
0.02
-0.005
-0.06
-0.09
-0.15
-0.175
-0.15
-0.175
-0.195
-0.15
-0.155
-0.115
-0.075
-0.05
0.625
1.525
1.07
-0.15
-0.835
-0.925
-0.74
-0.42
-0.19
-0.05
-0.005
0.025
0.02
0.075
0.08
0.09
0.125
0.17
0.185
0.24
0.27
0.325
0.37
0.47
0.52
0.59
0.645
0.685
0.68
0.675
0.575
0.45
0.33
0.215
0.11
0.065
0.015
0.005
-0.015
-0.01
-0.015
-0.015
-0.005
0.01
-0.01
0.0
-0.005
0.005
-0.005
-0.01
-0.02
-0.01
-0.04
-0.035
-0.005
0.085
0.145
0.165
0.14
0.1
0.035
0.005
-0.055
-0.1
-0.14
-0.155
-0.18
-0.17
-0.165
-0.15
-0.16
-0.09
-0.065
0.17
1.145
1.595
0.505
-0.59
-0.97
-0.88
-0.56
-0.25
-0.08
-0.025
-0.005
0.04
0.055
0.08
0.095
0.115
0.135
0.175
0.21
0.26
0.3
0.355
0.41
0.5
0.57
0.635
0.665
0.71
0.685
0.63
0.515
0.4
0.255
0.145
0.06
0.015
-0.03
-0.045
-0.065
-0.06
-0.075
-0.065
-0.065
-0.055
-0.045
-0.04
-0.055
-0.03
-0.035
-0.035
-0.055
-0.06
-0.075
-0.065
-0.01
0.085
0.15
0.175
0.12
0.065
-0.005
-0.045
-0.085
-0.13
-0.17
-0.18
-0.195
-0.185
-0.19
-0.175
-0.175
-0.09
-0.04
0.145
1.005
1.375
0.385
-0.595
-0.95
-0.835
-0.52
-0.24
-0.1
-0.045
-0.005
0.035
0.04
0.04
0.075
0.105
0.11
0.145
0.175
0.225
0.27
0.345
0.395
0.49
0.53
0.6
0.635
0.67
0.65
0.605
0.49
0.37
0.245
0.145
0.055
0.015
-0.03
-0.035
-0.05
-0.045
-0.065
-0.05
-0.06
-0.045
-0.045
-0.03
-0.035
-0.04
-0.06
-0.055
-0.065
-0.07
-0.085
-0.09
-0.105
-0.1
-0.11
-0.095
-0.01
0.11
0.14
0.12
0.07
0.01
-0.055
-0.085
-0.145
-0.17
-0.205
-0.205
-0.215
-0.2
-0.215
-0.205
-0.17
-0.11
-0.095
0.38
1.275
1.12
-0.08
-0.81
-0.985
-0.805
-0.465
-0.205
-0.1
-0.05
-0.03
-0.005
0.0
0.025
0.035
0.08
0.085
0.125
0.16
0.21
0.25
0.31
0.365
0.43
0.485
0.545
0.575
0.6
0.57
0.515
0.405
0.3
0.17
0.09
0.015
-0.03
-0.07
-0.075
-0.085
-0.08
-0.09
-0.075
-0.08
-0.07
-0.065
-0.06
-0.07
-0.065
-0.075
-0.075
-0.095
-0.105
-0.115
-0.11
-0.12
-0.125
-0.13
-0.135
-0.145
-0.145
-0.165
-0.15
-0.15
-0.035
0.085
0.14
0.1
0.08
0.0
-0.06
-0.105
-0.15
-0.2
-0.215
-0.22
-0.215
-0.225
-0.205
-0.21
-0.185
-0.15
-0.125
0.21
1.185
1.27
0.13
-0.72
-0.98
-0.865
-0.52
-0.255
-0.11
-0.08
-0.045
-0.025
0.0
0.01
0.035
0.055
0.085
0.11
0.145
0.18
0.24
0.27
0.34
0.395
0.45
0.49
0.54
0.56
0.565
0.52
0.445
0.33
0.225
0.115
0.05
-0.01
-0.035
-0.065
-0.07
-0.08
-0.065
-0.08
-0.07
-0.07
-0.055
-0.065
-0.055
-0.06
-0.055
-0.07
-0.07
-0.09
-0.09
-0.11
-0.105
-0.12
-0.125
-0.135
-0.13
-0.14
-0.125
-0.14
-0.135
-0.145
-0.15
-0.16
-0.14
-0.1
0.025
0.12
0.14
0.105
0.055
-0.035
-0.06
-0.11
-0.155
-0.185
-0.195
-0.205
-0.21
-0.21
-0.205
-0.2
-0.135
-0.11
-0.08
0.52
1.38
1.0
-0.145
-0.825
-0.945
-0.755
-0.42
-0.185
-0.08
-0.05
-0.02
-0.02
0.015
0.03
0.05
0.075
0.11
0.115
0.155
0.205
0.24
0.28
0.36
0.415
0.485
0.51
0.545
0.565
0.57
0.515
0.43
0.305
0.22
0.11
0.05
-0.005
-0.015
-0.03
-0.045
-0.065
-0.045
-0.055
-0.035
-0.035
-0.015
-0.035
-0.035
-0.045
-0.045
-0.055
-0.06
-0.07
-0.075
-0.095
-0.09
-0.1
-0.11
-0.12
-0.1
-0.11
-0.105
-0.12
-0.11
-0.13
-0.115
-0.12
-0.12
-0.115
-0.015
0.095
0.155
0.125
0.115
0.055
-0.025
-0.065
-0.11
-0.15
-0.155
-0.185
-0.175
-0.185
-0.165
-0.175
-0.12
-0.105
-0.095
0.3
1.33
1.38
0.22
-0.655
-0.91
-0.795
-0.475
-0.225
-0.055
-0.025
0.02
0.035
0.065
0.065
0.105
0.105
0.15
0.17
0.205
0.24
0.285
0.335
0.4
0.445
0.515
0.555
0.595
0.62
0.62
0.57
0.495
0.385
0.28
0.185
0.125
0.065
0.035
0.0
0.005
0.005
0.005
-0.005
0.01
0.015
0.035
0.025
0.025
0.025
0.025
0.005
0.005
-0.01
-0.005
-0.035
-0.03
-0.035
-0.04
-0.055
-0.05
-0.055
-0.055
-0.07
-0.055
-0.075
-0.07
-0.08
-0.065
-0.065
-0.07
-0.075
-0.07
-0.08
-0.065
-0.05
0.065
0.18
0.22
0.185
0.15
0.06
0.015
-0.03
-0.065
-0.105
-0.12
-0.135
-0.12
-0.135
-0.125
-0.12
-0.065
-0.025
0.03
0.65
1.46
1.005
-0.185
-0.83
-0.91
-0.665
-0.315
-0.11
-0.005
0.025
0.065
0.08
0.095
0.115
0.14
0.145
0.185
0.21
0.26
0.285
0.34
0.385
0.45
0.51
0.57
0.615
0.655
0.665
0.665
0.6
0.525
0.4
0.295
0.19
0.125
0.065
0.04
0.015
0.015
0.0
0.02
0.015
0.025
0.02
0.025
0.03
0.03
0.03
0.035
0.02
0.015
0.0
-0.005
-0.015
-0.015
-0.035
-0.035
-0.045
-0.05
-0.055
-0.05
-0.06
-0.055
-0.07
-0.055
-0.065
-0.06
-0.075
-0.07
-0.07
-0.07
-0.075
-0.07
-0.075
-0.07
-0.085
-0.075
-0.075
-0.075
-0.08
-0.08
-0.085
-0.06
0.035
0.175
0.205
0.195
0.15
0.085
0.01
-0.025
-0.08
-0.11
-0.14
-0.13
-0.145
-0.135
-0.14
-0.125
-0.095
-0.05
-0.03
0.505
1.41
1.205
-0.015
-0.745
-0.93
-0.735
-0.4
-0.145
-0.04
0.0
0.015
0.05
0.055
0.08
0.09
0.115
0.14
0.165
0.195
0.235
0.27
0.33
0.375
0.44
0.495
0.55
0.585
0.61
0.595
0.56
0.475
0.385
0.265
0.185
0.09
0.045
-0.005
-0.025
-0.035
-0.03
-0.035
-0.035
-0.04
-0.035
-0.035
-0.015
-0.025
-0.025
-0.025
-0.02
-0.045
-0.04
-0.06
-0.065
-0.08
-0.075
-0.09
-0.09
-0.1
-0.105
-0.115
-0.105
-0.12
-0.11
-0.12
-0.12
-0.125
-0.125
-0.135
-0.13
-0.135
-0.13
-0.14
-0.13
-0.145
-0.13
-0.145
-0.13
-0.14
-0.135
-0.145
-0.14
-0.135
-0.07
0.045
0.12
0.12
0.11
0.045
-0.02
-0.065
-0.115
-0.16
-0.17
-0.195
-0.19
-0.195
-0.185
-0.19
-0.17
-0.13
-0.105
0.03
0.89
1.415
0.6
-0.445
-0.905
-0.91
-0.645
-0.325
-0.12
-0.065
-0.02
-0.01
0.015
0.035
0.055
0.065
0.095
0.115
0.155
0.185
0.24
0.265
0.335
0.38
0.45
0.505
0.56
0.58
0.6
0.57
0.525
0.425
0.325
0.215
0.135
0.06
0.015
-0.015
-0.025
-0.04
-0.035
-0.04
-0.035
-0.03
-0.025
-0.035
-0.015
-0.035
-0.01
-0.03
-0.025
-0.045
-0.045
-0.06
-0.055
-0.07
-0.07
-0.09
-0.08
-0.095
-0.095
-0.105
-0.105
-0.11
-0.1
-0.1
-0.1
-0.105
-0.1
-0.105
-0.1
-0.115
-0.105
-0.115
-0.11
-0.115
-0.105
-0.125
-0.11
-0.105
-0.06
0.025
0.115
0.125
0.085
0.05
-0.005
-0.04
-0.07
-0.125
-0.145
-0.175
-0.17
-0.175
-0.16
-0.165
-0.135
-0.115
-0.08
-0.075
0.42
1.39
1.27
0.085
-0.695
-0.935
-0.765
-0.435
-0.175
-0.045
-0.015
0.02
0.04
0.055
0.085
0.095
0.115
0.135
0.165
0.19
0.235
0.275
0.335
0.375
0.445
0.505
0.56
0.595
0.635
0.625
0.585
0.505
0.405
0.29
0.185
0.105
0.055
0.015
-0.005
-0.03
-0.02
-0.025
-0.015
-0.02
-0.005
-0.01
-0.005
-0.005
0.015
-0.005
0.0
-0.015
-0.015
-0.03
-0.03
-0.045
-0.045
-0.06
-0.055
-0.065
-0.06
-0.07
-0.065
-0.075
-0.08
-0.08
-0.08
-0.08
-0.075
-0.085
-0.075
-0.08
-0.075
-0.085
-0.08
-0.09
-0.08
-0.08
-0.045
0.01
0.1
0.145
0.12
0.08
0.05
0.005
-0.025
-0.065
-0.095
-0.12
-0.135
-0.135
-0.11
-0.115
-0.11
-0.105
-0.045
-0.025
0.095
0.9
1.525
0.76
-0.275
-0.8
-0.82
-0.58
-0.255
-0.055
0.03
0.06
0.08
0.09
0.11
0.135
0.155
0.175
0.2
0.215
0.26
0.295
0.345
0.395
0.46
0.515
0.59
0.62
0.67
0.675
0.675
0.615
0.525
0.405
0.305
0.205
0.135
0.08
0.05
0.035
0.035
0.03
0.04
0.03
0.035
0.035
0.035
0.03
0.04
0.04
0.045
0.035
0.04
0.025
0.025
0.005
0.0
-0.01
-0.01
-0.02
-0.02
-0.03
-0.025
-0.035
-0.03
-0.035
-0.04
-0.05
-0.05
-0.055
-0.045
-0.05
-0.045
-0.05
-0.055
-0.055
-0.05
-0.065
-0.03
-0.005
0.095
0.175
0.145
0.105
0.08
0.025
-0.01
-0.05
-0.08
-0.12
-0.12
-0.125
-0.115
-0.12
-0.105
-0.105
-0.045
-0.04
0.015
0.775
1.535
0.955
-0.13
-0.74
-0.84
-0.65
-0.335
-0.105
-0.01
0.015
0.05
0.065
0.09
0.095
0.125
0.135
0.165
0.185
0.215
0.24
0.295
0.335
0.4
0.455
0.52
0.565
0.615
0.625
0.625
0.56
0.47
0.36
0.255
0.155
0.09
0.04
0.015
-0.01
-0.01
-0.025
-0.02
-0.015
-0.01
-0.015
-0.01
0.0
0.015
0.005
0.005
-0.005
-0.005
-0.025
-0.035
-0.045
-0.04
-0.06
-0.06
-0.075
-0.08
-0.08
-0.08
-0.09
-0.08
-0.095
-0.08
-0.095
-0.085
-0.095
-0.09
-0.095
-0.08
-0.095
-0.08
-0.075
-0.015
0.085
0.1
0.095
0.08
0.03
-0.005
-0.07
-0.115
-0.13
-0.135
-0.15
-0.14
-0.145
-0.135
-0.135
-0.105
-0.075
-0.06
0.305
1.325
1.445
0.3
-0.61
-0.915
-0.79
-0.465
-0.195
-0.045
-0.005
0.03
0.045
0.065
0.07
0.095
0.105
0.13
0.15
0.195
0.22
0.27
0.315
0.385
0.445
0.515
0.57
0.615
0.65
0.655
0.615
0.54
0.43
0.305
0.185
0.1
0.04
0.005
-0.035
-0.04
-0.05
-0.05
-0.045
-0.04
-0.05
-0.025
-0.035
-0.035
-0.04
-0.03
-0.04
-0.035
-0.05
-0.055
-0.055
-0.06
-0.08
-0.085
-0.09
-0.095
-0.1
-0.11
-0.12
-0.115
-0.12
-0.115
-0.125
-0.125
-0.13
-0.125
-0.125
-0.12
-0.13
-0.125
-0.14
-0.13
-0.14
-0.12
-0.11
-0.055
0.035
0.095
0.08
0.055
-0.005
-0.035
-0.085
-0.14
-0.17
-0.17
-0.185
-0.18
-0.185
-0.165
-0.175
-0.155
-0.11
-0.065
0.005
0.73
1.47
0.885
-0.275
-0.86
-0.945
-0.68
-0.35
-0.13
-0.05
-0.015
0.01
0.025
0.035
0.055
0.07
0.1
0.115
0.155
0.175
0.225
0.265
0.325
0.375
0.455
0.51
0.57
0.6
0.63
0.615
0.57
0.47
0.365
0.24
0.145
0.07
0.02
-0.025
-0.035
-0.05
-0.045
-0.045
-0.035
-0.045
-0.03
-0.03
-0.025
-0.025
-0.015
-0.02
-0.005
-0.025
-0.025
-0.04
-0.04
-0.055
-0.055
-0.07
-0.065
-0.08
-0.085
-0.08
-0.075
-0.08
-0.09
-0.09
-0.09
-0.105
-0.09
-0.105
-0.09
-0.105
-0.105
-0.11
-0.1
-0.11
-0.1
-0.11
-0.095
-0.075
-0.025
0.055
0.135
0.125
0.095
0.04
0.01
-0.035
-0.08
-0.105
-0.125
-0.145
-0.12
-0.13
-0.115
-0.115
-0.095
-0.07
-0.03
-0.015
0.505
1.45
1.295
0.08
-0.675
-0.895
-0.7
-0.37
-0.115
0.005
0.05
0.06
0.09
0.095
0.125
0.13
0.15
0.18
0.205
0.24
0.275
0.315
0.375
0.43
0.495
0.56
0.63
0.665
0.695
0.695
0.66
0.565
0.465
0.34
0.25
0.165
0.115
0.065
0.045
0.025
0.03
0.025
0.03
0.025
0.03
0.03
0.04
0.045
0.06
0.05
0.055
0.05
0.05
0.035
0.035
0.015
0.015
0.0
0.0
-0.01
-0.005
-0.015
-0.01
-0.025
-0.02
-0.025
-0.015
-0.03
-0.03
-0.03
-0.02
-0.025
-0.035
-0.04
-0.03
-0.03
-0.035
-0.04
-0.025
0.0
0.08
0.17
0.19
0.165
0.155
0.08
0.045
-0.005
-0.035
-0.06
-0.075
-0.08
-0.08
-0.08
-0.065
-0.065
-0.04
0.0
0.025
0.21
1.135
1.58
0.665
-0.35
-0.78
-0.77
-0.485
-0.2
0.005
0.05
0.09
0.11
0.135
0.14
0.155
0.17
0.195
0.22
0.255
0.275
0.31
0.355
0.415
0.47
0.535
0.59
0.655
0.695
0.725
0.69
0.64
0.54
0.42
0.295
0.215
0.125
0.105
0.05
0.025
0.01
0.025
0.025
0.03
0.025
0.03
0.02
0.025
0.025
0.03
0.03
0.025
0.015
0.025
0.005
-0.005
-0.025
-0.02
-0.035
-0.03
-0.055
-0.04
-0.05
-0.035
-0.065
-0.065
-0.065
-0.065
-0.08
-0.08
-0.07
-0.08
-0.075
-0.07
-0.08
-0.075
-0.035
0.065
0.12
0.135
0.105
0.08
0.03
-0.015
-0.105
-0.115
-0.125
-0.125
-0.13
-0.135
-0.14
-0.12
-0.125
-0.07
-0.035
-0.01
0.655
1.55
1.155
-0.01
-0.72
-0.87
-0.705
-0.38
-0.14
-0.025
-0.01
0.025
0.04
0.055
0.055
0.09
0.105
0.125
0.14
0.18
0.22
0.265
0.32
0.38
0.435
0.51
0.55
0.61
0.635
0.63
0.575
0.5
0.38
0.27
0.155
0.09
0.02
-0.005
-0.035
-0.035
-0.045
-0.025
-0.035
-0.025
-0.025
-0.01
-0.01
0.0
-0.015
-0.005
-0.015
-0.015
-0.03
-0.035
-0.055
-0.05
-0.07
-0.07
-0.08
-0.075
-0.09
-0.09
-0.08
-0.09
-0.085
-0.08
-0.1
-0.1
-0.1
-0.11
-0.11
-0.08
-0.07
0.035
0.09
0.105
0.07
0.04
-0.01
-0.045
-0.115
-0.14
-0.165
-0.165
-0.165
-0.16
-0.155
-0.14
-0.145
-0.09
-0.05
0.02
0.67
1.52
1.07
-0.135
-0.815
-0.93
-0.705
-0.345
-0.125
-0.02
0.0
0.03
0.04
0.055
0.06
0.09
0.1
0.13
0.155
0.205
0.24
0.285
0.34
0.405
0.47
0.54
0.6
0.65
0.665
0.675
0.615
0.525
0.4
0.27
0.155
0.085
0.025
-0.02
-0.045
-0.045
-0.06
-0.05
-0.05
-0.055
-0.05
-0.035
-0.035
-0.03
-0.03
-0.015
-0.03
-0.025
-0.035
-0.04
-0.06
-0.05
-0.07
-0.075
-0.08
-0.08
-0.105
-0.1
-0.11
-0.11
-0.115
-0.11
-0.12
-0.125
-0.125
-0.12
-0.13
-0.115
-0.13
-0.125
-0.12
-0.08
-0.04
0.06
0.075
0.065
0.04
-0.015
-0.055
-0.105
-0.16
-0.165
-0.175
-0.185
-0.19
-0.17
-0.175
-0.165
-0.15
-0.095
-0.075
0.215
1.175
1.47
0.385
-0.59
-0.96
-0.875
-0.55
-0.24
-0.09
-0.055
-0.025
0.01
0.01
0.025
0.03
0.06
0.08
0.11
0.13
0.17
0.2
0.27
0.31
0.39
0.45
0.525
0.57
0.61
0.615
0.595
0.525
0.42
0.285
0.17
0.07
0.01
-0.04
-0.065
-0.09
-0.095
-0.105
-0.095
-0.1
-0.095
-0.095
-0.08
-0.08
-0.065
-0.075
-0.065
-0.07
-0.07
-0.09
-0.09
-0.105
-0.115
-0.125
-0.13
-0.145
-0.145
-0.15
-0.15
-0.15
-0.15
-0.16
-0.155
-0.165
-0.155
-0.165
-0.165
-0.17
-0.165
-0.175
-0.17
-0.165
-0.145
-0.09
0.01
0.025
0.02
0.01
-0.055
-0.095
-0.145
-0.205
-0.21
-0.23
-0.23
-0.23
-0.23
-0.23
-0.215
-0.21
-0.145
-0.13
-0.015
0.81
1.445
0.67
-0.42
-0.935
-0.955
-0.695
-0.365
-0.17
-0.095
-0.07
-0.05
-0.03
-0.015
-0.005
0.02
0.035
0.065
0.08
0.125
0.16
0.21
0.26
0.335
0.385
0.455
0.505
0.56
0.575
0.565
0.51
0.415
0.29
0.18
0.07
-0.005
-0.06
-0.09
-0.115
-0.115
-0.125
-0.115
-0.125
-0.105
-0.115
-0.1
-0.1
-0.09
-0.09
-0.08
-0.095
-0.08
-0.095
-0.1
-0.125
-0.13
-0.14
-0.14
-0.145
-0.145
-0.155
-0.155
-0.165
-0.16
-0.175
-0.17
-0.175
-0.165
-0.175
-0.165
-0.175
-0.165
-0.165
-0.17
-0.17
-0.145
-0.115
-0.02
0.055
0.05
0.025
-0.025
-0.065
-0.11
-0.185
-0.21
-0.22
-0.225
-0.225
-0.21
-0.225
-0.205
-0.205
-0.17
-0.135
-0.12
0.26
1.265
1.365
0.215
-0.685
-0.965
-0.845
-0.525
-0.25
-0.105
-0.075
-0.04
-0.03
-0.005
0.005
0.03
0.035
0.075
0.1
0.135
0.155
0.195
0.24
0.305
0.37
0.45
0.505
0.56
0.595
0.615
0.58
0.515
0.405
0.295
0.165
0.075
0.005
-0.035
-0.08
-0.075
-0.09
-0.08
-0.085
-0.08
-0.1
-0.09
-0.085
-0.07
-0.065
-0.065
-0.07
-0.07
-0.075
-0.06
-0.085
-0.08
-0.115
-0.12
-0.125
-0.11
-0.13
-0.13
-0.13
-0.14
-0.145
-0.13
-0.145
-0.135
-0.14
-0.14
-0.14
-0.14
-0.125
-0.11
-0.07
0.04
0.07
0.085
0.075
0.01
-0.055
-0.08
-0.15
-0.17
-0.19
-0.205
-0.205
-0.18
-0.185
-0.155
-0.165
-0.13
-0.1
-0.085
0.625
1.52
1.105
-0.05
-0.75
-0.91
-0.735
-0.415
-0.185
-0.08
-0.05
-0.005
0.01
0.035
0.04
0.035
0.055
0.115
0.135
0.15
0.17
0.24
0.285
0.345
0.4
0.48
0.535
0.585
0.62
0.625
0.56
0.465
0.365
0.25
0.125
0.055
-0.015
-0.03
-0.055
-0.055
-0.055
-0.055
-0.065
-0.07
-0.065
-0.03
-0.035
-0.045
-0.045
-0.035
-0.05
-0.045
-0.06
-0.065
-0.07
-0.065
-0.08
-0.105
-0.11
-0.09
-0.115
-0.115
-0.12
-0.115
-0.125
-0.125
-0.135
-0.12
-0.13
-0.12
-0.115
-0.095
-0.055
0.055
0.095
0.085
0.07
0.02
-0.025
-0.075
-0.145
-0.15
-0.15
-0.165
-0.16
-0.14
-0.145
-0.12
-0.11
-0.045
-0.03
0.245
1.265
1.605
0.53
-0.465
-0.86
-0.805
-0.505
-0.19
-0.02
0.045
0.07
0.095
0.105
0.125
0.135
0.165
0.175
0.205
0.225
0.275
0.315
0.365
0.425
0.505
0.57
0.64
0.695
0.745
0.745
0.73
0.65
0.535
0.4
0.29
0.185
0.125
0.08
0.04
0.015
0.015
0.015
0.01
0.01
0.025
0.025
0.04
0.04
0.045
0.04
0.05
0.035
0.03
0.015
0.01
-0.005
-0.01
-0.03
-0.03
-0.035
-0.035
-0.055
-0.04
-0.065
-0.055
-0.065
-0.05
-0.055
-0.065
-0.055
-0.045
-0.01
0.1
0.135
0.13
0.11
0.06
0.02
-0.03
-0.09
-0.1
-0.11
-0.115
-0.125
-0.11
-0.11
-0.1
-0.105
-0.03
0.015
0.125
0.87
1.605
0.935
-0.265
-0.84
-0.88
-0.615
-0.25
-0.055
0.025
0.055
0.08
0.085
0.1
0.115
0.135
0.15
0.175
0.205
0.245
0.28
0.335
0.385
0.475
0.53
0.61
0.67
0.725
0.74
0.73
0.66
0.56
0.41
0.285
0.165
0.095
0.035
0.005
-0.025
-0.03
-0.045
-0.03
-0.045
-0.025
-0.035
-0.025
-0.015
-0.01
-0.015
-0.005
-0.015
-0.01
-0.02
-0.03
-0.04
-0.04
-0.06
-0.055
-0.07
-0.075
-0.095
-0.085
-0.095
-0.08
-0.105
-0.095
-0.115
-0.105
-0.11
-0.105
-0.11
-0.105
-0.115
-0.095
-0.065
0.015
0.08
0.09
0.08
0.045
-0.01
-0.03
-0.095
-0.13
-0.14
-0.155
-0.165
-0.145
-0.145
-0.135
-0.125
-0.095
-0.065
-0.035
0.335
1.35
1.46
0.28
-0.635
-0.935
-0.81
-0.455
-0.195
-0.045
-0.015
0.02
0.04
0.065
0.08
0.095
0.105
0.14
0.16
0.195
0.225
0.275
0.335
0.405
0.465
0.535
0.6
0.66
0.69
0.72
0.675
0.605
0.485
0.37
0.23
0.15
0.08
0.04
0.025
0.01
-0.005
0.0
-0.01
0.005
-0.005
0.005
-0.005
-0.005
-0.01
0.005
-0.005
-0.005
-0.015
-0.025
-0.035
-0.04
-0.055
-0.06
-0.065
-0.07
-0.1
-0.105
-0.115
-0.115
-0.135
-0.135
-0.15
-0.14
-0.155
-0.165
-0.155
-0.15
-0.135
-0.065
0.02
0.04
0.015
-0.005
-0.065
-0.095
-0.155
-0.2
-0.21
-0.21
-0.215
-0.21
-0.22
-0.205
-0.2
-0.17
-0.13
-0.1
0.195
1.2
1.395
0.275
-0.66
-0.98
-0.885
-0.56
-0.275
-0.105
-0.08
-0.055
-0.04
-0.01
0.0
0.015
0.02
0.055
0.085
0.115
0.14
0.175
0.23
0.29
0.345
0.425
0.495
0.565
0.6
0.605
0.58
0.515
0.4
0.26
0.13
0.045
-0.035
-0.07
-0.12
-0.135
-0.145
-0.13
-0.15
-0.15
-0.155
-0.145
-0.135
-0.125
-0.13
-0.13
-0.13
-0.125
-0.15
-0.15
-0.165
-0.175
-0.185
-0.195
-0.185
-0.185
-0.2
-0.2
-0.21
-0.215
-0.21
-0.205
-0.2
-0.15
-0.06
-0.01
-0.03
-0.035
-0.105
-0.135
-0.2
-0.255
-0.275
-0.29
-0.295
-0.26
-0.28
-0.27
-0.26
-0.24
-0.19
-0.18
-0.025
0.955
1.425
0.515
-0.495
-0.95
-0.975
-0.715
-0.41
-0.205
-0.155
-0.125
-0.09
-0.07
-0.075
-0.05
-0.055
-0.02
0.01
0.055
0.065
0.1
0.155
0.22
0.28
0.355
0.425
0.49
0.53
0.565
0.545
0.495
0.365
0.23
0.105
0.015
-0.065
-0.115
-0.145
-0.15
-0.17
-0.16
-0.15
-0.155
-0.165
-0.15
-0.15
-0.15
-0.14
-0.12
-0.13
-0.135
-0.155
-0.165
-0.165
-0.155
-0.175
-0.185
-0.205
-0.205
-0.205
-0.21
-0.22
-0.195
-0.21
-0.175
-0.05
0.005
-0.01
-0.015
-0.09
-0.12
-0.18
-0.235
-0.25
-0.24
-0.27
-0.265
-0.27
-0.25
-0.245
-0.23
-0.165
-0.13
0.035
0.99
1.505
0.565
-0.505
-0.965
-0.97
-0.675
-0.35
-0.155
-0.105
-0.065
-0.05
-0.025
-0.015
0.01
0.02
0.05
0.075
0.115
0.15
0.19
0.24
0.305
0.38
0.45
0.515
0.585
0.615
0.645
0.62
0.555
0.425
0.295
0.165
0.08
-0.015
-0.05
-0.085
-0.095
-0.11
-0.105
-0.105
-0.1
-0.095
-0.095
-0.09
-0.08
-0.08
-0.08
-0.08
-0.08
-0.09
-0.095
-0.11
-0.115
-0.12
-0.13
-0.145
-0.145
-0.155
-0.15
-0.155
-0.15
-0.17
-0.165
-0.155
-0.135
-0.085
0.025
0.04
0.025
0.005
-0.045
-0.09
-0.13
-0.2
-0.205
-0.22
-0.22
-0.225
-0.215
-0.21
-0.205
-0.195
-0.125
-0.095
0.085
0.945
1.465
0.55
-0.525
-0.965
-0.94
-0.63
-0.3
-0.125
-0.065
-0.045
-0.005
0.01
0.025
0.035
0.065
0.075
0.105
0.135
0.175
0.225
0.28
0.335
0.42
0.49
0.57
0.615
0.67
0.695
0.695
0.615
0.505
0.36
0.245
0.14
0.07
0.015
-0.025
-0.04
-0.05
-0.05
-0.035
-0.03
-0.015
-0.025
-0.015
0.005
0.025
0.03
0.065
0.13
0.18
0.145
0.155
0.175
0.2
0.215
0.31
0.39
0.4
0.36
0.385
0.4
0.415
0.4
0.38
0.375
0.4
0.385
0.37
0.37
0.415
0.53
0.565
0.535
0.545
0.52
0.485
0.44
0.4
0.37
0.36
0.335
0.33
0.315
0.335
0.335
0.32
0.33
0.35
0.35
0.88
1.81
1.625
0.305
-0.485
-0.705
-0.5
-0.125
0.115
0.2
0.235
0.245
0.24
0.245
0.25
0.23
0.23
0.235
0.24
0.23
0.235
0.25
0.28
0.325
0.375
0.425
0.495
0.56
0.58
0.58
0.535
0.46
0.345
0.215
0.11
0.035
0.02
0.03
0.075
0.135
0.195
0.22
0.24
0.24
0.24
0.21
0.2
0.18
0.16
0.125
0.09
0.05
0.03
-0.01
-0.025
-0.065
-0.095
-0.14
-0.155
-0.18
-0.205
-0.225
-0.22
-0.23
-0.235
-0.24
-0.215
-0.23
-0.225
-0.175
-0.07
-0.055
-0.04
-0.045
-0.12
-0.145
-0.2
-0.26
-0.26
-0.27
-0.265
-0.27
-0.285
-0.275
-0.26
-0.24
-0.18
-0.185
-0.08
0.805
1.45
0.67
-0.405
-0.955
-0.99
-0.795
-0.475
-0.23
-0.13
-0.105
-0.08
-0.045
-0.04
-0.045
-0.025
-0.005
0.035
0.055
0.1
0.135
0.21
0.255
0.31
0.365
0.45
0.515
0.565
0.575
0.545
0.505
0.4
0.275
0.17
0.04
-0.035
-0.065
-0.075
-0.125
-0.135
-0.13
-0.105
-0.11
-0.145
-0.1
-0.09
-0.13
-0.125
-0.09
-0.075
-0.115
-0.125
-0.125
-0.125
-0.135
-0.15
-0.15
-0.155
-0.165
-0.165
-0.17
-0.115
-0.05
-0.015
-0.02
-0.03
-0.1
-0.125
-0.18
-0.235
-0.205
-0.22
-0.25
-0.25
-0.24
-0.225
-0.22
-0.205
-0.175
-0.14
0.09
1.155
1.75
0.69
-0.555
-1.035
-1.0
-0.705
-0.39
-0.185
-0.12
-0.05
-0.035
-0.025
0.005
0.04
0.05
0.08
0.09
0.125
0.155
0.225
0.29
0.355
0.45
0.525
0.575
0.635
0.665
0.705
0.665
0.575
0.435
0.27
0.135
0.065
-0.02
-0.075
-0.08
-0.115
-0.15
-0.12
-0.11
-0.125
-0.095
-0.11
-0.12
-0.05
-0.055
-0.06
-0.055
-0.06
-0.045
-0.045
-0.07
-0.08
-0.08
-0.105
-0.105
-0.01
0.06
0.05
-0.015
-0.055
-0.05
-0.075
-0.12
-0.205
-0.225
-0.2
-0.21
-0.21
-0.235
-0.16
-0.165
-0.145
-0.095
-0.005
0.84
1.97
1.41
-0.205
-1.0
-1.025
-0.78
-0.385
-0.08
0.01
0.02
0.085
0.105
0.115
0.145
0.14
0.17
0.25
0.235
0.25
0.305
0.34
0.43
0.48
0.52
0.63
0.69
0.735
0.735
0.68
0.57
0.445
0.29
0.14
0.025
-0.055
-0.105
-0.16
-0.155
-0.165
-0.19
-0.185
-0.175
-0.155
-0.16
-0.145
-0.12
-0.125
-0.135
-0.11
-0.11
-0.125
-0.125
-0.13
-0.105
0.015
0.085
0.065
0.025
-0.01
-0.05
-0.1
-0.145
-0.185
-0.24
-0.24
-0.265
-0.265
-0.265
-0.24
-0.24
-0.195
-0.15
0.16
1.275
1.85
0.65
-0.68
-1.11
-0.97
-0.625
-0.325
-0.15
-0.065
-0.03
-0.02
-0.015
0.03
0.05
0.07
0.08
0.14
0.205
0.24
0.29
0.38
0.47
0.545
0.625
0.71
0.775
0.8
0.795
0.73
0.595
0.465
0.325
0.195
0.095
0.035
-0.015
-0.03
-0.055
-0.055
-0.055
-0.055
-0.05
-0.04
-0.025
-0.035
-0.025
-0.025
-0.015
-0.015
-0.01
-0.01
-0.035
0.03
0.13
0.175
0.155
0.145
0.1
0.04
-0.005
-0.04
-0.075
-0.11
-0.135
-0.125
-0.12
-0.11
-0.12
-0.125
-0.065
-0.025
0.14
1.055
1.64
0.695
-0.45
-0.89
-0.84
-0.545
-0.235
-0.05
0.015
0.07
0.08
0.1
0.12
0.155
0.175
0.19
0.215
0.26
0.29
0.345
0.415
0.485
0.545
0.64
0.71
0.76
0.795
0.805
0.745
0.65
0.51
0.38
0.29
0.195
0.115
0.065
0.045
0.06
0.065
0.05
0.055
0.08
0.06
0.07
0.065
0.06
0.08
0.1
0.09
0.08
0.06
0.115
0.205
0.295
0.325
0.285
0.24
0.17
0.125
0.095
0.05
0.01
-0.025
-0.015
-0.03
-0.095
-0.09
-0.04
-0.055
-0.035
-0.015
0.415
1.345
1.41
0.285
-0.56
-0.86
-0.715
-0.305
-0.05
0.04
0.085
0.06
0.095
0.13
0.135
0.19
0.21
0.185
0.205
0.31
0.36
0.35
0.41
0.49
0.54
0.595
0.655
0.68
0.705
0.665
0.655
0.605
0.435
0.33
0.26
0.13
0.09
0.06
0.05
0.115
0.13
0.095
0.07
0.07
0.125
0.125
0.135
0.145
0.125
0.15
0.19
0.185
0.185
0.225
0.315
0.35
0.305
0.26
0.22
0.155
0.1
0.065
0.03
-0.03
-0.065
-0.065
-0.065
-0.055
-0.07
-0.04
-0.015
-0.02
0.56
1.57
1.505
0.21
-0.655
-0.85
-0.77
-0.5
-0.19
-0.03
-0.005
0.015
0.035
0.08
0.125
0.165
0.175
0.255
0.29
0.285
0.37
0.455
0.5
0.575
0.64
0.66
0.72
0.78
0.78
0.735
0.67
0.545
0.44
0.32
0.2
0.145
0.115
0.085
0.055
0.075
0.065
0.075
0.055
0.03
0.04
0.065
0.06
0.025
0.035
0.05
0.065
0.135
0.215
0.24
0.23
0.23
0.185
0.08
0.035
0.035
-0.015
-0.07
-0.08
-0.085
-0.075
-0.045
-0.035
-0.02
0.05
0.085
0.495
1.71
2.0
0.655
-0.45
-0.76
-0.675
-0.325
-0.035
0.11
0.17
0.11
0.175
0.295
0.4
0.41
0.425
0.45
0.365
0.4
0.485
0.505
0.6
0.6
0.645
0.745
0.795
0.88
0.875
0.87
0.785
0.69
0.57
0.43
0.365
0.27
0.21
0.205
0.19
0.255
0.23
0.235
0.3
0.355
0.325
0.28
0.265
0.275
0.25
0.25
0.23
0.295
0.335
0.355
0.325
0.24
0.16
0.085
0.04
0.005
-0.04
-0.07
-0.095
-0.125
-0.155
-0.195
-0.24
-0.24
-0.21
-0.095
0.655
1.64
1.095
-0.365
-1.085
-1.075
-0.76
-0.35
-0.105
0.055
0.145
0.24
0.415
0.475
0.505
0.68
0.77
0.83
0.855
0.78
0.79
0.825
0.71
0.615
0.655
0.755
0.73
0.71
0.7
0.655
0.535
0.405
0.225
0.135
0.01
-0.06
-0.075
-0.175
-0.225
-0.245
-0.23
-0.205
-0.165
-0.13
-0.155
-0.11
-0.175
-0.165
-0.14
-0.045
0.085
0.115
0.08
0.095
0.05
0.015
-0.01
-0.035
-0.07
-0.075
-0.04
0.055
0.13
0.215
0.28
0.375
0.415
0.455
0.78
1.855
2.155
0.875
-0.325
-0.665
-0.63
-0.345
-0.095
0.075
0.08
0.055
0.04
0.05
0.02
0.03
0.02
0.015
0.015
0.055
0.05
0.09
0.12
0.18
0.23
0.295
0.335
0.36
0.355
0.335
0.255
0.145
0.01
-0.11
-0.24
-0.285
-0.34
-0.36
-0.37
-0.365
-0.395
-0.395
-0.385
-0.36
-0.34
-0.335
-0.33
-0.29
-0.26
-0.215
-0.135
-0.07
-0.095
-0.105
-0.15
-0.175
-0.24
-0.295
-0.335
-0.35
-0.38
-0.365
-0.38
-0.365
-0.35
-0.345
-0.305
-0.285
-0.06
0.965
1.53
0.54
-0.655
-1.095
-1.08
-0.81
-0.505
-0.29
-0.24
-0.19
-0.15
-0.125
-0.14
-0.095
-0.07
-0.045
-0.025
0.03
0.065
0.115
0.16
0.24
0.305
0.39
0.43
0.475
0.5
0.52
0.425
0.335
0.23
0.115
0.0
-0.065
-0.135
-0.16
-0.195
-0.18
-0.185
-0.17
-0.175
-0.155
-0.165
-0.155
-0.16
-0.16
-0.135
0.005
0.07
0.05
0.005
-0.015
-0.08
-0.115
-0.185
-0.23
-0.265
-0.28
-0.315
-0.305
-0.345
-0.355
-0.355
-0.3
-0.265
-0.205
0.445
1.455
1.125
-0.25
-1.04
-1.11
-0.935
-0.585
-0.345
-0.22
-0.205
-0.165
-0.155
-0.125
-0.115
-0.08
-0.08
-0.035
0.005
0.06
0.095
0.17
0.225
0.285
0.325
0.41
0.45
0.495
0.49
0.45
0.345
0.25
0.115
0.0
-0.1
-0.13
-0.185
-0.18
-0.21
-0.2
-0.205
-0.195
-0.205
-0.19
-0.19
-0.175
-0.19
-0.115
-0.04
0.045
0.025
0.015
-0.06
-0.095
-0.155
-0.18
-0.24
-0.275
-0.315
-0.305
-0.325
-0.315
-0.315
-0.285
-0.235
-0.165
-0.085
0.72
1.535
0.94
-0.3
-0.88
-0.92
-0.665
-0.34
-0.11
-0.06
-0.025
-0.005
0.02
0.02
0.045
0.025
0.055
0.08
0.13
0.155
0.23
0.275
0.36
0.41
0.46
0.47
0.54
0.545
0.55
0.495
0.415
0.26
0.2
0.12
-0.025
-0.125
-0.12
-0.15
-0.15
-0.165
-0.145
-0.165
-0.14
-0.155
-0.135
-0.135
-0.095
-0.02
0.08
0.09
0.085
0.015
-0.045
-0.115
-0.14
-0.205
-0.23
-0.295
-0.28
-0.3
-0.29
-0.295
-0.275
-0.265
-0.185
-0.19
0.285
1.225
1.18
-0.08
-0.895
-1.085
-0.885
-0.56
-0.27
-0.175
-0.125
-0.115
-0.08
-0.055
-0.015
-0.04
0.025
0.07
0.125
0.165
0.26
0.275
0.275
0.28
0.37
0.415
0.5
0.6
0.605
0.485
0.535
0.34
0.07
-0.005
-0.08
-0.18
-0.145
-0.185
-0.185
-0.195
-0.16
-0.155
-0.135
-0.16
-0.145
-0.165
-0.115
-0.065
0.035
0.045
0.035
-0.005
-0.07
-0.155
-0.185
-0.265
-0.285
-0.325
-0.33
-0.355
-0.35
-0.365
-0.34
-0.325
-0.24
-0.24
0.085
1.065
1.215
-0.015
-0.865
-1.115
-0.965
-0.625
-0.34
-0.205
-0.145
-0.15
-0.12
-0.125
-0.08
-0.07
-0.01
0.0
0.04
0.055
0.105
0.135
0.21
0.25
0.32
0.375
0.435
0.46
0.515
0.475
0.43
0.315
0.19
0.065
0.01
-0.1
-0.12
-0.155
-0.145
-0.175
-0.15
-0.165
-0.15
-0.165
-0.13
-0.165
-0.15
-0.125
-0.045
0.03
0.075
0.05
0.045
-0.05
-0.11
-0.165
-0.195
-0.265
-0.275
-0.305
-0.3
-0.315
-0.285
-0.3
-0.245
-0.205
-0.17
0.385
1.39
1.145
-0.17
-0.965
-1.065
-0.895
-0.54
-0.32
-0.195
-0.185
-0.12
-0.115
-0.075
-0.055
-0.02
-0.03
0.01
0.02
0.08
0.115
0.175
0.215
0.285
0.325
0.405
0.425
0.465
0.455
0.435
0.355
0.28
0.15
0.065
-0.04
-0.085
-0.135
-0.13
-0.15
-0.135
-0.15
-0.135
-0.14
-0.115
-0.15
-0.135
-0.145
-0.13
-0.105
0.01
0.075
0.09
0.05
-0.005
-0.08
-0.11
-0.165
-0.205
-0.285
-0.28
-0.29
-0.275
-0.3
-0.275
-0.285
-0.22
-0.2
-0.02
0.865
1.41
0.41
-0.685
-1.095
-1.015
-0.705
-0.38
-0.225
-0.155
-0.135
-0.08
-0.08
-0.05
-0.04
-0.01
0.015
0.065
0.08
0.125
0.15
0.24
0.275
0.35
0.39
0.455
0.47
0.51
0.485
0.445
0.345
0.245
0.12
0.04
-0.065
-0.085
-0.115
-0.115
-0.14
-0.125
-0.135
-0.115
-0.135
-0.12
-0.135
-0.115
-0.125
-0.125
-0.165
-0.08
0.0
0.095
0.08
0.055
-0.025
-0.07
-0.135
-0.165
-0.24
-0.26
-0.305
-0.295
-0.305
-0.275
-0.3
-0.27
-0.225
-0.175
-0.085
0.74
1.215
0.355
-0.685
-1.075
-1.02
-0.665
-0.38
-0.205
-0.165
-0.12
-0.12
-0.075
-0.08
-0.035
-0.025
-0.005
0.02
0.07
0.095
0.17
0.195
0.25
0.28
0.35
0.38
0.455
0.465
0.455
0.375
0.33
0.21
0.125
0.015
-0.055
-0.105
-0.12
-0.16
-0.14
-0.155
-0.14
-0.155
-0.135
-0.145
-0.13
-0.145
-0.145
-0.175
-0.155
-0.185
-0.18
-0.205
-0.18
-0.105
0.02
0.045
0.05
-0.015
-0.065
-0.145
-0.17
-0.235
-0.255
-0.315
-0.295
-0.315
-0.29
-0.305
-0.285
-0.285
-0.225
-0.23
0.04
0.945
1.16
0.055
-0.79
-1.09
-0.96
-0.62
-0.325
-0.21
-0.155
-0.135
-0.095
-0.095
-0.055
-0.05
-0.015
-0.01
0.04
0.06
0.115
0.145
0.205
0.24
0.315
0.345
0.4
0.41
0.45
0.425
0.4
0.3
0.225
0.1
0.035
-0.045
-0.065
-0.115
-0.115
-0.135
-0.11
-0.125
-0.105
-0.13
-0.105
-0.125
-0.105
-0.125
-0.12
-0.15
-0.145
-0.175
-0.17
-0.195
-0.18
-0.2
-0.185
-0.205
-0.16
-0.055
0.075
0.085
0.09
0.025
-0.035
-0.125
-0.16
-0.22
-0.235
-0.285
-0.265
-0.285
-0.27
-0.28
-0.25
-0.235
-0.19
-0.225
0.24
1.17
1.115
-0.07
-0.805
-1.045
-0.875
-0.565
-0.28
-0.175
-0.12
-0.105
-0.075
-0.07
-0.035
-0.035
0.01
0.015
0.065
0.08
0.13
0.155
0.22
0.245
0.31
0.34
0.39
0.4
0.435
0.41
0.385
0.295
0.215
0.105
0.045
-0.04
-0.055
-0.105
-0.095
-0.115
-0.095
-0.115
-0.09
-0.115
-0.09
-0.11
-0.1
-0.13
-0.115
-0.14
-0.135
-0.17
-0.155
-0.18
-0.165
-0.19
-0.175
-0.205
-0.18
-0.2
-0.18
-0.2
-0.18
-0.135
0.015
0.075
0.075
0.05
0.005
-0.09
-0.12
-0.205
-0.22
-0.27
-0.265
-0.285
-0.265
-0.29
-0.255
-0.265
-0.21
-0.21
-0.09
0.755
1.33
0.515
-0.49
-0.99
-0.995
-0.75
-0.415
-0.225
-0.14
-0.13
-0.085
-0.08
-0.04
-0.045
-0.005
0.005
0.045
0.06
0.12
0.135
0.195
0.225
0.295
0.32
0.375
0.385
0.42
0.405
0.405
0.335
0.275
0.165
0.095
-0.005
-0.03
-0.09
-0.09
-0.115
-0.105
-0.12
-0.1
-0.11
-0.08
-0.105
-0.095
-0.115
-0.1
-0.13
-0.12
-0.15
-0.14
-0.165
-0.15
-0.165
-0.155
-0.185
-0.17
-0.195
-0.18
-0.2
-0.18
-0.205
-0.19
-0.21
-0.185
-0.205
-0.145
-0.035
0.08
0.08
0.08
0.015
-0.045
-0.115
-0.155
-0.215
-0.225
-0.275
-0.25
-0.265
-0.24
-0.26
-0.23
-0.215
-0.18
-0.175
0.525
1.36
0.945
-0.205
-0.85
-1.015
-0.79
-0.475
-0.215
-0.135
-0.09
-0.08
-0.035
-0.045
0.005
0.015
0.045
0.055
0.11
0.125
0.175
0.2
0.265
0.3
0.37
0.395
0.445
0.445
0.475
0.45
0.415
0.33
0.26
0.155
0.095
0.01
-0.01
-0.055
-0.045
-0.07
-0.055
-0.065
-0.045
-0.065
-0.04
-0.06
-0.04
-0.06
-0.055
-0.08
-0.075
-0.105
-0.09
-0.125
-0.115
-0.145
-0.13
-0.15
-0.13
-0.165
-0.14
-0.165
-0.14
-0.165
-0.145
-0.17
-0.155
-0.17
-0.16
-0.18
-0.155
-0.175
-0.155
-0.165
-0.035
0.075
0.135
0.1
0.095
0.005
-0.045
-0.115
-0.165
-0.205
-0.215
-0.235
-0.225
-0.245
-0.215
-0.22
-0.185
-0.185
-0.175
0.275
1.295
1.255
0.105
-0.735
-0.985
-0.87
-0.525
-0.275
-0.115
-0.095
-0.055
-0.045
-0.005
-0.005
0.04
0.04
0.085
0.09
0.14
0.17
0.225
0.25
0.315
0.355
0.42
0.43
0.485
0.48
0.495
0.44
0.39
0.29
0.21
0.105
0.05
-0.02
-0.03
-0.065
-0.06
-0.08
-0.055
-0.07
-0.05
-0.055
-0.035
-0.055
-0.04
-0.06
-0.045
-0.085
-0.085
-0.1
-0.09
-0.125
-0.115
-0.145
-0.115
-0.135
-0.125
-0.145
-0.125
-0.155
-0.135
-0.15
-0.145
-0.165
-0.14
-0.165
-0.145
-0.165
-0.145
-0.165
-0.145
-0.165
-0.15
-0.165
-0.13
-0.025
0.11
0.125
0.145
0.1
0.03
-0.065
-0.09
-0.16
-0.17
-0.215
-0.205
-0.23
-0.205
-0.225
-0.195
-0.18
-0.15
-0.17
0.41
1.375
1.195
-0.01
-0.77
-1.0
-0.815
-0.5
-0.22
-0.11
-0.065
-0.05
-0.01
-0.005
0.025
0.03
0.07
0.08
0.125
0.145
0.19
0.22
0.295
0.32
0.39
0.42
0.485
0.5
0.515
0.49
0.465
0.375
0.3
0.185
0.115
0.03
-0.01
-0.06
-0.065
-0.08
-0.065
-0.085
-0.065
-0.075
-0.055
-0.07
-0.05
-0.065
-0.045
-0.07
-0.065
-0.085
-0.085
-0.11
-0.105
-0.135
-0.12
-0.145
-0.125
-0.145
-0.13
-0.155
-0.135
-0.155
-0.135
-0.165
-0.15
-0.17
-0.155
-0.17
-0.155
-0.17
-0.155
-0.175
-0.15
-0.175
-0.155
-0.17
-0.15
-0.17
-0.155
-0.105
0.035
0.095
0.105
0.085
0.035
-0.055
-0.08
-0.15
-0.175
-0.205
-0.22
-0.23
-0.215
-0.23
-0.205
-0.21
-0.15
-0.165
-0.04
0.775
1.475
0.76
-0.33
-0.915
-0.96
-0.73
-0.385
-0.18
-0.095
-0.085
-0.03
-0.02
0.005
0.005
0.045
0.055
0.105
0.115
0.165
0.2
0.25
0.285
0.36
0.4
0.47
0.485
0.53
0.53
0.52
0.445
0.375
0.26
0.18
0.075
0.025
-0.03
-0.045
-0.08
-0.07
-0.085
-0.07
-0.08
-0.06
-0.07
-0.05
-0.06
-0.045
-0.065
-0.045
-0.075
-0.06
-0.085
-0.085
-0.1
-0.09
-0.12
-0.105
-0.13
-0.115
-0.145
-0.13
-0.145
-0.13
-0.145
-0.125
-0.155
-0.13
-0.15
-0.13
-0.15
-0.13
-0.16
-0.14
-0.16
-0.14
-0.165
-0.135
-0.16
-0.15
-0.165
-0.14
-0.135
-0.05
0.03
0.105
0.055
0.045
-0.015
-0.045
-0.095
-0.12
-0.175
-0.175
-0.195
-0.175
-0.19
-0.165
-0.175
-0.145
-0.12
-0.105
-0.005
0.885
1.53
0.82
-0.305
-0.845
-0.93
-0.655
-0.34
-0.11
-0.055
-0.005
0.005
0.04
0.045
0.08
0.085
0.115
0.125
0.17
0.195
0.255
0.275
0.35
0.385
0.47
0.5
0.56
0.575
0.605
0.565
0.515
0.405
0.315
0.205
0.125
0.045
0.015
-0.035
-0.025
-0.05
-0.03
-0.045
-0.025
-0.035
-0.015
-0.025
-0.005
-0.02
-0.005
-0.025
-0.015
-0.04
-0.03
-0.055
-0.045
-0.07
-0.06
-0.085
-0.07
-0.095
-0.08
-0.105
-0.08
-0.105
-0.09
-0.11
-0.095
-0.115
-0.105
-0.13
-0.11
-0.13
-0.11
-0.14
-0.115
-0.135
-0.115
-0.145
-0.115
-0.13
-0.115
-0.135
-0.115
-0.12
-0.085
-0.065
0.045
0.09
0.055
0.02
0.015
-0.045
-0.06
-0.12
-0.13
-0.17
-0.165
-0.17
-0.16
-0.17
-0.14
-0.145
-0.085
-0.09
0.005
0.78
1.57
0.935
-0.195
-0.825
-0.905
-0.68
-0.335
-0.125
-0.025
-0.01
0.035
0.035
0.06
0.06
0.095
0.11
0.155
0.155
0.215
0.23
0.295
0.335
0.41
0.45
0.525
0.56
0.605
0.6
0.595
0.525
0.45
0.325
0.24
0.125
0.08
0.015
-0.005
-0.03
-0.025
-0.04
-0.03
-0.045
-0.02
-0.04
-0.015
-0.025
-0.015
-0.03
-0.015
-0.035
-0.02
-0.055
-0.035
-0.07
-0.06
-0.08
-0.065
-0.095
-0.08
-0.105
-0.095
-0.11
-0.095
-0.12
-0.105
-0.125
-0.11
-0.135
-0.115
-0.13
-0.115
-0.14
-0.12
-0.14
-0.12
-0.14
-0.115
-0.145
-0.125
-0.14
-0.12
-0.145
-0.1
-0.09
0.0
0.07
0.08
0.025
0.015
-0.05
-0.075
-0.13
-0.15
-0.185
-0.185
-0.2
-0.175
-0.185
-0.165
-0.175
-0.13
-0.125
-0.08
0.435
1.465
1.32
0.11
-0.715
-0.94
-0.805
-0.44
-0.2
-0.055
-0.04
0.015
0.01
0.05
0.055
0.09
0.085
0.135
0.15
0.195
0.215
0.28
0.315
0.39
0.44
0.525
0.56
0.615
0.625
0.645
0.58
0.51
0.385
0.29
0.165
0.105
0.035
0.01
-0.04
-0.03
-0.055
-0.025
-0.045
-0.025
-0.035
-0.015
-0.025
-0.005
-0.025
-0.01
-0.035
-0.015
-0.045
-0.035
-0.065
-0.05
-0.08
-0.07
-0.08
-0.07
-0.095
-0.08
-0.105
-0.095
-0.115
-0.095
-0.115
-0.105
-0.12
-0.1
-0.125
-0.115
-0.13
-0.12
-0.13
-0.11
-0.135
-0.11
-0.135
-0.115
-0.135
-0.12
-0.14
-0.1
-0.055
0.05
0.1
0.075
0.03
0.015
-0.055
-0.075
-0.135
-0.145
-0.185
-0.17
-0.185
-0.165
-0.18
-0.15
-0.16
-0.1
-0.1
-0.005
0.745
1.555
0.97
-0.175
-0.825
-0.91
-0.695
-0.34
-0.13
-0.03
-0.025
0.025
0.025
0.06
0.06
0.1
0.1
0.145
0.155
0.205
0.225
0.295
0.325
0.41
0.455
0.535
0.565
0.63
0.625
0.625
0.55
0.47
0.335
0.235
0.115
0.055
-0.015
-0.025
-0.07
-0.055
-0.08
-0.05
-0.075
-0.05
-0.065
-0.035
-0.06
-0.035
-0.055
-0.035
-0.065
-0.05
-0.07
-0.065
-0.095
-0.08
-0.11
-0.095
-0.13
-0.115
-0.14
-0.13
-0.155
-0.125
-0.15
-0.135
-0.165
-0.145
-0.165
-0.15
-0.17
-0.145
-0.175
-0.155
-0.175
-0.155
-0.165
-0.145
-0.175
-0.145
-0.17
-0.12
-0.105
-0.005
0.055
0.055
0.0
-0.005
-0.07
-0.09
-0.16
-0.16
-0.2
-0.19
-0.2
-0.18
-0.195
-0.16
-0.175
-0.12
-0.12
-0.07
0.52
1.485
1.175
-0.015
-0.78
-0.94
-0.77
-0.4
-0.18
-0.055
-0.04
0.015
0.01
0.065
0.05
0.09
0.09
0.14
0.15
0.21
0.225
0.285
0.315
0.4
0.45
0.55
0.575
0.64
0.635
0.66
0.585
0.52
0.375
0.275
0.155
0.095
0.02
0.005
-0.05
-0.035
-0.07
-0.045
-0.065
-0.035
-0.055
-0.03
-0.05
-0.025
-0.045
-0.02
-0.055
-0.03
-0.05
-0.035
-0.07
-0.065
-0.1
-0.07
-0.105
-0.085
-0.11
-0.1
-0.125
-0.095
-0.125
-0.105
-0.13
-0.1
-0.13
-0.105
-0.13
-0.11
-0.145
-0.12
-0.135
-0.11
-0.115
-0.035
0.02
0.105
0.05
0.06
-0.005
-0.035
-0.08
-0.115
-0.175
-0.165
-0.2
-0.16
-0.175
-0.155
-0.165
-0.135
-0.145
-0.125
-0.08
0.765
1.58
1.08
-0.07
-0.695
-0.87
-0.69
-0.41
-0.135
-0.065
0.0
0.005
0.035
0.03
0.07
0.06
0.11
0.105
0.155
0.17
0.22
0.25
0.32
0.36
0.45
0.475
0.56
0.57
0.615
0.57
0.535
0.43
0.345
0.205
0.14
0.045
0.025
-0.03
-0.02
-0.055
-0.025
-0.06
-0.025
-0.05
-0.015
-0.04
-0.015
-0.045
-0.015
-0.05
-0.025
-0.055
-0.03
-0.075
-0.055
-0.08
-0.07
-0.1
-0.08
-0.115
-0.095
-0.125
-0.105
-0.135
-0.11
-0.145
-0.12
-0.155
-0.125
-0.15
-0.13
-0.155
-0.105
-0.1
0.03
0.065
0.085
0.015
0.01
-0.055
-0.075
-0.16
-0.165
-0.205
-0.19
-0.215
-0.18
-0.2
-0.17
-0.185
-0.125
-0.11
-0.03
0.535
1.51
1.21
-0.02
-0.81
-0.975
-0.81
-0.415
-0.195
-0.06
-0.05
0.005
-0.005
0.04
0.03
0.07
0.065
0.115
0.13
0.195
0.21
0.29
0.315
0.41
0.445
0.55
0.585
0.655
0.66
0.67
0.585
0.5
0.34
0.23
0.1
0.05
-0.035
-0.045
-0.08
-0.07
-0.11
-0.075
-0.1
-0.07
-0.085
-0.055
-0.08
-0.045
-0.065
-0.035
-0.065
-0.05
-0.08
-0.065
-0.1
-0.075
-0.115
-0.08
-0.12
-0.095
-0.13
-0.105
-0.135
-0.115
-0.145
-0.115
-0.15
-0.115
-0.145
-0.115
-0.145
-0.12
-0.15
-0.125
-0.15
-0.12
-0.15
-0.11
-0.105
-0.025
0.035
0.09
0.01
0.025
-0.045
-0.07
-0.12
-0.125
-0.18
-0.17
-0.2
-0.165
-0.185
-0.155
-0.17
-0.13
-0.11
-0.045
0.025
0.835
1.53
0.885
-0.31
-0.845
-0.94
-0.65
-0.335
-0.08
-0.05
0.01
0.02
0.065
0.055
0.095
0.08
0.13
0.135
0.195
0.195
0.275
0.29
0.38
0.43
0.525
0.565
0.65
0.675
0.72
0.675
0.64
0.505
0.395
0.235
0.165
0.055
0.03
-0.03
-0.025
-0.065
-0.04
-0.065
-0.03
-0.05
-0.015
-0.045
0.0
-0.03
0.01
-0.025
0.005
-0.04
-0.015
-0.05
-0.03
-0.065
-0.045
-0.08
-0.055
-0.09
-0.065
-0.1
-0.075
-0.11
-0.08
-0.105
-0.08
-0.12
-0.08
-0.11
-0.085
-0.115
-0.08
-0.115
-0.085
-0.12
-0.1
-0.13
-0.095
-0.1
-0.045
-0.005
0.11
0.085
0.07
0.015
-0.01
-0.08
-0.08
-0.15
-0.135
-0.185
-0.15
-0.18
-0.145
-0.17
-0.125
-0.14
-0.07
-0.075
0.12
0.98
1.585
0.705
-0.355
-0.875
-0.86
-0.61
-0.25
-0.08
-0.005
0.0
0.055
0.045
0.09
0.085
0.135
0.125
0.18
0.18
0.245
0.26
0.335
0.365
0.47
0.505
0.6
0.63
0.705
0.695
0.705
0.605
0.52
0.37
0.275
0.135
0.09
0.005
0.0
-0.045
-0.015
-0.045
-0.015
-0.045
-0.015
-0.045
-0.005
-0.02
0.01
-0.015
0.02
-0.005
0.01
-0.025
-0.005
-0.045
-0.02
-0.06
-0.04
-0.075
-0.045
-0.08
-0.065
-0.1
-0.075
-0.095
-0.07
-0.1
-0.075
-0.105
-0.08
-0.115
-0.08
-0.115
-0.08
-0.11
-0.08
-0.11
-0.085
-0.115
-0.07
-0.07
0.01
0.075
0.135
0.06
0.08
-0.005
-0.025
-0.085
-0.095
-0.14
-0.12
-0.155
-0.13
-0.155
-0.125
-0.13
-0.09
-0.08
-0.02
0.025
0.815
1.575
1.05
-0.14
-0.745
-0.88
-0.655
-0.345
-0.08
-0.02
0.035
0.025
0.085
0.08
0.125
0.1
0.145
0.15
0.215
0.21
0.275
0.295
0.385
0.425
0.52
0.56
0.655
0.67
0.725
0.69
0.67
0.545
0.445
0.285
0.215
0.095
0.065
-0.005
0.005
-0.03
0.005
-0.02
0.015
-0.015
0.015
-0.02
0.03
-0.005
0.025
0.0
0.035
-0.01
0.015
-0.03
-0.01
-0.045
-0.03
-0.07
-0.045
-0.08
-0.045
-0.08
-0.05
-0.07
-0.045
-0.08
-0.055
-0.095
-0.07
-0.095
-0.065
-0.1
-0.07
-0.095
-0.045
-0.025
0.105
0.11
0.105
0.06
0.05
-0.02
-0.035
-0.095
-0.075
-0.145
-0.125
-0.155
-0.115
-0.125
-0.08
-0.115
-0.07
-0.09
-0.04
0.615
1.655
1.395
0.23
-0.585
-0.78
-0.715
-0.395
-0.15
-0.005
-0.01
0.06
0.055
0.105
0.085
0.135
0.115
0.185
0.175
0.24
0.245
0.31
0.33
0.42
0.45
0.54
0.57
0.655
0.645
0.67
0.585
0.515
0.37
0.285
0.15
0.11
0.03
0.03
-0.015
0.005
-0.035
-0.01
-0.025
0.01
-0.035
0.015
0.005
0.02
-0.03
-0.01
-0.045
-0.015
-0.05
-0.03
-0.065
-0.03
-0.05
-0.04
-0.08
-0.055
-0.11
-0.07
-0.095
-0.085
-0.105
-0.075
-0.095
-0.065
-0.04
0.095
0.085
0.1
0.065
0.05
-0.015
-0.065
-0.145
-0.095
-0.145
-0.135
-0.155
-0.125
-0.125
-0.1
-0.12
-0.045
-0.065
0.425
1.52
1.745
0.46
-0.56
-0.88
-0.765
-0.55
-0.225
-0.05
0.04
0.035
0.09
0.065
0.095
0.095
0.13
0.135
0.215
0.205
0.245
0.27
0.38
0.41
0.515
0.575
0.655
0.665
0.735
0.72
0.7
0.56
0.465
0.285
0.205
0.09
0.045
-0.01
-0.005
-0.04
-0.015
-0.05
-0.025
-0.04
-0.01
-0.04
-0.01
-0.03
-0.01
-0.01
0.02
-0.045
-0.025
-0.045
-0.01
-0.05
-0.04
-0.075
-0.055
-0.11
-0.07
-0.075
-0.06
-0.065
0.03
0.05
0.11
0.06
0.05
0.005
-0.01
-0.12
-0.085
-0.135
-0.135
-0.145
-0.14
-0.165
-0.11
-0.115
-0.055
-0.035
0.2
1.15
1.955
1.065
-0.26
-0.905
-0.895
-0.65
-0.285
-0.11
0.01
0.025
0.075
0.055
0.105
0.1
0.13
0.15
0.215
0.2
0.265
0.305
0.385
0.42
0.535
0.595
0.71
0.745
0.8
0.79
0.805
0.665
0.535
0.355
0.25
0.115
0.08
-0.01
0.01
-0.055
-0.04
-0.07
-0.055
-0.075
-0.04
-0.05
-0.015
-0.05
-0.01
-0.03
-0.005
-0.04
-0.01
-0.05
-0.03
-0.07
-0.07
-0.095
-0.07
-0.09
-0.07
-0.065
0.085
0.06
0.06
0.04
0.025
-0.035
-0.045
-0.135
-0.12
-0.175
-0.155
-0.175
-0.14
-0.16
-0.13
-0.14
-0.055
-0.04
0.435
1.535
1.745
0.34
-0.72
-1.02
-0.845
-0.5
-0.19
-0.065
0.015
0.005
0.055
0.045
0.095
0.085
0.125
0.135
0.19
0.195
0.275
0.3
0.4
0.44
0.56
0.6
0.71
0.745
0.8
0.77
0.715
0.55
0.435
0.255
0.165
0.035
0.005
-0.065
-0.06
-0.11
-0.085
-0.11
-0.08
-0.1
-0.08
-0.105
-0.07
-0.095
-0.06
-0.085
-0.055
-0.09
-0.07
-0.105
-0.08
-0.13
-0.105
-0.14
-0.12
-0.145
0.005
0.075
0.115
0.08
0.085
-0.025
-0.07
-0.135
-0.145
-0.225
-0.225
-0.26
-0.225
-0.24
-0.215
-0.24
-0.175
-0.155
-0.08
0.365
1.405
1.36
0.09
-0.855
-1.03
-0.875
-0.475
-0.255
-0.105
-0.085
-0.025
-0.04
0.01
0.01
0.055
0.045
0.105
0.1
0.17
0.175
0.27
0.31
0.41
0.46
0.57
0.605
0.68
0.67
0.68
0.585
0.485
0.325
0.205
0.055
0.025
-0.055
-0.075
-0.125
-0.105
-0.13
-0.085
-0.115
-0.095
-0.11
-0.07
-0.105
-0.065
-0.095
-0.05
-0.09
-0.07
-0.115
-0.08
-0.125
-0.1
-0.145
-0.11
-0.155
-0.13
-0.16
-0.135
-0.17
-0.15
-0.175
-0.15
-0.175
-0.105
-0.02
0.115
0.085
0.105
0.025
-0.02
-0.105
-0.115
-0.19
-0.185
-0.245
-0.215
-0.255
-0.215
-0.24
-0.205
-0.21
-0.12
-0.115
0.295
1.24
1.36
0.115
-0.765
-1.065
-0.9
-0.55
-0.24
-0.13
-0.055
-0.055
-0.005
-0.015
0.03
0.015
0.075
0.07
0.14
0.14
0.215
0.235
0.335
0.365
0.475
0.515
0.615
0.645
0.715
0.685
0.675
0.535
0.42
0.25
0.16
0.03
-0.005
-0.075
-0.065
-0.11
-0.08
-0.12
-0.09
-0.11
-0.08
-0.105
-0.07
-0.09
-0.055
-0.08
-0.055
-0.085
-0.055
-0.105
-0.08
-0.11
-0.1
-0.13
-0.11
-0.16
-0.13
-0.16
-0.13
-0.16
-0.13
-0.165
-0.145
-0.185
-0.145
-0.185
-0.15
-0.175
-0.14
-0.18
-0.155
-0.185
-0.165
-0.19
-0.155
-0.165
-0.065
-0.005
0.08
0.0
-0.01
-0.075
-0.075
-0.135
-0.145
-0.21
-0.21
-0.235
-0.21
-0.255
-0.195
-0.215
-0.185
-0.175
-0.105
-0.135
0.385
1.36
1.32
0.055
-0.735
-0.995
-0.83
-0.54
-0.225
-0.135
-0.06
-0.055
0.005
-0.035
0.025
0.005
0.07
0.055
0.12
0.13
0.195
0.215
0.31
0.33
0.43
0.475
0.575
0.595
0.67
0.65
0.64
0.52
0.425
0.275
0.17
0.015
-0.005
-0.055
-0.07
-0.11
-0.075
-0.12
-0.08
-0.12
-0.08
-0.125
-0.08
-0.09
-0.065
-0.095
-0.06
-0.115
-0.05
-0.115
-0.105
-0.135
-0.115
-0.165
-0.155
-0.185
-0.125
-0.165
-0.15
-0.18
-0.15
-0.165
-0.145
-0.205
-0.15
-0.115
0.02
0.055
0.035
-0.04
-0.035
-0.13
-0.145
-0.19
-0.2
-0.265
-0.22
-0.265
-0.23
-0.265
-0.195
-0.24
-0.18
-0.175
-0.165
0.41
1.485
1.31
0.125
-0.72
-0.935
-0.855
-0.53
-0.295
-0.12
-0.105
-0.045
-0.06
-0.01
-0.02
0.015
0.01
0.075
0.07
0.145
0.15
0.225
0.24
0.34
0.385
0.485
0.505
0.61
0.605
0.63
0.55
0.455
0.295
0.2
0.065
0.01
-0.085
-0.07
-0.115
-0.095
-0.13
-0.105
-0.14
-0.08
-0.115
-0.08
-0.11
-0.075
-0.11
-0.075
-0.11
-0.08
-0.115
-0.1
-0.14
-0.115
-0.155
-0.135
-0.165
-0.135
-0.175
-0.145
-0.175
-0.145
-0.19
-0.155
-0.19
-0.135
-0.065
0.085
0.08
0.095
0.035
0.005
-0.08
-0.08
-0.18
-0.175
-0.24
-0.21
-0.24
-0.195
-0.22
-0.19
-0.22
-0.11
-0.105
0.085
0.925
1.57
0.705
-0.43
-0.97
-0.955
-0.74
-0.37
-0.185
-0.085
-0.08
-0.015
-0.025
0.045
0.03
0.07
0.055
0.14
0.12
0.2
0.225
0.31
0.35
0.45
0.51
0.615
0.65
0.72
0.705
0.705
0.58
0.475
0.285
0.19
0.05
0.015
-0.07
-0.07
-0.11
-0.09
-0.115
-0.095
-0.115
-0.085
-0.105
-0.065
-0.095
-0.055
-0.07
-0.03
-0.08
-0.045
-0.08
-0.065
-0.11
-0.075
-0.125
-0.105
-0.14
-0.115
-0.16
-0.12
-0.155
-0.13
-0.165
-0.14
-0.165
-0.14
-0.175
-0.14
-0.175
-0.145
-0.175
-0.145
-0.18
-0.145
-0.19
-0.15
-0.175
-0.12
-0.1
0.01
0.05
0.045
-0.035
-0.02
-0.095
-0.085
-0.155
-0.155
-0.21
-0.19
-0.225
-0.19
-0.22
-0.18
-0.205
-0.145
-0.12
-0.04
0.325
1.365
1.4
0.19
-0.78
-1.02
-0.895
-0.465
-0.22
-0.06
-0.055
0.01
0.0
0.05
0.035
0.09
0.08
0.13
0.13
0.2
0.22
0.295
0.33
0.43
0.475
0.595
0.635
0.735
0.745
0.79
0.72
0.65
0.47
0.355
0.185
0.105
-0.005
-0.025
-0.08
-0.065
-0.115
-0.08
-0.115
-0.08
-0.115
-0.075
-0.1
-0.055
-0.09
-0.045
-0.08
-0.045
-0.08
-0.065
-0.105
-0.08
-0.12
-0.105
-0.145
-0.115
-0.155
-0.125
-0.165
-0.13
-0.165
-0.145
-0.18
-0.15
-0.18
-0.15
-0.195
-0.16
-0.19
-0.165
-0.195
-0.165
-0.19
-0.165
-0.195
-0.16
-0.175
-0.09
-0.045
0.07
0.02
0.01
-0.055
-0.06
-0.13
-0.14
-0.215
-0.19
-0.245
-0.205
-0.24
-0.2
-0.225
-0.18
-0.205
-0.11
-0.12
0.125
1.005
1.475
0.48
-0.56
-1.005
-0.94
-0.64
-0.285
-0.145
-0.055
-0.06
-0.01
-0.01
0.03
0.02
0.07
0.06
0.125
0.125
0.195
0.205
0.295
0.33
0.445
0.485
0.59
0.63
0.705
0.695
0.715
0.6
0.51
0.33
0.22
0.075
0.03
-0.07
-0.07
-0.12
-0.095
-0.13
-0.095
-0.115
-0.075
-0.11
-0.075
-0.105
-0.065
-0.1
-0.065
-0.1
-0.07
-0.115
-0.085
-0.135
-0.105
-0.14
-0.115
-0.155
-0.13
-0.165
-0.14
-0.185
-0.165
-0.19
-0.155
-0.19
-0.16
-0.195
-0.165
-0.195
-0.165
-0.2
-0.17
-0.2
-0.165
-0.185
-0.165
-0.19
-0.095
-0.05
0.06
0.02
0.005
-0.045
-0.05
-0.125
-0.125
-0.195
-0.19
-0.24
-0.205
-0.235
-0.195
-0.225
-0.175
-0.185
-0.14
-0.165
0.18
1.17
1.53
0.45
-0.51
-0.92
-0.865
-0.63
-0.295
-0.15
-0.05
-0.045
0.01
-0.005
0.055
0.04
0.07
0.055
0.125
0.135
0.2
0.205
0.3
0.33
0.42
0.47
0.57
0.6
0.685
0.675
0.685
0.58
0.49
0.33
0.24
0.09
0.035
-0.055
-0.035
-0.08
-0.06
-0.09
-0.055
-0.085
-0.045
-0.09
-0.05
-0.065
-0.04
-0.055
-0.04
-0.07
-0.065
-0.095
-0.075
-0.1
-0.095
-0.13
-0.095
-0.14
-0.11
-0.14
-0.11
-0.14
-0.125
-0.165
-0.13
-0.165
-0.105
-0.115
0.025
0.085
0.095
0.04
0.05
-0.045
-0.045
-0.115
-0.125
-0.19
-0.175
-0.205
-0.175
-0.21
-0.17
-0.2
-0.145
-0.155
-0.12
0.26
1.36
1.56
0.475
-0.515
-0.835
-0.845
-0.57
-0.305
-0.08
-0.06
0.0
-0.005
0.05
0.04
0.08
0.065
0.115
0.115
0.185
0.195
0.265
0.28
0.385
0.435
0.52
0.55
0.645
0.645
0.675
0.615
0.56
0.405
0.31
0.165
0.095
0.01
-0.01
-0.065
-0.04
-0.08
-0.05
-0.07
-0.035
-0.06
-0.025
-0.05
-0.015
-0.05
-0.02
-0.045
-0.03
-0.07
-0.045
-0.08
-0.065
-0.1
-0.07
-0.105
-0.09
-0.12
-0.105
-0.135
-0.105
-0.135
-0.11
-0.15
-0.12
-0.14
-0.105
-0.115
0.01
0.08
0.095
0.035
0.045
-0.035
-0.045
-0.135
-0.155
-0.19
-0.175
-0.21
-0.165
-0.195
-0.155
-0.18
-0.13
-0.115
-0.05
0.215
1.22
1.51
0.445
-0.65
-0.98
-0.915
-0.525
-0.235
-0.055
-0.045
0.015
0.005
0.065
0.05
0.09
0.075
0.135
0.14
0.21
0.225
0.31
0.34
0.435
0.485
0.59
0.645
0.735
0.745
0.79
0.72
0.655
0.49
0.375
0.205
0.12
0.02
-0.005
-0.07
-0.055
-0.09
-0.06
-0.09
-0.055
-0.075
-0.045
-0.07
-0.035
-0.065
-0.025
-0.06
-0.035
-0.07
-0.045
-0.085
-0.065
-0.1
-0.08
-0.115
-0.095
-0.13
-0.1
-0.135
-0.115
-0.135
-0.105
-0.14
-0.125
-0.15
-0.125
-0.155
-0.1
-0.075
0.06
0.08
0.08
0.035
0.0
-0.06
-0.08
-0.18
-0.165
-0.205
-0.19
-0.215
-0.185
-0.21
-0.165
-0.185
-0.14
-0.115
-0.05
0.38
1.395
1.34
0.115
-0.775
-0.98
-0.845
-0.43
-0.195
-0.045
-0.045
0.02
0.005
0.05
0.035
0.08
0.08
0.13
0.13
0.2
0.22
0.3
0.325
0.43
0.48
0.59
0.63
0.72
0.725
0.765
0.69
0.63
0.46
0.345
0.195
0.12
0.02
0.005
-0.055
-0.045
-0.08
-0.045
-0.08
-0.05
-0.075
-0.045
-0.065
-0.03
-0.05
-0.025
-0.055
-0.035
-0.07
-0.04
-0.085
-0.065
-0.105
-0.08
-0.12
-0.08
-0.125
-0.095
-0.135
-0.11
-0.145
-0.11
-0.145
-0.115
-0.155
-0.115
-0.14
-0.1
-0.06
0.08
0.055
0.095
0.045
0.01
-0.065
-0.08
-0.175
-0.15
-0.195
-0.185
-0.205
-0.17
-0.2
-0.16
-0.18
-0.115
-0.11
-0.055
0.445
1.455
1.29
0.065
-0.76
-0.955
-0.82
-0.425
-0.19
-0.04
-0.045
0.015
0.005
0.05
0.04
0.085
0.07
0.13
0.13
0.195
0.205
0.295
0.315
0.41
0.45
0.56
0.595
0.685
0.675
0.72
0.64
0.585
0.425
0.315
0.16
0.1
0.0
-0.02
-0.075
-0.05
-0.09
-0.06
-0.09
-0.05
-0.08
-0.05
-0.075
-0.03
-0.06
-0.035
-0.065
-0.045
-0.08
-0.06
-0.1
-0.07
-0.11
-0.09
-0.125
-0.105
-0.14
-0.12
-0.145
-0.12
-0.155
-0.125
-0.165
-0.135
-0.165
-0.13
-0.145
-0.085
-0.025
0.075
0.05
0.065
-0.015
-0.025
-0.105
-0.14
-0.2
-0.18
-0.225
-0.195
-0.215
-0.185
-0.2
-0.15
-0.17
-0.11
-0.12
0.225
1.2
1.5
0.39
-0.555
-0.95
-0.85
-0.55
-0.225
-0.1
-0.025
-0.025
0.03
0.015
0.055
0.04
0.095
0.09
0.145
0.145
0.215
0.24
0.315
0.345
0.44
0.48
0.575
0.595
0.67
0.66
0.655
0.56
0.475
0.31
0.22
0.085
0.05
-0.04
-0.03
-0.08
-0.055
-0.09
-0.055
-0.085
-0.05
-0.07
-0.04
-0.07
-0.04
-0.08
-0.045
-0.075
-0.05
-0.09
-0.08
-0.105
-0.075
-0.12
-0.1
-0.135
-0.11
-0.15
-0.13
-0.155
-0.14
-0.165
-0.14
-0.17
-0.135
-0.165
-0.125
-0.145
-0.055
0.01
0.06
0.03
0.055
-0.03
-0.035
-0.135
-0.165
-0.2
-0.185
-0.24
-0.2
-0.215
-0.175
-0.2
-0.17
-0.155
-0.12
-0.025
0.855
1.535
0.88
-0.25
-0.805
-0.925
-0.695
-0.405
-0.16
-0.095
-0.035
-0.04
0.015
0.0
0.045
0.03
0.08
0.09
0.15
0.145
0.205
0.225
0.31
0.345
0.45
0.48
0.57
0.58
0.65
0.615
0.585
0.46
0.37
0.215
0.135
0.02
0.0
-0.055
-0.045
-0.08
-0.065
-0.08
-0.05
-0.085
-0.05
-0.06
-0.03
-0.07
-0.055
-0.075
-0.055
-0.095
-0.065
-0.095
-0.08
-0.125
-0.105
-0.135
-0.11
-0.145
-0.11
-0.145
-0.12
-0.15
-0.125
-0.145
-0.045
0.025
0.08
0.04
0.065
-0.035
-0.055
-0.15
-0.17
-0.2
-0.18
-0.23
-0.19
-0.22
-0.18
-0.195
-0.155
-0.16
-0.125
0.045
1.065
1.61
0.8
-0.305
-0.815
-0.905
-0.67
-0.385
-0.135
-0.085
-0.02
-0.03
0.01
-0.005
0.035
0.035
0.08
0.07
0.125
0.135
0.205
0.23
0.315
0.355
0.45
0.485
0.57
0.585
0.63
0.58
0.54
0.41
0.31
0.155
0.09
-0.005
-0.025
-0.075
-0.065
-0.08
-0.06
-0.085
-0.06
-0.085
-0.05
-0.075
-0.045
-0.07
-0.04
-0.08
-0.05
-0.09
-0.07
-0.105
-0.08
-0.125
-0.095
-0.135
-0.115
-0.145
-0.115
-0.15
-0.125
-0.15
-0.115
-0.125
-0.005
0.04
0.07
0.02
0.01
-0.06
-0.07
-0.165
-0.175
-0.205
-0.2
-0.225
-0.19
-0.21
-0.18
-0.205
-0.155
-0.14
-0.08
0.34
1.41
1.47
0.265
-0.715
-0.995
-0.89
-0.51
-0.25
-0.095
-0.075
-0.025
-0.025
0.015
0.005
0.05
0.045
0.1
0.1
0.17
0.175
0.26
0.285
0.375
0.425
0.525
0.565
0.645
0.655
0.7
0.625
0.55
0.39
0.285
0.13
0.065
-0.04
-0.05
-0.105
-0.085
-0.12
-0.08
-0.115
-0.075
-0.105
-0.07
-0.1
-0.065
-0.095
-0.065
-0.095
-0.08
-0.105
-0.08
-0.12
-0.095
-0.14
-0.125
-0.15
-0.135
-0.17
-0.145
-0.18
-0.15
-0.185
-0.155
-0.19
-0.15
-0.185
-0.125
-0.055
0.035
0.015
0.03
-0.045
-0.06
-0.13
-0.17
-0.23
-0.2
-0.245
-0.22
-0.24
-0.205
-0.22
-0.19
-0.185
-0.115
-0.125
0.31
1.305
1.435
0.195
-0.695
-1.025
-0.865
-0.53
-0.225
-0.12
-0.055
-0.055
-0.01
-0.015
0.02
0.015
0.055
0.065
0.12
0.13
0.195
0.215
0.3
0.33
0.435
0.475
0.58
0.61
0.68
0.66
0.66
0.535
0.445
0.275
0.18
0.05
0.01
-0.065
-0.055
-0.105
-0.08
-0.105
-0.075
-0.1
-0.065
-0.1
-0.065
-0.085
-0.065
-0.08
-0.06
-0.105
-0.07
-0.115
-0.09
-0.13
-0.12
-0.155
-0.13
-0.155
-0.14
-0.175
-0.15
-0.18
-0.155
-0.185
-0.16
-0.185
-0.16
-0.185
-0.145
-0.135
-0.015
0.01
0.04
0.01
-0.025
-0.09
-0.11
-0.21
-0.205
-0.23
-0.225
-0.24
-0.215
-0.24
-0.2
-0.225
-0.175
-0.165
-0.125
0.21
1.255
1.415
0.305
-0.68
-0.995
-0.91
-0.55
-0.29
-0.115
-0.095
-0.04
-0.055
-0.015
-0.025
0.015
0.01
0.065
0.055
0.125
0.13
0.205
0.23
0.32
0.37
0.455
0.505
0.585
0.595
0.64
0.58
0.535
0.4
0.29
0.14
0.08
-0.035
-0.055
-0.105
-0.095
-0.12
-0.1
-0.12
-0.095
-0.115
-0.085
-0.105
-0.08
-0.1
-0.07
-0.105
-0.08
-0.115
-0.095
-0.13
-0.115
-0.15
-0.125
-0.155
-0.135
-0.165
-0.14
-0.165
-0.14
-0.18
-0.15
-0.18
-0.155
-0.185
-0.15
-0.17
-0.145
-0.125
0.005
0.005
0.025
-0.015
-0.05
-0.11
-0.13
-0.21
-0.19
-0.22
-0.205
-0.23
-0.21
-0.23
-0.195
-0.205
-0.135
-0.14
0.05
0.93
1.53
0.665
-0.395
-0.915
-0.93
-0.695
-0.345
-0.165
-0.08
-0.08
-0.03
-0.015
0.015
0.005
0.045
0.055
0.115
0.11
0.165
0.185
0.255
0.29
0.385
0.43
0.525
0.57
0.63
0.625
0.655
0.565
0.49
0.335
0.235
0.105
0.045
-0.045
-0.04
-0.08
-0.065
-0.085
-0.065
-0.1
-0.07
-0.085
-0.05
-0.055
-0.035
-0.065
-0.055
-0.08
-0.06
-0.095
-0.08
-0.1
-0.075
-0.12
-0.11
-0.145
-0.115
-0.135
-0.12
-0.145
-0.12
-0.145
-0.11
-0.11
0.005
0.055
0.1
0.065
0.015
-0.035
-0.055
-0.155
-0.165
-0.18
-0.175
-0.21
-0.185
-0.205
-0.17
-0.17
-0.125
-0.13
-0.115
0.4
1.47
1.475
0.3
-0.595
-0.88
-0.81
-0.52
-0.27
-0.08
-0.045
0.015
-0.015
0.03
0.045
0.07
0.055
0.11
0.125
0.165
0.155
0.24
0.265
0.345
0.385
0.485
0.525
0.595
0.61
0.635
0.585
0.515
0.385
0.295
0.16
0.1
0.005
-0.015
-0.045
-0.04
-0.065
-0.04
-0.06
-0.04
-0.055
-0.025
-0.055
-0.045
-0.055
-0.045
-0.075
-0.06
-0.08
-0.08
-0.1
-0.08
-0.105
-0.1
-0.13
-0.11
-0.13
-0.125
-0.145
-0.12
-0.125
-0.06
0.04
0.09
0.07
0.065
-0.015
-0.03
-0.095
-0.145
-0.17
-0.165
-0.19
-0.175
-0.185
-0.155
-0.175
-0.145
-0.115
-0.07
0.105
1.06
1.64
0.78
-0.365
-0.865
-0.915
-0.65
-0.34
-0.105
-0.055
-0.01
-0.01
0.03
0.03
0.065
0.055
0.105
0.105
0.165
0.18
0.245
0.28
0.365
0.405
0.48
0.54
0.615
0.635
0.665
0.625
0.58
0.455
0.335
0.205
0.12
0.025
-0.005
-0.05
-0.045
-0.065
-0.05
-0.06
-0.03
-0.05
-0.04
-0.04
-0.025
-0.04
-0.025
-0.035
-0.035
-0.06
-0.05
-0.07
-0.07
-0.08
-0.08
-0.115
-0.1
-0.125
-0.12
-0.14
-0.125
-0.135
-0.12
-0.13
-0.09
-0.005
0.07
0.045
0.045
-0.01
-0.04
-0.09
-0.145
-0.185
-0.18
-0.205
-0.185
-0.2
-0.175
-0.195
-0.165
-0.145
-0.08
-0.04
0.505
1.495
1.36
0.04
-0.785
-1.035
-0.82
-0.455
-0.185
-0.09
-0.04
-0.03
0.005
0.005
0.035
0.035
0.085
0.095
0.135
0.155
0.215
0.25
0.33
0.38
0.465
0.53
0.615
0.65
0.705
0.69
0.66
0.545
0.435
0.28
0.17
0.055
0.01
-0.045
-0.055
-0.075
-0.075
-0.1
-0.08
-0.08
-0.065
-0.085
-0.06
-0.07
-0.055
-0.07
-0.065
-0.08
-0.075
-0.085
-0.08
-0.11
-0.105
-0.125
-0.12
-0.135
-0.13
-0.145
-0.14
-0.155
-0.145
-0.16
-0.15
-0.165
-0.145
-0.15
-0.115
-0.065
0.035
0.05
0.045
0.005
-0.035
-0.08
-0.135
-0.19
-0.185
-0.205
-0.2
-0.205
-0.185
-0.19
-0.17
-0.165
-0.1
-0.07
0.08
0.89
1.535
0.75
-0.375
-0.92
-0.925
-0.645
-0.285
-0.1
-0.02
-0.01
0.03
0.045
0.07
0.08
0.11
0.12
0.17
0.19
0.245
0.275
0.335
0.385
0.46
0.525
0.61
0.66
0.725
0.735
0.745
0.67
0.585
0.44
0.325
0.205
0.135
0.08
0.06
0.025
0.035
0.025
0.035
0.02
0.035
0.025
0.045
0.04
0.05
0.04
0.055
0.04
0.045
0.035
0.035
0.015
0.015
-0.005
0.005
-0.01
-0.005
-0.015
-0.005
-0.015
-0.005
-0.015
-0.01
-0.02
0.0
-0.015
0.005
0.025
0.12
0.165
0.18
0.165
0.135
0.09
0.05
-0.03
-0.03
-0.04
-0.035
-0.045
-0.035
-0.035
-0.015
-0.015
0.035
0.055
0.075
0.61
1.61
1.425
0.2
-0.605
-0.82
-0.65
-0.285
-0.04
0.085
0.1
0.145
0.15
0.18
0.175
0.21
0.22
0.255
0.275
0.33
0.35
0.41
0.445
0.53
0.595
0.675
0.725
0.785
0.805
0.825
0.775
0.7
0.57
0.455
0.325
0.245
0.17
0.145
0.105
0.105
0.095
0.1
0.08
0.1
0.1
0.125
0.105
0.12
0.105
0.11
0.105
0.1
0.085
0.09
0.075
0.08
0.055
0.06
0.045
0.045
0.045
0.05
0.03
0.035
0.025
0.025
0.02
0.035
0.035
0.05
0.085
0.19
0.215
0.24
0.205
0.15
0.11
0.055
-0.01
0.005
-0.01
-0.02
-0.015
-0.005
-0.01
0.005
0.005
0.05
0.04
0.23
1.21
1.755
0.87
-0.17
-0.69
-0.72
-0.5
-0.17
0.035
0.095
0.125
0.14
0.15
0.18
0.19
0.2
0.21
0.26
0.275
0.3
0.335
0.375
0.435
0.515
0.565
0.65
0.69
0.755
0.775
0.76
0.68
0.585
0.465
0.345
0.25
0.18
0.1
0.065
0.06
0.065
0.06
0.065
0.045
0.06
0.06
0.08
0.065
0.07
0.055
0.055
0.05
0.045
0.03
0.055
0.045
0.035
0.005
-0.01
-0.03
-0.01
-0.005
-0.015
-0.04
-0.01
-0.03
-0.02
0.01
0.105
0.16
0.175
0.185
0.13
0.055
0.02
-0.075
-0.065
-0.075
-0.09
-0.08
-0.08
-0.11
-0.09
-0.08
-0.035
-0.005
0.03
0.63
1.65
1.43
0.19
-0.625
-0.84
-0.705
-0.39
-0.125
0.01
0.025
0.07
0.065
0.11
0.11
0.125
0.135
0.16
0.185
0.22
0.25
0.32
0.345
0.41
0.475
0.575
0.63
0.69
0.72
0.735
0.66
0.565
0.435
0.31
0.18
0.11
0.035
0.02
-0.005
-0.005
-0.025
-0.01
-0.02
-0.005
-0.025
-0.005
-0.02
-0.015
-0.025
-0.015
-0.035
-0.025
-0.03
-0.03
-0.065
-0.065
-0.08
-0.06
-0.08
-0.085
-0.095
-0.09
-0.105
-0.075
-0.045
0.08
0.09
0.085
0.065
0.03
-0.03
-0.075
-0.15
-0.145
-0.165
-0.17
-0.17
-0.16
-0.18
-0.155
-0.16
-0.09
-0.055
0.09
0.915
1.595
0.815
-0.355
-0.925
-0.95
-0.695
-0.34
-0.14
-0.06
-0.035
-0.01
-0.005
0.035
0.035
0.06
0.07
0.11
0.13
0.18
0.215
0.28
0.325
0.415
0.475
0.56
0.605
0.665
0.675
0.665
0.575
0.465
0.315
0.195
0.075
0.015
-0.05
-0.07
-0.1
-0.095
-0.105
-0.1
-0.11
-0.1
-0.11
-0.09
-0.095
-0.08
-0.095
-0.085
-0.105
-0.095
-0.12
-0.115
-0.14
-0.13
-0.15
-0.15
-0.18
-0.17
-0.185
-0.175
-0.195
-0.185
-0.195
-0.18
-0.17
-0.11
-0.025
0.005
-0.035
-0.035
-0.09
-0.125
-0.195
-0.24
-0.26
-0.245
-0.275
-0.265
-0.265
-0.255
-0.255
-0.235
-0.195
-0.135
-0.025
0.775
1.425
0.685
-0.5
-1.03
-1.065
-0.745
-0.395
-0.195
-0.145
-0.1
-0.085
-0.065
-0.07
-0.04
-0.035
0.005
0.03
0.065
0.095
0.155
0.195
0.27
0.34
0.425
0.485
0.56
0.6
0.635
0.61
0.55
0.42
0.285
0.135
0.035
-0.07
-0.105
-0.16
-0.17
-0.185
-0.18
-0.185
-0.175
-0.185
-0.175
-0.175
-0.17
-0.17
-0.165
-0.175
-0.165
-0.185
-0.18
-0.195
-0.205
-0.215
-0.215
-0.23
-0.235
-0.25
-0.25
-0.265
-0.265
-0.265
-0.255
-0.28
-0.255
-0.24
-0.185
-0.095
-0.065
-0.075
-0.08
-0.155
-0.19
-0.25
-0.295
-0.305
-0.315
-0.34
-0.315
-0.325
-0.31
-0.31
-0.295
-0.255
-0.21
-0.165
0.515
1.345
0.875
-0.355
-1.005
-1.145
-0.885
-0.525
-0.295
-0.22
-0.175
-0.17
-0.135
-0.13
-0.115
-0.1
-0.065
-0.045
-0.005
0.015
0.065
0.11
0.185
0.245
0.32
0.38
0.455
0.495
0.535
0.525
0.48
0.365
0.245
0.1
-0.005
-0.11
-0.165
-0.2
-0.215
-0.23
-0.22
-0.24
-0.225
-0.23
-0.22
-0.225
-0.215
-0.22
-0.205
-0.215
-0.215
-0.235
-0.235
-0.25
-0.24
-0.265
-0.265
-0.275
-0.265
-0.28
-0.28
-0.295
-0.29
-0.3
-0.295
-0.305
-0.3
-0.31
-0.3
-0.315
-0.31
-0.31
-0.295
-0.26
-0.155
-0.125
-0.11
-0.12
-0.175
-0.225
-0.285
-0.365
-0.37
-0.395
-0.39
-0.385
-0.37
-0.375
-0.36
-0.37
-0.325
-0.305
-0.26
0.465
1.33
0.83
-0.35
-1.025
-1.15
-0.955
-0.605
-0.38
-0.28
-0.25
-0.225
-0.225
-0.205
-0.19
-0.165
-0.145
-0.095
-0.085
-0.055
-0.035
0.015
0.08
0.15
0.23
0.315
0.36
0.41
0.435
0.46
0.4
0.315
0.18
0.055
-0.065
-0.145
-0.225
-0.24
-0.285
-0.275
-0.29
-0.305
-0.31
-0.275
-0.305
-0.295
-0.28
-0.255
-0.29
-0.285
-0.29
-0.28
-0.285
-0.295
-0.305
-0.305
-0.33
-0.33
-0.35
-0.33
-0.35
-0.345
-0.36
-0.375
-0.365
-0.325
-0.32
-0.215
-0.185
-0.16
-0.165
-0.215
-0.26
-0.305
-0.4
-0.4
-0.425
-0.425
-0.415
-0.375
-0.4
-0.39
-0.385
-0.345
-0.33
-0.32
0.42
1.41
0.985
-0.225
-0.94
-1.115
-0.985
-0.675
-0.405
-0.28
-0.29
-0.235
-0.23
-0.21
-0.185
-0.16
-0.155
-0.13
-0.125
-0.09
-0.035
0.025
0.085
0.155
0.21
0.295
0.35
0.41
0.45
0.455
0.385
0.275
0.145
0.02
-0.075
-0.15
-0.23
-0.26
-0.3
-0.28
-0.275
-0.275
-0.3
-0.305
-0.3
-0.28
-0.29
-0.265
-0.245
-0.245
-0.275
-0.26
-0.275
-0.28
-0.29
-0.295
-0.305
-0.305
-0.315
-0.295
-0.315
-0.325
-0.315
-0.305
-0.28
-0.155
-0.125
-0.135
-0.13
-0.165
-0.225
-0.255
-0.325
-0.335
-0.365
-0.36
-0.365
-0.35
-0.345
-0.33
-0.325
-0.255
-0.23
-0.115
0.695
1.505
0.81
-0.44
-1.07
-1.125
-0.88
-0.535
-0.31
-0.21
-0.195
-0.145
-0.155
-0.13
-0.105
-0.065
-0.065
-0.04
-0.015
0.045
0.085
0.15
0.185
0.28
0.355
0.43
0.49
0.54
0.56
0.55
0.465
0.355
0.195
0.075
-0.03
-0.095
-0.17
-0.18
-0.215
-0.205
-0.21
-0.21
-0.225
-0.205
-0.21
-0.19
-0.19
-0.17
-0.185
-0.175
-0.18
-0.18
-0.195
-0.2
-0.215
-0.21
-0.23
-0.235
-0.24
-0.235
-0.24
-0.23
-0.22
-0.12
-0.065
-0.07
-0.08
-0.1
-0.15
-0.18
-0.26
-0.285
-0.305
-0.31
-0.31
-0.305
-0.3
-0.28
-0.285
-0.235
-0.195
-0.125
0.43
1.37
1.065
-0.24
-0.98
-1.13
-0.895
-0.495
-0.27
-0.17
-0.14
-0.105
-0.1
-0.08
-0.07
-0.05
-0.025
0.005
0.035
0.085
0.13
0.19
0.245
0.325
0.4
0.49
0.56
0.615
0.64
0.645
0.58
0.47
0.315
0.185
0.05
-0.03
-0.1
-0.13
-0.16
-0.17
-0.175
-0.175
-0.185
-0.17
-0.175
-0.165
-0.175
-0.165
-0.17
-0.155
-0.165
-0.16
-0.17
-0.17
-0.185
-0.185
-0.195
-0.205
-0.215
-0.21
-0.215
-0.185
-0.115
-0.03
-0.03
-0.035
-0.055
-0.09
-0.15
-0.215
-0.265
-0.255
-0.28
-0.28
-0.285
-0.27
-0.265
-0.245
-0.235
-0.175
-0.165
0.155
1.13
1.315
0.165
-0.75
-1.085
-0.965
-0.61
-0.315
-0.17
-0.12
-0.105
-0.075
-0.07
-0.04
-0.03
-0.005
0.015
0.055
0.085
0.135
0.18
0.24
0.305
0.385
0.455
0.535
0.58
0.635
0.645
0.6
0.5
0.37
0.225
0.11
-0.005
-0.06
-0.105
-0.11
-0.13
-0.125
-0.135
-0.13
-0.135
-0.135
-0.13
-0.12
-0.115
-0.115
-0.11
-0.115
-0.125
-0.13
-0.15
-0.145
-0.16
-0.16
-0.185
-0.19
-0.195
-0.17
-0.185
-0.095
0.02
0.035
0.015
0.005
-0.075
-0.11
-0.17
-0.22
-0.24
-0.27
-0.275
-0.26
-0.265
-0.26
-0.275
-0.255
-0.19
-0.155
-0.135
0.58
1.395
0.895
-0.24
-0.88
-1.015
-0.84
-0.525
-0.27
-0.19
-0.13
-0.105
-0.095
-0.085
-0.07
-0.055
-0.015
0.01
0.05
0.065
0.115
0.15
0.21
0.295
0.365
0.42
0.5
0.545
0.585
0.565
0.495
0.385
0.27
0.135
0.035
-0.06
-0.1
-0.13
-0.15
-0.155
-0.15
-0.17
-0.165
-0.17
-0.155
-0.165
-0.155
-0.15
-0.14
-0.125
-0.14
-0.195
-0.165
-0.18
-0.18
-0.2
-0.205
-0.215
-0.225
-0.24
-0.155
-0.055
0.01
0.02
0.055
-0.015
-0.09
-0.15
-0.205
-0.27
-0.285
-0.3
-0.285
-0.285
-0.285
-0.305
-0.29
-0.265
-0.21
-0.22
0.055
1.085
1.455
0.37
-0.63
-1.05
-1.015
-0.715
-0.39
-0.21
-0.15
-0.165
-0.135
-0.12
-0.08
-0.065
-0.025
-0.01
0.03
0.065
0.08
0.105
0.19
0.275
0.345
0.4
0.49
0.535
0.58
0.565
0.57
0.475
0.34
0.205
0.09
-0.02
-0.065
-0.12
-0.135
-0.165
-0.155
-0.155
-0.145
-0.14
-0.135
-0.14
-0.12
-0.13
-0.12
-0.14
-0.125
-0.13
-0.135
-0.15
-0.155
-0.165
-0.165
-0.18
-0.18
-0.19
-0.11
-0.005
0.055
0.03
0.05
-0.005
-0.075
-0.115
-0.165
-0.225
-0.24
-0.26
-0.26
-0.27
-0.26
-0.27
-0.25
-0.215
-0.135
-0.095
0.51
1.435
1.115
-0.205
-0.945
-1.08
-0.87
-0.515
-0.265
-0.155
-0.115
-0.085
-0.075
-0.07
-0.045
-0.015
0.01
0.03
0.07
0.105
0.155
0.195
0.29
0.365
0.44
0.51
0.59
0.63
0.635
0.61
0.57
0.445
0.305
0.175
0.06
-0.025
-0.07
-0.105
-0.125
-0.13
-0.13
-0.14
-0.13
-0.135
-0.125
-0.115
-0.1
-0.105
-0.1
-0.095
-0.1
-0.115
-0.11
-0.125
-0.13
-0.145
-0.145
-0.155
-0.145
-0.07
0.05
0.1
0.09
0.08
0.015
-0.055
-0.1
-0.155
-0.19
-0.22
-0.23
-0.235
-0.235
-0.23
-0.22
-0.215
-0.165
-0.11
-0.05
0.56
1.375
0.915
-0.305
-0.945
-1.04
-0.79
-0.41
-0.185
-0.11
-0.075
-0.04
-0.02
-0.005
0.005
0.03
0.05
0.095
0.13
0.175
0.225
0.28
0.34
0.425
0.495
0.575
0.635
0.685
0.715
0.705
0.62
0.505
0.355
0.22
0.105
0.03
-0.025
-0.045
-0.065
-0.075
-0.08
-0.08
-0.08
-0.08
-0.085
-0.07
-0.06
-0.055
-0.05
-0.05
-0.05
-0.055
-0.065
-0.07
-0.09
-0.085
-0.105
-0.115
-0.08
0.035
0.14
0.155
0.145
0.115
0.025
-0.035
-0.095
-0.145
-0.17
-0.195
-0.205
-0.2
-0.2
-0.2
-0.19
-0.185
-0.125
-0.085
0.05
0.895
1.355
0.45
-0.565
-0.97
-0.945
-0.63
-0.305
-0.12
-0.075
-0.045
-0.025
0.0
0.02
0.04
0.06
0.09
0.115
0.16
0.2
0.25
0.3
0.385
0.455
0.525
0.59
0.655
0.695
0.72
0.68
0.595
0.465
0.325
0.195
0.09
0.025
-0.01
-0.03
-0.05
-0.065
-0.065
-0.075
-0.07
-0.07
-0.055
-0.05
-0.05
-0.045
-0.045
-0.045
-0.035
-0.045
-0.06
-0.07
-0.085
-0.09
-0.095
-0.105
-0.09
-0.035
0.085
0.145
0.135
0.135
0.075
-0.015
-0.065
-0.125
-0.165
-0.2
-0.215
-0.22
-0.22
-0.215
-0.205
-0.22
-0.195
-0.135
-0.15
0.185
1.175
1.275
0.145
-0.7
-1.005
-0.905
-0.575
-0.28
-0.145
-0.11
-0.075
-0.055
-0.035
-0.01
-0.005
0.02
0.06
0.09
0.105
0.15
0.205
0.255
0.325
0.4
0.47
0.52
0.565
0.615
0.63
0.58
0.475
0.34
0.22
0.12
0.015
-0.035
-0.08
-0.105
-0.11
-0.115
-0.115
-0.11
-0.12
-0.115
-0.115
-0.11
-0.11
-0.1
-0.105
-0.115
-0.115
-0.105
-0.125
-0.145
-0.15
-0.155
-0.155
-0.155
-0.145
-0.065
0.045
0.1
0.095
0.065
-0.005
-0.075
-0.155
-0.21
-0.225
-0.22
-0.225
-0.235
-0.235
-0.23
-0.24
-0.245
-0.19
-0.135
-0.125
0.56
1.435
1.035
-0.15
-0.84
-1.02
-0.86
-0.515
-0.285
-0.16
-0.095
-0.08
-0.06
-0.05
-0.03
0.01
0.025
0.035
0.095
0.12
0.135
0.2
0.25
0.32
0.39
0.46
0.535
0.58
0.605
0.585
0.525
0.405
0.28
0.15
0.06
-0.02
-0.06
-0.095
-0.1
-0.115
-0.12
-0.115
-0.105
-0.11
-0.105
-0.105
-0.1
-0.09
-0.08
-0.1
-0.095
-0.105
-0.115
-0.145
-0.15
-0.155
-0.15
-0.17
-0.165
-0.17
-0.175
-0.185
-0.185
-0.16
-0.015
0.09
0.065
0.06
0.045
-0.035
-0.08
-0.15
-0.205
-0.23
-0.24
-0.235
-0.255
-0.25
-0.23
-0.225
-0.225
-0.16
-0.12
0.005
0.86
1.435
0.605
-0.53
-1.02
-1.02
-0.715
-0.38
-0.185
-0.13
-0.085
-0.065
-0.06
-0.04
-0.01
0.0
0.045
0.055
0.105
0.145
0.19
0.24
0.32
0.385
0.465
0.52
0.585
0.62
0.65
0.61
0.54
0.41
0.28
0.15
0.045
-0.03
-0.07
-0.095
-0.12
-0.135
-0.12
-0.13
-0.125
-0.125
-0.105
-0.11
-0.095
-0.105
-0.095
-0.105
-0.105
-0.13
-0.125
-0.135
-0.145
-0.165
-0.155
-0.175
-0.17
-0.185
-0.185
-0.19
-0.185
-0.19
-0.185
-0.195
-0.185
-0.195
-0.19
-0.195
-0.18
-0.2
-0.195
-0.2
-0.195
-0.205
-0.195
-0.215
-0.2
-0.17
-0.035
0.055
0.08
0.08
0.035
-0.05
-0.1
-0.165
-0.2
-0.24
-0.26
-0.265
-0.24
-0.265
-0.25
-0.255
-0.225
-0.17
-0.135
0.005
0.865
1.405
0.545
-0.56
-1.025
-1.035
-0.71
-0.385
-0.185
-0.125
-0.08
-0.075
-0.04
-0.04
-0.005
0.005
0.05
0.08
0.11
0.14
0.195
0.245
0.315
0.375
0.45
0.515
0.585
0.62
0.655
0.63
0.59
0.475
0.35
0.215
0.12
0.02
-0.025
-0.075
-0.075
-0.1
-0.095
-0.1
-0.085
-0.08
-0.075
-0.08
-0.07
-0.08
-0.07
-0.08
-0.075
-0.085
-0.075
-0.105
-0.1
-0.135
-0.12
-0.145
-0.135
-0.145
-0.145
-0.165
-0.155
-0.17
-0.16
-0.165
-0.155
-0.17
-0.155
-0.175
-0.17
-0.175
-0.165
-0.175
-0.165
-0.175
-0.165
-0.17
-0.165
-0.175
-0.16
-0.18
-0.165
-0.145
0.01
0.095
0.125
0.125
0.09
-0.005
-0.05
-0.12
-0.15
-0.19
-0.205
-0.21
-0.195
-0.21
-0.195
-0.2
-0.175
-0.135
-0.1
0.055
0.965
1.45
0.575
-0.505
-0.945
-0.96
-0.645
-0.325
-0.125
-0.07
-0.03
-0.015
0.025
0.025
0.06
0.08
0.11
0.125
0.17
0.195
0.245
0.295
0.37
0.42
0.505
0.56
0.635
0.665
0.71
0.68
0.645
0.535
0.415
0.28
0.195
0.095
0.05
-0.01
-0.015
-0.025
-0.025
-0.04
-0.02
-0.025
0.0
-0.015
0.005
-0.005
0.015
-0.005
0.005
-0.01
-0.01
-0.035
-0.025
-0.04
-0.045
-0.07
-0.06
-0.075
-0.065
-0.09
-0.08
-0.1
-0.085
-0.095
-0.085
-0.095
-0.085
-0.105
-0.095
-0.115
-0.1
-0.105
-0.1
-0.115
-0.105
-0.115
-0.1
-0.12
-0.105
-0.12
-0.11
-0.095
0.025
0.115
0.145
0.13
0.12
0.03
-0.015
-0.075
-0.11
-0.145
-0.165
-0.175
-0.16
-0.18
-0.17
-0.165
-0.135
-0.13
-0.11
-0.015
0.84
1.565
0.94
-0.165
-0.765
-0.885
-0.7
-0.4
-0.14
-0.07
-0.03
-0.025
0.025
0.02
0.05
0.05
0.085
0.105
0.15
0.155
0.205
0.24
0.315
0.365
0.445
0.51
0.56
0.59
0.645
0.62
0.59
0.475
0.385
0.24
0.16
0.065
0.015
-0.025
-0.03
-0.04
-0.035
-0.075
-0.035
-0.06
-0.05
-0.03
-0.01
-0.055
-0.04
-0.045
-0.04
-0.04
-0.04
-0.07
-0.055
-0.08
-0.085
-0.115
-0.1
-0.12
-0.105
-0.125
-0.115
-0.135
-0.115
-0.14
-0.125
-0.135
-0.14
-0.15
-0.135
-0.145
-0.055
0.05
0.13
0.115
0.13
0.045
-0.015
-0.07
-0.125
-0.175
-0.19
-0.215
-0.19
-0.21
-0.175
-0.19
-0.17
-0.155
-0.125
-0.115
0.475
1.505
1.45
0.195
-0.65
-0.935
-0.805
-0.535
-0.235
-0.1
-0.045
-0.03
0.015
0.015
0.05
0.055
0.095
0.105
0.15
0.155
0.21
0.25
0.315
0.36
0.45
0.5
0.575
0.61
0.66
0.645
0.615
0.51
0.41
0.265
0.165
0.075
0.03
-0.03
-0.035
-0.055
-0.045
-0.06
-0.025
-0.04
-0.02
-0.025
-0.005
-0.015
0.005
-0.025
-0.01
-0.025
-0.02
-0.05
-0.045
-0.065
-0.055
-0.085
-0.075
-0.09
-0.08
-0.095
-0.08
-0.1
-0.08
-0.105
-0.085
-0.105
-0.1
-0.095
0.03
0.14
0.17
0.135
0.115
0.02
-0.01
-0.07
-0.095
-0.145
-0.155
-0.18
-0.16
-0.175
-0.15
-0.16
-0.13
-0.095
-0.045
-0.185
-0.2
-0.175
-0.19
-0.165
-0.155
-0.105
-0.14
0.24
1.225
1.275
0.115
-0.67
-0.985
-0.87
-0.555
-0.255
-0.12
-0.08
-0.055
-0.025
-0.02
0.01
0.005
0.06
0.07
0.11
0.13
0.18
0.205
0.265
0.31
0.385
0.42
0.485
0.49
0.53
0.495
0.475
0.37
0.29
0.175
0.095
0.015
-0.015
-0.055
-0.05
-0.085
-0.065
-0.07
-0.055
-0.08
-0.05
-0.06
-0.035
-0.065
-0.065
-0.08
-0.06
-0.095
-0.1
-0.125
-0.115
-0.135
-0.095
0.01
0.105
0.11
0.155
0.115
0.05
-0.045
-0.075
-0.155
-0.19
-0.22
-0.205
-0.2
-0.175
-0.185
-0.165
-0.19
-0.14
-0.11
-0.105
0.51
1.48
1.155
0.05
-0.635
-0.88
-0.815
-0.49
-0.235
-0.095
-0.07
-0.005
-0.005
0.03
0.015
0.05
0.05
0.11
0.115
0.145
0.165
0.245
0.265
0.315
0.365
0.425
0.455
0.51
0.495
0.485
0.425
0.37
0.245
0.175
0.08
0.04
-0.005
-0.005
-0.025
-0.015
-0.02
-0.005
-0.015
0.01
0.005
0.015
-0.005
0.005
-0.015
-0.02
-0.035
-0.04
-0.06
-0.05
-0.07
-0.06
-0.075
-0.01
0.09
0.175
0.195
0.22
0.14
0.075
0.01
-0.025
-0.095
-0.105
-0.145
-0.135
-0.145
-0.125
-0.145
-0.12
-0.135
-0.055
-0.04
0.04
0.795
1.575
0.92
-0.205
-0.81
-0.91
-0.7
-0.35
-0.135
-0.03
-0.005
0.045
0.05
0.08
0.08
0.12
0.125
0.165
0.18
0.24
0.255
0.32
0.36
0.43
0.475
0.54
0.565
0.595
0.58
0.555
0.46
0.375
0.255
0.17
0.075
0.03
-0.02
-0.025
-0.04
-0.03
-0.04
-0.02
-0.03
-0.01
-0.02
-0.005
-0.02
-0.015
-0.04
-0.04
-0.06
-0.06
-0.09
-0.08
-0.105
-0.095
-0.125
-0.115
-0.135
-0.125
-0.145
-0.135
-0.155
-0.145
-0.165
-0.15
-0.145
-0.01
0.085
0.125
0.11
0.08
-0.005
-0.05
-0.105
-0.135
-0.185
-0.205
-0.235
-0.22
-0.24
-0.22
-0.23
-0.205
-0.205
-0.145
-0.135
0.22
1.22
1.405
0.225
-0.705
-1.065
-0.95
-0.615
-0.295
-0.155
-0.095
-0.08
-0.045
-0.045
-0.005
-0.005
0.03
0.045
0.09
0.11
0.16
0.19
0.255
0.31
0.39
0.425
0.485
0.51
0.545
0.525
0.49
0.395
0.3
0.165
0.08
-0.005
-0.055
-0.095
-0.105
-0.13
-0.115
-0.135
-0.12
-0.125
-0.105
-0.115
-0.095
-0.115
-0.095
-0.115
-0.115
-0.135
-0.13
-0.15
-0.15
-0.175
-0.16
-0.185
-0.175
-0.185
-0.18
-0.205
-0.195
-0.21
-0.2
-0.215
-0.2
-0.22
-0.21
-0.23
-0.215
-0.23
-0.21
-0.225
-0.205
-0.225
-0.215
-0.225
-0.12
-0.01
0.07
0.04
0.06
-0.03
-0.085
-0.145
-0.18
-0.24
-0.25
-0.28
-0.27
-0.285
-0.265
-0.28
-0.25
-0.265
-0.19
-0.175
-0.02
0.83
1.46
0.62
-0.48
-1.03
-1.055
-0.785
-0.41
-0.235
-0.15
-0.125
-0.08
-0.08
-0.045
-0.04
-0.01
-0.01
0.035
0.06
0.11
0.135
0.195
0.235
0.315
0.355
0.435
0.465
0.51
0.505
0.495
0.415
0.335
0.22
0.12
0.02
-0.03
-0.09
-0.105
-0.135
-0.13
-0.145
-0.125
-0.135
-0.115
-0.125
-0.1
-0.11
-0.095
-0.11
-0.105
-0.135
-0.135
-0.165
-0.145
-0.165
-0.165
-0.19
-0.18
-0.21
-0.19
-0.215
-0.185
-0.21
-0.195
-0.225
-0.205
-0.235
-0.205
-0.22
-0.205
-0.225
-0.22
-0.225
-0.225
-0.24
-0.22
-0.24
-0.21
-0.225
-0.22
-0.195
-0.05
0.025
0.08
0.08
0.045
-0.06
-0.08
-0.17
-0.22
-0.275
-0.275
-0.28
-0.26
-0.29
-0.26
-0.27
-0.245
-0.235
-0.205
-0.185
0.595
1.495
1.09
-0.095
-0.805
-1.02
-0.85
-0.56
-0.285
-0.19
-0.135
-0.125
-0.09
-0.075
-0.04
-0.06
-0.005
0.015
0.05
0.055
0.115
0.14
0.22
0.25
0.315
0.36
0.44
0.445
0.485
0.435
0.41
0.31
0.235
0.105
0.04
-0.04
-0.055
-0.11
-0.105
-0.13
-0.12
-0.14
-0.125
-0.13
-0.08
-0.11
-0.095
-0.12
-0.11
-0.145
-0.125
-0.145
-0.125
-0.165
-0.165
-0.195
-0.185
-0.215
-0.2
-0.215
-0.195
-0.22
-0.195
-0.215
-0.195
-0.22
-0.195
-0.225
-0.21
-0.23
-0.21
-0.225
-0.2
-0.175
-0.025
0.055
0.085
0.075
0.035
-0.07
-0.095
-0.17
-0.2
-0.24
-0.25
-0.275
-0.24
-0.265
-0.23
-0.25
-0.22
-0.205
-0.165
-0.095
0.76
1.545
0.975
-0.22
-0.845
-1.01
-0.815
-0.5
-0.235
-0.16
-0.095
-0.08
-0.05
-0.055
-0.015
-0.01
0.035
0.035
0.09
0.105
0.175
0.195
0.27
0.31
0.4
0.425
0.495
0.5
0.53
0.49
0.44
0.315
0.23
0.095
0.04
-0.04
-0.06
-0.105
-0.09
-0.115
-0.095
-0.11
-0.08
-0.105
-0.07
-0.09
-0.06
-0.085
-0.07
-0.095
-0.07
-0.11
-0.095
-0.13
-0.12
-0.145
-0.13
-0.165
-0.135
-0.165
-0.15
-0.18
-0.15
-0.17
-0.15
-0.175
-0.155
-0.18
-0.155
-0.18
-0.155
-0.185
-0.155
-0.185
-0.155
-0.17
-0.075
0.025
0.12
0.09
0.1
0.005
-0.04
-0.1
-0.13
-0.2
-0.2
-0.245
-0.205
-0.235
-0.205
-0.225
-0.19
-0.2
-0.125
-0.115
0.235
1.21
1.535
0.4
-0.615
-1.04
-0.95
-0.63
-0.275
-0.14
-0.065
-0.06
-0.005
-0.015
0.035
0.03
0.075
0.07
0.125
0.125
0.2
0.21
0.295
0.33
0.435
0.47
0.56
0.58
0.635
0.605
0.59
0.49
0.405
0.255
0.17
0.05
0.015
-0.055
-0.05
-0.08
-0.055
-0.09
-0.065
-0.085
-0.055
-0.075
-0.05
-0.065
-0.03
-0.06
-0.04
-0.075
-0.055
-0.095
-0.08
-0.115
-0.08
-0.125
-0.105
-0.14
-0.115
-0.145
-0.125
-0.155
-0.135
-0.16
-0.13
-0.165
-0.135
-0.165
-0.135
-0.17
-0.14
-0.165
-0.135
-0.165
-0.125
-0.075
0.075
0.115
0.145
0.09
0.045
-0.05
-0.06
-0.145
-0.155
-0.2
-0.185
-0.215
-0.18
-0.21
-0.18
-0.195
-0.145
-0.13
-0.065
0.24
1.285
1.5
0.4
-0.635
-0.99
-0.935
-0.555
-0.27
-0.09
-0.065
0.0
-0.015
0.025
0.015
0.065
0.055
0.115
0.115
0.18
0.185
0.255
0.28
0.375
0.415
0.515
0.545
0.62
0.625
0.655
0.585
0.54
0.405
0.31
0.17
0.105
0.015
0.0
-0.045
-0.03
-0.07
-0.035
-0.06
-0.025
-0.05
-0.015
-0.045
-0.005
-0.045
-0.015
-0.045
-0.02
-0.065
-0.035
-0.08
-0.06
-0.1
-0.075
-0.105
-0.08
-0.125
-0.095
-0.13
-0.1
-0.13
-0.105
-0.135
-0.105
-0.145
-0.11
-0.15
-0.12
-0.15
-0.115
-0.155
-0.12
-0.145
-0.095
-0.04
0.105
0.095
0.1
0.05
0.005
-0.065
-0.075
-0.165
-0.155
-0.205
-0.17
-0.2
-0.17
-0.195
-0.15
-0.175
-0.12
-0.125
-0.065
0.54
1.58
1.345
0.125
-0.71
-0.935
-0.835
-0.475
-0.235
-0.08
-0.08
-0.015
-0.025
0.03
0.01
0.04
0.03
0.105
0.1
0.145
0.145
0.225
0.26
0.35
0.375
0.46
0.495
0.575
0.555
0.565
0.51
0.445
0.29
0.225
0.1
0.055
-0.025
-0.025
-0.085
-0.055
-0.095
-0.065
-0.095
-0.075
-0.08
-0.025
-0.07
-0.065
-0.08
-0.045
-0.09
-0.07
-0.11
-0.08
-0.12
-0.105
-0.135
-0.11
-0.155
-0.13
-0.175
-0.135
-0.165
-0.145
-0.175
-0.145
-0.185
-0.15
-0.09
0.07
0.055
0.065
0.02
-0.025
-0.1
-0.115
-0.205
-0.185
-0.235
-0.23
-0.26
-0.215
-0.23
-0.195
-0.215
-0.165
-0.19
-0.145
0.49
1.59
1.37
0.15
-0.7
-0.96
-0.89
-0.55
-0.3
-0.13
-0.125
-0.06
-0.075
-0.025
-0.05
-0.005
-0.01
0.04
0.03
0.09
0.095
0.175
0.2
0.29
0.33
0.415
0.44
0.51
0.495
0.515
0.435
0.38
0.25
0.17
0.045
0.01
-0.07
-0.07
-0.11
-0.085
-0.105
-0.08
-0.115
-0.07
-0.08
-0.045
-0.08
-0.05
-0.075
-0.05
-0.09
-0.065
-0.105
-0.08
-0.125
-0.105
-0.145
-0.11
-0.14
-0.125
-0.16
-0.13
-0.16
-0.13
-0.17
-0.145
-0.155
-0.105
-0.03
0.11
0.075
0.09
0.035
0.01
-0.065
-0.08
-0.17
-0.16
-0.21
-0.19
-0.22
-0.18
-0.205
-0.165
-0.19
-0.125
-0.105
0.01
0.655
1.64
1.255
-0.04
-0.85
-1.005
-0.835
-0.42
-0.19
-0.07
-0.065
-0.005
-0.015
0.03
0.015
0.065
0.06
0.115
0.12
0.18
0.195
0.27
0.3
0.395
0.44
0.535
0.555
0.63
0.615
0.63
0.535
0.455
0.32
0.235
0.105
0.065
-0.025
-0.02
-0.07
-0.05
-0.075
-0.04
-0.06
-0.04
-0.06
-0.025
-0.055
-0.03
-0.05
-0.03
-0.055
-0.035
-0.075
-0.065
-0.105
-0.08
-0.115
-0.095
-0.13
-0.095
-0.13
-0.105
-0.135
-0.105
-0.14
-0.115
-0.145
-0.11
-0.14
-0.11
-0.115
0.005
0.08
0.11
0.06
0.07
-0.025
-0.035
-0.135
-0.155
-0.185
-0.17
-0.205
-0.18
-0.205
-0.175
-0.2
-0.165
-0.145
-0.075
-0.015
0.71
1.59
1.19
-0.15
-0.86
-1.05
-0.775
-0.41
-0.14
-0.08
-0.03
-0.02
0.03
0.01
0.045
0.04
0.09
0.085
0.135
0.145
0.205
0.235
0.315
0.365
0.47
0.505
0.585
0.59
0.635
0.6
0.57
0.46
0.365
0.225
0.14
0.035
0.015
-0.045
-0.035
-0.07
-0.045
-0.07
-0.045
-0.065
-0.03
-0.045
-0.015
-0.04
-0.015
-0.045
-0.025
-0.07
-0.05
-0.08
-0.07
-0.085
-0.07
-0.11
-0.095
-0.125
-0.105
-0.13
-0.11
-0.13
-0.115
-0.13
-0.1
-0.14
-0.105
-0.12
-0.065
0.005
0.11
0.1
0.1
0.04
0.01
-0.07
-0.11
-0.175
-0.14
-0.17
-0.155
-0.175
-0.145
-0.16
-0.13
-0.145
-0.065
-0.07
0.135
1.05
1.675
0.745
-0.4
-0.95
-0.95
-0.655
-0.27
-0.095
-0.015
-0.005
0.045
0.03
0.06
0.055
0.095
0.095
0.135
0.145
0.2
0.22
0.29
0.33
0.41
0.455
0.535
0.565
0.625
0.61
0.62
0.535
0.455
0.315
0.215
0.105
0.06
-0.005
-0.02
-0.055
-0.035
-0.06
-0.045
-0.07
-0.045
-0.06
-0.04
-0.065
-0.04
-0.065
-0.045
-0.08
-0.08
-0.115
-0.11
-0.14
-0.13
-0.16
-0.135
-0.165
-0.155
-0.185
-0.17
-0.19
-0.17
-0.2
-0.175
-0.19
-0.18
-0.185
-0.16
-0.175
-0.09
-0.02
0.04
0.02
0.005
-0.075
-0.095
-0.185
-0.225
-0.25
-0.24
-0.25
-0.22
-0.245
-0.23
-0.24
-0.195
-0.17
-0.145
-0.065
0.805
1.605
0.97
-0.225
-0.835
-0.995
-0.805
-0.485
-0.21
-0.14
-0.11
-0.1
-0.045
-0.045
-0.03
-0.03
0.01
0.015
0.055
0.055
0.1
0.125
0.205
0.255
0.33
0.365
0.43
0.455
0.495
0.475
0.425
0.315
0.245
0.115
0.045
-0.045
-0.07
-0.125
-0.11
-0.12
-0.115
-0.145
-0.12
-0.11
-0.09
-0.115
-0.12
-0.12
-0.09
-0.12
-0.115
-0.145
-0.13
-0.155
-0.165
-0.185
-0.16
-0.185
-0.17
-0.2
-0.205
-0.21
-0.17
-0.2
-0.205
-0.21
-0.165
-0.075
0.005
0.015
0.03
-0.055
-0.09
-0.165
-0.22
-0.255
-0.245
-0.28
-0.255
-0.265
-0.255
-0.24
-0.205
-0.215
-0.18
-0.175
0.17
1.255
1.595
0.465
-0.545
-0.97
-0.945
-0.695
-0.37
-0.185
-0.125
-0.11
-0.065
-0.045
-0.015
0.0
0.035
0.025
0.055
0.07
0.125
0.16
0.215
0.275
0.355
0.385
0.455
0.495
0.525
0.515
0.485
0.385
0.305
0.21
0.12
0.02
-0.025
-0.075
-0.075
-0.075
-0.09
-0.11
-0.08
-0.08
-0.06
-0.08
-0.075
-0.075
-0.055
-0.105
-0.08
-0.09
-0.13
-0.145
-0.125
-0.14
-0.155
-0.17
-0.155
-0.19
-0.215
-0.205
-0.15
-0.18
-0.135
-0.02
0.005
-0.04
-0.015
-0.065
-0.08
-0.165
-0.215
-0.225
-0.23
-0.24
-0.24
-0.25
-0.205
-0.22
-0.225
-0.205
-0.15
-0.035
0.88
1.75
1.155
-0.17
-0.925
-1.04
-0.82
-0.51
-0.24
-0.145
-0.105
-0.07
-0.03
-0.03
-0.01
0.005
0.015
0.055
0.11
0.12
0.185
0.225
0.295
0.35
0.425
0.49
0.555
0.61
0.62
0.575
0.52
0.4
0.295
0.175
0.08
-0.005
-0.03
-0.055
-0.05
-0.07
-0.055
-0.05
-0.05
-0.055
-0.025
-0.04
-0.025
-0.03
-0.03
-0.05
-0.015
-0.04
-0.045
-0.07
