signal
-0.285
-0.365
-0.41
-0.46
-0.495
-0.485
-0.49
-0.485
-0.48
-0.465
-0.475
-0.475
-0.46
-0.445
-0.455
-0.46
-0.46
-0.465
-0.485
-0.48
-0.485
-0.49
-0.465
-0.39
-0.365
-0.38
-0.28
-0.205
-0.335
-0.455
-0.495
-0.5
-0.56
-0.565
-0.585
-0.57
-0.575
-0.51
0.055
1.435
2.48
1.295
-0.405
-0.78
-0.755
-0.625
-0.535
-0.515
-0.51
-0.495
-0.48
-0.445
-0.415
-0.39
-0.345
-0.3
-0.275
-0.205
-0.145
-0.08
-0.005
0.09
0.2
0.345
0.43
0.54
0.62
0.66
0.62
0.485
0.265
0.09
-0.065
-0.185
-0.285
-0.375
-0.405
-0.385
-0.395
-0.385
-0.4
-0.41
-0.395
-0.385
-0.4
-0.385
-0.4
-0.415
-0.42
-0.4
-0.43
-0.445
-0.465
-0.465
-0.49
-0.485
-0.465
-0.4
-0.355
-0.38
-0.345
-0.22
-0.305
-0.445
-0.475
-0.49
-0.56
-0.56
-0.575
-0.575
-0.595
-0.61
-0.23
1.105
2.585
2.02
0.035
-0.81
-0.735
-0.65
-0.525
-0.495
-0.495
-0.47
-0.47
-0.445
-0.43
-0.395
-0.375
-0.33
-0.295
-0.25
-0.195
-0.125
-0.05
0.06
0.155
0.285
0.4
0.52
0.61
0.67
0.655
0.56
0.355
0.14
-0.055
-0.21
-0.315
-0.375
-0.435
-0.46
-0.495
-0.5
-0.515
-0.5
-0.5
-0.49
-0.49
-0.47
-0.485
-0.465
-0.48
-0.485
-0.51
-0.52
-0.545
-0.555
-0.575
-0.595
-0.61
-0.615
-0.63
-0.59
-0.53
-0.495
-0.53
-0.425
-0.33
-0.445
-0.595
-0.605
-0.64
-0.7
-0.72
-0.705
-0.72
-0.72
-0.75
-0.435
0.835
2.39
2.03
-0.075
-1.03
-0.825
-0.76
-0.635
-0.64
-0.615
-0.605
-0.59
-0.59
-0.56
-0.54
-0.5
-0.485
-0.435
-0.395
-0.33
-0.275
-0.19
-0.115
-0.005
0.115
0.23
0.34
0.44
0.495
0.52
0.435
0.275
0.045
-0.155
-0.325
-0.425
-0.5
-0.53
-0.575
-0.595
-0.615
-0.615
-0.62
-0.615
-0.625
-0.605
-0.605
-0.595
-0.59
-0.585
-0.605
-0.605
-0.62
-0.63
-0.64
-0.645
-0.665
-0.665
-0.67
-0.67
-0.675
-0.665
-0.635
-0.545
-0.525
-0.545
-0.435
-0.335
-0.47
-0.59
-0.62
-0.65
-0.715
-0.72
-0.735
-0.74
-0.745
-0.76
-0.545
0.57
2.09
1.98
0.005
-1.03
-0.875
-0.795
-0.675
-0.66
-0.65
-0.63
-0.635
-0.61
-0.6
-0.565
-0.535
-0.49
-0.455
-0.41
-0.365
-0.305
-0.235
-0.15
-0.065
0.055
0.165
0.285
0.375
0.445
0.455
0.415
0.26
0.065
-0.145
-0.305
-0.415
-0.485
-0.545
-0.56
-0.595
-0.6
-0.615
-0.615
-0.595
-0.575
-0.58
-0.56
-0.56
-0.56
-0.565
-0.575
-0.59
-0.595
-0.605
-0.615
-0.625
-0.625
-0.625
-0.625
-0.635
-0.635
-0.645
-0.635
-0.635
-0.645
-0.645
-0.645
-0.59
-0.5
-0.495
-0.5
-0.375
-0.325
-0.48
-0.575
-0.59
-0.63
-0.68
-0.68
-0.69
-0.695
-0.695
-0.72
-0.415
0.79
2.18
1.695
-0.165
-0.925
-0.79
-0.715
-0.605
-0.6
-0.59
-0.565
-0.555
-0.535
-0.52
-0.49
-0.465
-0.43
-0.39
-0.35
-0.295
-0.24
-0.175
-0.09
0.01
0.105
0.21
0.315
0.405
0.475
0.5
0.465
0.335
0.15
-0.05
-0.21
-0.33
-0.4
-0.455
-0.475
-0.495
-0.495
-0.505
-0.505
-0.495
-0.485
-0.47
-0.46
-0.455
-0.46
-0.465
-0.475
-0.49
-0.495
-0.505
-0.51
-0.52
-0.525
-0.53
-0.545
-0.545
-0.545
-0.55
-0.545
-0.545
-0.55
-0.55
-0.545
-0.54
-0.545
-0.54
-0.5
-0.415
-0.39
-0.415
-0.305
-0.21
-0.325
-0.46
-0.485
-0.52
-0.56
-0.575
-0.585
-0.585
-0.575
-0.605
-0.47
0.41
1.895
2.225
0.47
-0.775
-0.715
-0.655
-0.525
-0.485
-0.485
-0.465
-0.455
-0.445
-0.425
-0.4
-0.37
-0.335
-0.3
-0.255
-0.21
-0.165
-0.095
-0.025
0.07
0.165
0.27
0.375
0.46
0.53
0.575
0.555
0.475
0.305
0.115
-0.05
-0.19
-0.28
-0.345
-0.39
-0.42
-0.42
-0.42
-0.425
-0.415
-0.395
-0.4
-0.39
-0.395
-0.39
-0.4
-0.4
-0.42
-0.43
-0.44
-0.445
-0.455
-0.465
-0.465
-0.475
-0.48
-0.49
-0.48
-0.48
-0.48
-0.48
-0.475
-0.47
-0.465
-0.475
-0.465
-0.455
-0.455
-0.465
-0.42
-0.345
-0.31
-0.33
-0.215
-0.11
-0.23
-0.36
-0.385
-0.415
-0.47
-0.48
-0.48
-0.485
-0.49
-0.49
-0.37
0.43
1.855
2.365
0.82
-0.525
-0.605
-0.58
-0.43
-0.39
-0.38
-0.37
-0.365
-0.345
-0.325
-0.3
-0.27
-0.255
-0.225
-0.185
-0.14
-0.09
-0.025
0.035
0.125
0.225
0.325
0.42
0.525
0.605
0.655
0.67
0.595
0.44
0.265
0.08
-0.06
-0.155
-0.24
-0.295
-0.305
-0.31
-0.315
-0.31
-0.3
-0.3
-0.29
-0.285
-0.28
-0.28
-0.285
-0.295
-0.305
-0.315
-0.32
-0.335
-0.335
-0.335
-0.345
-0.35
-0.35
-0.38
-0.38
-0.36
-0.355
-0.37
-0.375
-0.375
-0.37
-0.37
-0.375
-0.38
-0.38
-0.37
-0.32
-0.24
-0.25
-0.23
-0.1
-0.1
-0.24
-0.315
-0.355
-0.395
-0.415
-0.425
-0.435
-0.435
-0.435
-0.455
-0.105
1.055
2.3
1.855
0.325
-0.505
-0.625
-0.56
-0.415
-0.385
-0.375
-0.365
-0.34
-0.325
-0.3
-0.285
-0.265
-0.235
-0.195
-0.165
-0.125
-0.075
-0.02
0.055
0.15
0.24
0.345
0.44
0.525
0.57
0.595
0.56
0.455
0.29
0.095
-0.065
-0.185
-0.275
-0.325
-0.35
-0.36
-0.37
-0.37
-0.365
-0.35
-0.36
-0.35
-0.35
-0.35
-0.355
-0.355
-0.37
-0.385
-0.4
-0.41
-0.425
-0.435
-0.43
-0.445
-0.44
-0.445
-0.455
-0.455
-0.45
-0.445
-0.455
-0.455
-0.45
-0.445
-0.445
-0.445
-0.445
-0.45
-0.455
-0.45
-0.445
-0.43
-0.365
-0.305
-0.325
-0.24
-0.155
-0.23
-0.355
-0.395
-0.435
-0.475
-0.49
-0.49
-0.505
-0.51
-0.52
-0.47
0.155
1.645
2.72
1.395
-0.345
-0.655
-0.61
-0.495
-0.425
-0.42
-0.41
-0.395
-0.375
-0.355
-0.34
-0.31
-0.285
-0.25
-0.215
-0.175
-0.13
-0.065
0.005
0.09
0.18
0.285
0.4
0.495
0.585
0.645
0.67
0.635
0.515
0.335
0.13
-0.045
-0.17
-0.255
-0.305
-0.34
-0.37
-0.375
-0.38
-0.38
-0.375
-0.365
-0.355
-0.35
-0.345
-0.335
-0.345
-0.345
-0.36
-0.365
-0.38
-0.39
-0.4
-0.405
-0.42
-0.425
-0.43
-0.425
-0.44
-0.445
-0.44
-0.445
-0.445
-0.44
-0.45
-0.445
-0.455
-0.45
-0.445
-0.455
-0.445
-0.445
-0.42
-0.345
-0.3
-0.325
-0.23
-0.14
-0.235
-0.355
-0.4
-0.435
-0.48
-0.49
-0.5
-0.5
-0.505
-0.52
-0.455
0.23
1.685
2.57
1.145
-0.465
-0.645
-0.595
-0.475
-0.41
-0.415
-0.4
-0.39
-0.37
-0.355
-0.335
-0.305
-0.275
-0.24
-0.205
-0.165
-0.115
-0.055
0.02
0.095
0.19
0.295
0.405
0.505
0.585
0.645
0.66
0.635
0.52
0.335
0.13
-0.03
-0.145
-0.23
-0.295
-0.32
-0.34
-0.345
-0.35
-0.345
-0.33
-0.325
-0.31
-0.3
-0.31
-0.305
-0.3
-0.305
-0.31
-0.31
-0.32
-0.33
-0.34
-0.345
-0.345
-0.355
-0.355
-0.345
-0.355
-0.365
-0.37
-0.365
-0.355
-0.355
-0.365
-0.355
-0.365
-0.355
-0.355
-0.36
-0.35
-0.335
-0.33
-0.26
-0.21
-0.225
-0.145
-0.04
-0.11
-0.235
-0.275
-0.3
-0.35
-0.35
-0.355
-0.365
-0.365
-0.355
-0.3
0.265
1.575
2.485
1.41
-0.025
-0.43
-0.53
-0.42
-0.315
-0.305
-0.295
-0.275
-0.265
-0.265
-0.23
-0.195
-0.175
-0.155
-0.115
-0.075
-0.025
0.035
0.095
0.175
0.27
0.355
0.47
0.585
0.675
0.715
0.73
0.685
0.57
0.395
0.2
0.045
-0.07
-0.165
-0.215
-0.235
-0.255
-0.26
-0.24
-0.235
-0.23
-0.225
-0.215
-0.215
-0.21
-0.215
-0.23
-0.23
-0.235
-0.24
-0.24
-0.255
-0.265
-0.28
-0.27
-0.275
-0.28
-0.29
-0.295
-0.305
-0.305
-0.32
-0.315
-0.315
-0.32
-0.325
-0.33
-0.325
-0.325
-0.33
-0.315
-0.27
-0.2
-0.195
-0.175
-0.065
-0.06
-0.2
-0.285
-0.305
-0.345
-0.375
-0.385
-0.395
-0.4
-0.4
-0.445
-0.135
1.05
2.43
2.145
0.505
-0.44
-0.555
-0.52
-0.375
-0.355
-0.345
-0.325
-0.315
-0.3
-0.275
-0.26
-0.24
-0.205
-0.17
-0.14
-0.1
-0.05
0.025
0.09
0.18
0.28
0.39
0.49
0.595
0.655
0.685
0.665
0.575
0.4
0.195
0.015
-0.12
-0.215
-0.275
-0.32
-0.345
-0.365
-0.355
-0.365
-0.35
-0.335
-0.325
-0.325
-0.31
-0.315
-0.305
-0.325
-0.325
-0.345
-0.36
-0.37
-0.38
-0.395
-0.4
-0.405
-0.405
-0.42
-0.415
-0.425
-0.415
-0.425
-0.4
-0.425
-0.41
-0.415
-0.4
-0.42
-0.415
-0.425
-0.42
-0.425
-0.405
-0.345
-0.27
-0.29
-0.23
-0.14
-0.175
-0.31
-0.37
-0.4
-0.45
-0.47
-0.46
-0.47
-0.475
-0.49
-0.49
-0.08
1.255
2.625
1.94
0.06
-0.645
-0.575
-0.505
-0.4
-0.39
-0.38
-0.365
-0.36
-0.335
-0.325
-0.28
-0.27
-0.225
-0.2
-0.155
-0.115
-0.06
0.01
0.095
0.175
0.285
0.39
0.51
0.6
0.685
0.72
0.7
0.605
0.435
0.22
0.035
-0.115
-0.21
-0.285
-0.315
-0.35
-0.355
-0.365
-0.36
-0.37
-0.36
-0.35
-0.34
-0.345
-0.325
-0.335
-0.315
-0.33
-0.33
-0.35
-0.35
-0.365
-0.37
-0.39
-0.385
-0.4
-0.395
-0.405
-0.4
-0.42
-0.405
-0.425
-0.415
-0.425
-0.415
-0.425
-0.415
-0.42
-0.425
-0.435
-0.42
-0.43
-0.42
-0.395
-0.295
-0.295
-0.3
-0.19
-0.135
-0.27
-0.36
-0.395
-0.425
-0.475
-0.465
-0.475
-0.475
-0.485
-0.5
-0.385
0.47
1.965
2.5
0.825
-0.555
-0.595
-0.56
-0.435
-0.4
-0.41
-0.39
-0.385
-0.365
-0.355
-0.325
-0.305
-0.265
-0.24
-0.205
-0.175
-0.115
-0.06
0.02
0.095
0.2
0.3
0.425
0.515
0.605
0.645
0.67
0.605
0.475
0.275
0.09
-0.09
-0.195
-0.28
-0.325
-0.365
-0.38
-0.39
-0.385
-0.39
-0.375
-0.375
-0.355
-0.36
-0.35
-0.35
-0.345
-0.355
-0.355
-0.375
-0.375
-0.395
-0.395
-0.41
-0.4
-0.425
-0.42
-0.435
-0.43
-0.44
-0.44
-0.445
-0.44
-0.455
-0.44
-0.45
-0.445
-0.455
-0.445
-0.45
-0.445
-0.455
-0.415
-0.355
-0.3
-0.325
-0.24
-0.16
-0.235
-0.36
-0.385
-0.43
-0.465
-0.48
-0.49
-0.5
-0.48
-0.5
-0.47
0.005
1.36
2.48
1.445
-0.185
-0.56
-0.57
-0.47
-0.395
-0.38
-0.38
-0.365
-0.36
-0.325
-0.315
-0.28
-0.265
-0.225
-0.19
-0.14
-0.105
-0.045
0.02
0.105
0.185
0.305
0.4
0.525
0.61
0.695
0.72
0.69
0.585
0.415
0.195
0.02
-0.11
-0.195
-0.265
-0.285
-0.315
-0.305
-0.315
-0.305
-0.305
-0.28
-0.3
-0.285
-0.27
-0.265
-0.285
-0.275
-0.29
-0.285
-0.305
-0.295
-0.305
-0.325
-0.335
-0.32
-0.345
-0.345
-0.345
-0.34
-0.36
-0.34
-0.36
-0.355
-0.35
-0.345
-0.355
-0.345
-0.345
-0.335
-0.355
-0.315
-0.25
-0.215
-0.24
-0.12
-0.065
-0.16
-0.275
-0.29
-0.345
-0.355
-0.375
-0.375
-0.4
-0.385
-0.4
-0.265
0.465
1.79
2.39
1.085
-0.265
-0.5
-0.575
-0.41
-0.34
-0.305
-0.305
-0.285
-0.27
-0.23
-0.21
-0.185
-0.17
-0.105
-0.08
-0.03
-0.005
0.07
0.12
0.23
0.33
0.455
0.55
0.655
0.725
0.805
0.79
0.735
0.59
0.4
0.195
0.07
-0.035
-0.12
-0.18
-0.175
-0.165
-0.15
-0.19
-0.175
-0.175
-0.165
-0.16
-0.165
-0.18
-0.165
-0.19
-0.2
-0.225
-0.195
-0.21
-0.23
-0.25
-0.25
-0.265
-0.26
-0.265
-0.265
-0.285
-0.26
-0.265
-0.27
-0.29
-0.275
-0.28
-0.28
-0.275
-0.27
-0.29
-0.24
-0.175
-0.165
-0.165
-0.045
-0.01
-0.135
-0.23
-0.255
-0.29
-0.325
-0.325
-0.325
-0.345
-0.345
-0.38
-0.215
0.735
2.195
2.595
1.025
-0.335
-0.52
-0.525
-0.375
-0.33
-0.315
-0.31
-0.295
-0.275
-0.265
-0.245
-0.22
-0.19
-0.17
-0.135
-0.1
-0.045
0.01
0.08
0.155
0.26
0.37
0.475
0.575
0.655
0.69
0.675
0.59
0.44
0.225
0.045
-0.105
-0.205
-0.275
-0.315
-0.345
-0.355
-0.36
-0.345
-0.34
-0.32
-0.32
-0.295
-0.305
-0.285
-0.29
-0.295
-0.315
-0.315
-0.33
-0.33
-0.35
-0.35
-0.375
-0.37
-0.39
-0.385
-0.395
-0.395
-0.4
-0.395
-0.405
-0.395
-0.41
-0.4
-0.41
-0.41
-0.41
-0.405
-0.415
-0.4
-0.405
-0.35
-0.28
-0.265
-0.275
-0.155
-0.14
-0.255
-0.35
-0.365
-0.415
-0.44
-0.445
-0.445
-0.455
-0.445
-0.48
-0.315
0.6
2.21
2.725
0.955
-0.54
-0.57
-0.555
-0.415
-0.39
-0.38
-0.385
-0.36
-0.355
-0.315
-0.3
-0.265
-0.24
-0.21
-0.185
-0.13
-0.09
-0.015
0.05
0.155
0.23
0.36
0.475
0.59
0.67
0.75
0.755
0.71
0.56
0.35
0.115
-0.03
-0.165
-0.23
-0.28
-0.3
-0.32
-0.335
-0.35
-0.32
-0.34
-0.34
-0.335
-0.3
-0.295
-0.28
-0.3
-0.285
-0.28
-0.275
-0.295
-0.295
-0.305
-0.315
-0.33
-0.3
-0.31
-0.31
-0.34
-0.33
-0.325
-0.305
-0.325
-0.315
-0.34
-0.325
-0.325
-0.295
-0.23
-0.19
-0.225
-0.105
-0.035
-0.14
-0.255
-0.275
-0.305
-0.35
-0.37
-0.365
-0.395
-0.365
-0.38
-0.295
0.4
1.86
2.74
1.415
-0.215
-0.505
-0.555
-0.405
-0.325
-0.285
-0.29
-0.265
-0.26
-0.21
-0.205
-0.185
-0.16
-0.075
-0.06
-0.01
0.035
0.12
0.2
0.295
0.41
0.55
0.675
0.83
0.915
0.975
0.985
0.905
0.72
0.515
0.275
0.095
-0.035
-0.09
-0.135
-0.17
-0.19
-0.19
-0.195
-0.165
-0.16
-0.105
-0.08
-0.115
-0.165
-0.135
-0.13
-0.145
-0.15
-0.14
-0.15
-0.185
-0.205
-0.21
-0.24
-0.235
-0.255
-0.275
-0.285
-0.275
-0.28
-0.27
-0.235
-0.16
-0.165
-0.145
-0.055
-0.025
-0.155
-0.25
-0.28
-0.315
-0.365
-0.35
-0.365
-0.365
-0.375
-0.415
-0.135
1.085
2.695
2.705
0.705
-0.575
-0.585
-0.5
-0.345
-0.32
-0.315
-0.295
-0.28
-0.265
-0.235
-0.225
-0.195
-0.155
-0.115
-0.07
-0.04
0.02
0.1
0.195
0.3
0.445
0.58
0.725
0.85
0.935
0.96
0.91
0.745
0.505
0.25
0.055
-0.09
-0.18
-0.23
-0.26
-0.275
-0.295
-0.32
-0.325
-0.335
-0.33
-0.335
-0.33
-0.335
-0.335
-0.33
-0.325
-0.33
-0.335
-0.35
-0.355
-0.365
-0.38
-0.4
-0.41
-0.42
-0.42
-0.44
-0.445
-0.44
-0.37
-0.305
-0.315
-0.28
-0.19
-0.225
-0.36
-0.415
-0.435
-0.5
-0.54
-0.54
-0.545
-0.55
-0.56
-0.56
-0.05
1.455
2.895
1.895
-0.13
-0.735
-0.645
-0.57
-0.48
-0.475
-0.455
-0.445
-0.44
-0.43
-0.41
-0.395
-0.365
-0.33
-0.3
-0.25
-0.19
-0.135
-0.06
0.05
0.155
0.295
0.435
0.56
0.68
0.745
0.755
0.665
0.465
0.23
-0.01
-0.19
-0.315
-0.395
-0.435
-0.455
-0.48
-0.49
-0.495
-0.505
-0.505
-0.515
-0.515
-0.51
-0.495
-0.485
-0.48
-0.475
-0.485
-0.485
-0.495
-0.505
-0.51
-0.52
-0.53
-0.54
-0.545
-0.545
-0.55
-0.545
-0.51
-0.43
-0.415
-0.435
-0.33
-0.265
-0.37
-0.475
-0.485
-0.535
-0.595
-0.615
-0.615
-0.615
-0.615
-0.625
-0.51
0.295
1.89
2.615
0.865
-0.76
-0.77
-0.675
-0.55
-0.515
-0.52
-0.505
-0.495
-0.48
-0.465
-0.44
-0.405
-0.375
-0.35
-0.295
-0.235
-0.185
-0.125
-0.035
0.07
0.18
0.32
0.46
0.57
0.68
0.735
0.72
0.595
0.385
0.16
-0.045
-0.19
-0.27
-0.325
-0.355
-0.375
-0.395
-0.395
-0.39
-0.4
-0.425
-0.44
-0.425
-0.4
-0.4
-0.395
-0.385
-0.375
-0.375
-0.35
-0.36
-0.375
-0.38
-0.39
-0.385
-0.38
-0.39
-0.375
-0.395
-0.42
-0.345
-0.275
-0.285
-0.28
-0.185
-0.17
-0.305
-0.4
-0.4
-0.445
-0.47
-0.46
-0.485
-0.48
-0.47
-0.495
-0.29
0.775
2.32
2.475
0.635
-0.665
-0.68
-0.6
-0.485
-0.435
-0.43
-0.44
-0.41
-0.38
-0.37
-0.345
-0.31
-0.275
-0.225
-0.18
-0.145
-0.08
-0.04
0.075
0.225
0.335
0.485
0.625
0.755
0.875
0.895
0.805
0.61
0.395
0.375
0.325
0.085
-0.095
-0.195
-0.275
-0.325
-0.345
-0.335
-0.35
-0.39
-0.395
-0.395
-0.38
-0.395
-0.4
-0.385
-0.35
-0.37
-0.37
-0.35
-0.36
-0.39
-0.405
-0.425
-0.425
-0.435
-0.47
-0.455
-0.37
-0.315
-0.335
-0.315
-0.215
-0.2
-0.34
-0.44
-0.375
-0.435
-0.47
-0.47
-0.425
-0.4
-0.43
-0.46
-0.17
1.19
2.905
2.755
0.51
-0.795
-0.49
-0.25
-0.105
-0.025
0.045
0.03
0.055
0.07
0.05
0.135
0.285
0.475
0.845
1.16
1.23
1.135
1.04
1.08
1.195
1.15
1.14
1.155
1.175
1.215
1.155
1.01
0.74
0.455
0.16
-0.075
-0.23
-0.35
-0.405
-0.415
-0.425
-0.49
-0.505
-0.5
-0.505
-0.51
-0.5
-0.495
-0.52
-0.505
-0.485
-0.475
-0.45
-0.445
-0.44
-0.43
-0.435
-0.435
-0.44
-0.45
-0.45
-0.45
-0.4
-0.33
-0.305
-0.295
-0.19
-0.17
-0.305
-0.38
-0.385
-0.42
-0.485
-0.49
-0.46
-0.44
-0.445
-0.485
-0.155
1.225
3.085
3.145
0.645
-0.93
-0.665
-0.505
-0.345
-0.31
-0.3
-0.29
-0.26
-0.225
-0.205
-0.185
-0.15
-0.09
-0.035
0.015
0.07
0.14
0.24
0.345
0.475
0.635
0.805
0.96
1.095
1.18
1.205
1.105
0.88
0.595
0.335
0.15
0.015
-0.06
-0.07
-0.07
-0.11
-0.145
-0.15
-0.16
-0.155
-0.165
-0.165
-0.165
-0.17
-0.165
-0.145
-0.13
-0.135
-0.135
-0.13
-0.135
-0.145
-0.145
-0.15
-0.155
-0.155
-0.15
-0.17
-0.17
-0.175
-0.125
-0.045
-0.035
-0.05
0.055
0.11
-0.02
-0.105
-0.1
-0.16
-0.215
-0.21
-0.21
-0.22
-0.22
-0.255
0.035
1.37
3.2
3.31
0.955
-0.53
-0.33
-0.255
-0.14
-0.125
-0.115
-0.1
-0.075
-0.065
-0.04
-0.02
0.0
0.035
0.08
0.115
0.165
0.235
0.315
0.405
0.525
0.665
0.81
0.955
1.085
1.19
1.235
1.17
0.98
0.71
0.465
0.275
0.135
0.05
-0.01
-0.045
-0.065
-0.085
-0.105
-0.12
-0.12
-0.14
-0.15
-0.145
-0.15
-0.155
-0.145
-0.14
-0.14
-0.135
-0.13
-0.13
-0.15
-0.16
-0.17
-0.175
-0.19
-0.205
-0.21
-0.225
-0.22
-0.21
-0.14
-0.075
-0.095
-0.05
0.04
-0.01
-0.15
-0.175
-0.195
-0.27
-0.305
-0.305
-0.325
-0.32
-0.32
-0.34
0.155
1.66
3.14
2.215
0.08
-0.59
-0.425
-0.34
-0.255
-0.265
-0.25
-0.23
-0.23
-0.21
-0.19
-0.175
-0.15
-0.12
-0.095
-0.065
-0.03
0.035
0.12
0.225
0.325
0.46
0.585
0.73
0.83
0.915
0.915
0.825
0.615
0.37
0.14
-0.01
-0.13
-0.19
-0.23
-0.24
-0.29
-0.305
-0.32
-0.325
-0.34
-0.345
-0.355
-0.345
-0.35
-0.34
-0.34
-0.325
-0.34
-0.335
-0.35
-0.365
-0.375
-0.37
-0.395
-0.39
-0.4
-0.41
-0.425
-0.425
-0.425
-0.395
-0.33
-0.275
-0.315
-0.22
-0.135
-0.225
-0.365
-0.39
-0.425
-0.485
-0.515
-0.505
-0.525
-0.515
-0.535
-0.53
0.0
1.47
2.755
1.625
-0.295
-0.73
-0.625
-0.525
-0.46
-0.465
-0.46
-0.44
-0.435
-0.4
-0.395
-0.36
-0.345
-0.29
-0.255
-0.215
-0.175
-0.09
-0.025
0.07
0.16
0.3
0.41
0.55
0.655
0.725
0.725
0.64
0.43
0.205
-0.025
-0.17
-0.275
-0.305
-0.345
-0.36
-0.39
-0.395
-0.425
-0.435
-0.425
-0.41
-0.425
-0.41
-0.41
-0.39
-0.39
-0.375
-0.375
-0.355
-0.375
-0.39
-0.39
-0.38
-0.4
-0.4
-0.42
-0.395
-0.42
-0.425
-0.435
-0.42
-0.43
-0.38
-0.32
-0.295
-0.325
-0.19
-0.12
-0.21
-0.34
-0.355
-0.4
-0.45
-0.475
-0.47
-0.47
-0.475
-0.485
-0.445
0.145
1.685
2.83
1.55
-0.305
-0.69
-0.67
-0.525
-0.445
-0.425
-0.43
-0.38
-0.37
-0.355
-0.325
-0.275
-0.265
-0.22
-0.175
-0.12
-0.075
0.0
0.065
0.19
0.3
0.445
0.58
0.735
0.83
0.91
0.885
0.815
0.595
0.355
0.125
-0.025
-0.15
-0.2
-0.255
-0.27
-0.295
-0.295
-0.315
-0.315
-0.335
-0.32
-0.325
-0.295
-0.31
-0.285
-0.31
-0.3
-0.315
-0.31
-0.33
-0.325
-0.345
-0.355
-0.37
-0.35
-0.375
-0.37
-0.395
-0.375
-0.39
-0.38
-0.355
-0.265
-0.265
-0.265
-0.18
-0.075
-0.185
-0.295
-0.33
-0.36
-0.425
-0.425
-0.445
-0.43
-0.44
-0.445
-0.41
0.345
2.0
3.165
1.615
-0.335
-0.635
-0.545
-0.425
-0.335
-0.335
-0.31
-0.31
-0.29
-0.275
-0.24
-0.225
-0.185
-0.165
-0.11
-0.075
0.01
0.065
0.155
0.255
0.395
0.51
0.66
0.78
0.89
0.935
0.94
0.795
0.59
0.325
0.135
-0.045
-0.13
-0.205
-0.215
-0.265
-0.275
-0.305
-0.295
-0.315
-0.31
-0.32
-0.3
-0.305
-0.275
-0.29
-0.27
-0.285
-0.275
-0.3
-0.3
-0.32
-0.305
-0.34
-0.335
-0.36
-0.345
-0.365
-0.35
-0.375
-0.355
-0.375
-0.365
-0.38
-0.35
-0.31
-0.21
-0.235
-0.195
-0.105
-0.1
-0.255
-0.3
-0.33
-0.37
-0.435
-0.42
-0.445
-0.43
-0.445
-0.46
-0.205
1.05
2.725
2.7
0.52
-0.7
-0.56
-0.475
-0.37
-0.345
-0.355
-0.32
-0.325
-0.29
-0.285
-0.235
-0.23
-0.18
-0.155
-0.1
-0.065
0.01
0.07
0.18
0.265
0.4
0.53
0.675
0.775
0.88
0.9
0.87
0.7
0.475
0.225
0.045
-0.1
-0.18
-0.24
-0.27
-0.295
-0.3
-0.325
-0.33
-0.345
-0.345
-0.36
-0.345
-0.35
-0.335
-0.34
-0.33
-0.335
-0.335
-0.345
-0.34
-0.355
-0.365
-0.38
-0.385
-0.395
-0.4
-0.415
-0.415
-0.43
-0.425
-0.43
-0.425
-0.43
-0.435
-0.44
-0.435
-0.44
-0.425
-0.36
-0.27
-0.285
-0.255
-0.15
-0.165
-0.305
-0.365
-0.375
-0.44
-0.475
-0.48
-0.485
-0.48
-0.48
-0.505
-0.325
0.69
2.32
2.64
0.645
-0.75
-0.61
-0.535
-0.4
-0.395
-0.39
-0.375
-0.36
-0.35
-0.325
-0.29
-0.26
-0.23
-0.19
-0.15
-0.095
-0.035
0.04
0.11
0.23
0.335
0.475
0.595
0.71
0.79
0.85
0.835
0.725
0.51
0.28
0.065
-0.08
-0.18
-0.23
-0.275
-0.29
-0.31
-0.315
-0.325
-0.33
-0.335
-0.33
-0.33
-0.32
-0.315
-0.31
-0.315
-0.315
-0.325
-0.325
-0.345
-0.35
-0.365
-0.365
-0.38
-0.375
-0.38
-0.39
-0.39
-0.4
-0.4
-0.395
-0.405
-0.41
-0.4
-0.4
-0.41
-0.4
-0.415
-0.41
-0.415
-0.41
-0.415
-0.41
-0.36
-0.27
-0.27
-0.25
-0.15
-0.125
-0.275
-0.34
-0.36
-0.4
-0.45
-0.455
-0.465
-0.455
-0.46
-0.47
-0.39
0.365
1.885
2.665
1.025
-0.57
-0.61
-0.52
-0.4
-0.355
-0.355
-0.34
-0.335
-0.31
-0.295
-0.265
-0.255
-0.215
-0.19
-0.14
-0.1
-0.03
0.015
0.105
0.19
0.3
0.41
0.535
0.635
0.73
0.785
0.8
0.72
0.57
0.345
0.15
-0.02
-0.125
-0.205
-0.25
-0.275
-0.29
-0.305
-0.31
-0.305
-0.305
-0.31
-0.295
-0.295
-0.285
-0.285
-0.275
-0.275
-0.265
-0.29
-0.295
-0.305
-0.315
-0.325
-0.315
-0.325
-0.33
-0.34
-0.33
-0.345
-0.34
-0.34
-0.325
-0.345
-0.34
-0.345
-0.33
-0.345
-0.34
-0.33
-0.335
-0.345
-0.335
-0.335
-0.33
-0.335
-0.32
-0.275
-0.185
-0.2
-0.175
-0.07
-0.04
-0.185
-0.265
-0.285
-0.335
-0.37
-0.35
-0.355
-0.37
-0.375
-0.37
-0.275
0.475
1.915
2.615
1.155
-0.31
-0.495
-0.495
-0.36
-0.29
-0.27
-0.26
-0.275
-0.235
-0.215
-0.18
-0.15
-0.135
-0.115
-0.06
-0.025
0.025
0.08
0.17
0.25
0.355
0.45
0.57
0.685
0.79
0.85
0.85
0.785
0.635
0.42
0.245
0.08
-0.05
-0.115
-0.145
-0.185
-0.195
-0.205
-0.21
-0.195
-0.18
-0.17
-0.165
-0.175
-0.18
-0.165
-0.155
-0.165
-0.17
-0.19
-0.195
-0.21
-0.215
-0.225
-0.215
-0.225
-0.22
-0.225
-0.245
-0.245
-0.235
-0.24
-0.23
-0.25
-0.255
-0.24
-0.245
-0.24
-0.25
-0.255
-0.25
-0.255
-0.25
-0.25
-0.245
-0.21
-0.135
-0.13
-0.135
-0.02
0.035
-0.08
-0.2
-0.23
-0.265
-0.305
-0.305
-0.315
-0.32
-0.325
-0.335
-0.325
0.225
1.645
2.765
1.68
0.05
-0.41
-0.475
-0.375
-0.28
-0.26
-0.255
-0.245
-0.225
-0.215
-0.195
-0.165
-0.145
-0.105
-0.065
-0.03
0.015
0.08
0.145
0.23
0.33
0.445
0.56
0.665
0.75
0.805
0.815
0.765
0.62
0.43
0.225
0.07
-0.065
-0.15
-0.205
-0.23
-0.255
-0.255
-0.255
-0.255
-0.255
-0.24
-0.23
-0.215
-0.22
-0.22
-0.23
-0.235
-0.24
-0.26
-0.27
-0.285
-0.295
-0.305
-0.32
-0.315
-0.325
-0.33
-0.335
-0.345
-0.35
-0.34
-0.355
-0.35
-0.355
-0.355
-0.355
-0.365
-0.37
-0.365
-0.37
-0.375
-0.375
-0.37
-0.365
-0.365
-0.375
-0.37
-0.32
-0.24
-0.24
-0.235
-0.125
-0.1
-0.24
-0.32
-0.315
-0.365
-0.415
-0.425
-0.435
-0.44
-0.435
-0.45
-0.39
0.28
1.81
2.89
1.445
-0.38
-0.615
-0.525
-0.425
-0.36
-0.37
-0.35
-0.34
-0.325
-0.3
-0.265
-0.24
-0.215
-0.18
-0.14
-0.08
-0.035
0.025
0.095
0.18
0.29
0.4
0.515
0.625
0.74
0.795
0.825
0.785
0.655
0.455
0.225
0.04
-0.1
-0.195
-0.255
-0.285
-0.31
-0.315
-0.325
-0.325
-0.325
-0.325
-0.315
-0.295
-0.295
-0.285
-0.275
-0.28
-0.285
-0.29
-0.3
-0.305
-0.32
-0.33
-0.34
-0.35
-0.345
-0.355
-0.36
-0.365
-0.37
-0.375
-0.375
-0.375
-0.375
-0.37
-0.375
-0.37
-0.375
-0.375
-0.365
-0.365
-0.37
-0.37
-0.37
-0.375
-0.37
-0.365
-0.37
-0.365
-0.34
-0.265
-0.215
-0.235
-0.15
-0.065
-0.17
-0.28
-0.295
-0.33
-0.385
-0.395
-0.4
-0.4
-0.395
-0.4
-0.435
-0.08
1.18
2.605
2.07
0.165
-0.6
-0.485
-0.425
-0.315
-0.315
-0.305
-0.295
-0.275
-0.265
-0.24
-0.215
-0.185
-0.15
-0.11
-0.065
-0.015
0.04
0.11
0.195
0.29
0.4
0.505
0.615
0.72
0.79
0.84
0.835
0.745
0.575
0.37
0.175
0.015
-0.085
-0.155
-0.21
-0.24
-0.25
-0.255
-0.25
-0.24
-0.24
-0.23
-0.23
-0.215
-0.215
-0.21
-0.21
-0.215
-0.225
-0.225
-0.24
-0.26
-0.265
-0.275
-0.29
-0.29
-0.305
-0.3
-0.3
-0.31
-0.315
-0.305
-0.32
-0.315
-0.32
-0.31
-0.315
-0.315
-0.31
-0.315
-0.31
-0.315
-0.315
-0.315
-0.305
-0.305
-0.31
-0.305
-0.31
-0.305
-0.285
-0.21
-0.155
-0.165
-0.1
-0.005
-0.085
-0.195
-0.23
-0.265
-0.315
-0.34
-0.335
-0.345
-0.345
-0.35
-0.39
-0.14
0.975
2.405
2.195
0.4
-0.51
-0.43
-0.385
-0.265
-0.255
-0.255
-0.24
-0.235
-0.21
-0.19
-0.165
-0.135
-0.11
-0.065
-0.025
0.025
0.08
0.14
0.215
0.305
0.405
0.51
0.615
0.715
0.795
0.835
0.825
0.76
0.61
0.415
0.225
0.08
-0.05
-0.125
-0.17
-0.2
-0.205
-0.215
-0.205
-0.2
-0.195
-0.195
-0.19
-0.185
-0.185
-0.18
-0.185
-0.195
-0.2
-0.21
-0.23
-0.24
-0.24
-0.26
-0.265
-0.275
-0.28
-0.29
-0.285
-0.29
-0.285
-0.295
-0.295
-0.3
-0.29
-0.305
-0.3
-0.3
-0.295
-0.3
-0.3
-0.305
-0.3
-0.31
-0.3
-0.305
-0.305
-0.305
-0.3
-0.295
-0.225
-0.16
-0.185
-0.125
-0.01
-0.065
-0.185
-0.24
-0.275
-0.33
-0.345
-0.35
-0.355
-0.35
-0.355
-0.39
-0.215
0.755
2.185
2.3
0.58
-0.515
-0.455
-0.415
-0.29
-0.275
-0.28
-0.265
-0.25
-0.23
-0.215
-0.195
-0.165
-0.13
-0.085
-0.04
0.005
0.055
0.115
0.19
0.285
0.385
0.48
0.58
0.69
0.77
0.815
0.8
0.755
0.63
0.455
0.26
0.1
-0.03
-0.105
-0.15
-0.185
-0.185
-0.19
-0.195
-0.18
-0.185
-0.18
-0.175
-0.165
-0.17
-0.175
-0.18
-0.17
-0.175
-0.2
-0.21
-0.225
-0.225
-0.225
-0.24
-0.24
-0.235
-0.26
-0.25
-0.24
-0.25
-0.255
-0.255
-0.265
-0.25
-0.255
-0.26
-0.265
-0.255
-0.265
-0.26
-0.26
-0.255
-0.26
-0.255
-0.25
-0.22
-0.145
-0.13
-0.15
-0.03
0.045
-0.065
-0.19
-0.21
-0.27
-0.295
-0.305
-0.31
-0.315
-0.31
-0.325
-0.305
0.115
1.315
2.43
1.695
0.24
-0.335
-0.47
-0.395
-0.27
-0.245
-0.255
-0.23
-0.225
-0.2
-0.19
-0.155
-0.135
-0.1
-0.075
-0.03
0.005
0.07
0.12
0.205
0.29
0.39
0.485
0.585
0.66
0.725
0.73
0.705
0.605
0.46
0.275
0.11
-0.03
-0.11
-0.17
-0.195
-0.21
-0.21
-0.225
-0.22
-0.22
-0.2
-0.205
-0.195
-0.21
-0.205
-0.23
-0.225
-0.235
-0.25
-0.27
-0.27
-0.29
-0.295
-0.305
-0.305
-0.315
-0.31
-0.335
-0.33
-0.345
-0.335
-0.345
-0.335
-0.345
-0.34
-0.35
-0.335
-0.355
-0.345
-0.35
-0.345
-0.355
-0.34
-0.345
-0.335
-0.32
-0.23
-0.2
-0.21
-0.145
-0.035
-0.135
-0.24
-0.28
-0.305
-0.37
-0.38
-0.39
-0.385
-0.4
-0.39
-0.44
-0.09
1.145
2.555
2.02
0.2
-0.56
-0.465
-0.415
-0.31
-0.32
-0.305
-0.305
-0.28
-0.27
-0.225
-0.215
-0.17
-0.16
-0.11
-0.075
-0.02
0.03
0.105
0.175
0.28
0.37
0.49
0.585
0.69
0.75
0.795
0.775
0.71
0.55
0.36
0.145
0.01
-0.12
-0.175
-0.24
-0.255
-0.275
-0.265
-0.27
-0.255
-0.265
-0.25
-0.25
-0.235
-0.245
-0.23
-0.24
-0.235
-0.26
-0.255
-0.275
-0.285
-0.305
-0.3
-0.315
-0.31
-0.33
-0.325
-0.335
-0.325
-0.345
-0.325
-0.34
-0.335
-0.34
-0.325
-0.335
-0.325
-0.335
-0.335
-0.35
-0.335
-0.355
-0.345
-0.35
-0.34
-0.345
-0.275
-0.215
-0.21
-0.195
-0.075
-0.08
-0.205
-0.275
-0.285
-0.355
-0.365
-0.375
-0.375
-0.385
-0.375
-0.4
-0.3
0.415
1.86
2.495
0.965
-0.465
-0.495
-0.47
-0.34
-0.305
-0.295
-0.3
-0.275
-0.275
-0.24
-0.225
-0.19
-0.17
-0.13
-0.095
-0.035
-0.005
0.08
0.14
0.24
0.315
0.435
0.535
0.655
0.725
0.78
0.775
0.735
0.625
0.465
0.26
0.105
-0.045
-0.12
-0.2
-0.225
-0.255
-0.24
-0.25
-0.245
-0.255
-0.235
-0.24
-0.23
-0.24
-0.22
-0.235
-0.225
-0.255
-0.25
-0.28
-0.27
-0.295
-0.295
-0.32
-0.315
-0.33
-0.315
-0.335
-0.325
-0.345
-0.335
-0.35
-0.33
-0.355
-0.335
-0.36
-0.345
-0.355
-0.345
-0.355
-0.345
-0.355
-0.345
-0.36
-0.325
-0.265
-0.2
-0.23
-0.145
-0.065
-0.115
-0.25
-0.28
-0.33
-0.37
-0.4
-0.395
-0.41
-0.395
-0.4
-0.425
-0.2
0.84
2.19
2.02
0.3
-0.55
-0.49
-0.435
-0.335
-0.315
-0.32
-0.305
-0.295
-0.27
-0.26
-0.23
-0.205
-0.165
-0.135
-0.095
-0.05
0.005
0.065
0.145
0.23
0.325
0.42
0.53
0.625
0.695
0.725
0.725
0.65
0.515
0.325
0.145
-0.01
-0.11
-0.2
-0.235
-0.265
-0.27
-0.275
-0.27
-0.26
-0.265
-0.265
-0.255
-0.25
-0.25
-0.25
-0.265
-0.265
-0.275
-0.29
-0.305
-0.315
-0.33
-0.34
-0.35
-0.35
-0.355
-0.355
-0.365
-0.365
-0.355
-0.36
-0.365
-0.36
-0.355
-0.355
-0.355
-0.365
-0.37
-0.365
-0.365
-0.365
-0.37
-0.29
-0.23
-0.245
-0.21
-0.1
-0.115
-0.25
-0.32
-0.34
-0.405
-0.425
-0.44
-0.445
-0.45
-0.435
-0.465
-0.325
0.515
1.9
2.185
0.56
-0.585
-0.535
-0.5
-0.37
-0.345
-0.335
-0.335
-0.315
-0.305
-0.28
-0.26
-0.225
-0.205
-0.15
-0.125
-0.075
-0.035
0.045
0.11
0.21
0.295
0.405
0.505
0.605
0.67
0.715
0.705
0.655
0.525
0.355
0.15
-0.005
-0.13
-0.195
-0.255
-0.28
-0.295
-0.285
-0.295
-0.29
-0.295
-0.28
-0.28
-0.27
-0.275
-0.27
-0.295
-0.285
-0.295
-0.305
-0.325
-0.325
-0.345
-0.36
-0.375
-0.365
-0.385
-0.375
-0.395
-0.39
-0.41
-0.4
-0.415
-0.4
-0.415
-0.405
-0.4
-0.405
-0.42
-0.4
-0.4
-0.38
-0.34
-0.26
-0.275
-0.245
-0.135
-0.105
-0.24
-0.325
-0.35
-0.4
-0.415
-0.41
-0.43
-0.425
-0.425
-0.43
-0.295
0.47
1.775
2.295
0.88
-0.37
-0.53
-0.555
-0.415
-0.345
-0.35
-0.345
-0.34
-0.32
-0.31
-0.27
-0.245
-0.21
-0.205
-0.16
-0.115
-0.055
0.005
0.085
0.165
0.275
0.375
0.49
0.575
0.67
0.72
0.73
0.66
0.545
0.355
0.175
-0.015
-0.125
-0.2
-0.235
-0.28
-0.285
-0.275
-0.27
-0.285
-0.27
-0.275
-0.26
-0.27
-0.27
-0.285
-0.275
-0.295
-0.3
-0.31
-0.31
-0.335
-0.345
-0.365
-0.365
-0.375
-0.37
-0.385
-0.375
-0.39
-0.39
-0.385
-0.375
-0.39
-0.395
-0.395
-0.395
-0.385
-0.315
-0.265
-0.265
-0.2
-0.095
-0.165
-0.28
-0.335
-0.365
-0.415
-0.425
-0.445
-0.445
-0.45
-0.44
-0.45
-0.15
0.9
2.215
2.075
0.53
-0.465
-0.585
-0.565
-0.41
-0.365
-0.355
-0.35
-0.33
-0.315
-0.295
-0.255
-0.2
-0.165
-0.125
-0.095
-0.045
0.025
0.085
0.17
0.27
0.39
0.505
0.615
0.73
0.79
0.845
0.805
0.69
0.52
0.31
0.125
-0.035
-0.135
-0.175
-0.235
-0.27
-0.26
-0.255
-0.245
-0.25
-0.24
-0.24
-0.23
-0.24
-0.24
-0.25
-0.26
-0.265
-0.265
-0.275
-0.325
-0.335
-0.335
-0.35
-0.33
-0.34
-0.345
-0.34
-0.35
-0.34
-0.35
-0.35
-0.33
-0.345
-0.35
-0.3
-0.22
-0.21
-0.205
-0.12
-0.1
-0.23
-0.31
-0.33
-0.385
-0.415
-0.41
-0.425
-0.425
-0.425
-0.455
-0.32
0.575
2.145
2.805
1.13
-0.455
-0.585
-0.56
-0.42
-0.355
-0.355
-0.345
-0.325
-0.305
-0.29
-0.265
-0.235
-0.195
-0.165
-0.135
-0.075
-0.02
0.045
0.13
0.23
0.345
0.47
0.6
0.72
0.805
0.855
0.835
0.75
0.575
0.345
0.125
-0.045
-0.165
-0.23
-0.27
-0.31
-0.33
-0.345
-0.34
-0.345
-0.35
-0.345
-0.335
-0.335
-0.33
-0.325
-0.315
-0.33
-0.33
-0.35
-0.355
-0.36
-0.38
-0.385
-0.395
-0.41
-0.42
-0.43
-0.425
-0.425
-0.43
-0.44
-0.44
-0.4
-0.315
-0.29
-0.325
-0.23
-0.17
-0.29
-0.385
-0.395
-0.445
-0.515
-0.52
-0.525
-0.53
-0.525
-0.54
-0.515
0.13
1.68
2.805
1.405
-0.415
-0.675
-0.59
-0.49
-0.43
-0.44
-0.435
-0.43
-0.41
-0.39
-0.37
-0.335
-0.305
-0.265
-0.225
-0.17
-0.12
-0.055
0.025
0.125
0.245
0.365
0.49
0.615
0.715
0.785
0.795
0.73
0.555
0.325
0.095
-0.1
-0.24
-0.31
-0.365
-0.39
-0.405
-0.425
-0.435
-0.435
-0.43
-0.435
-0.435
-0.425
-0.415
-0.405
-0.405
-0.395
-0.405
-0.4
-0.41
-0.42
-0.43
-0.435
-0.445
-0.46
-0.465
-0.465
-0.475
-0.475
-0.475
-0.475
-0.47
-0.415
-0.325
-0.325
-0.32
-0.21
-0.2
-0.325
-0.41
-0.415
-0.485
-0.525
-0.52
-0.525
-0.535
-0.525
-0.545
-0.46
0.265
1.78
2.555
0.945
-0.625
-0.68
-0.605
-0.48
-0.44
-0.445
-0.43
-0.415
-0.4
-0.38
-0.36
-0.325
-0.295
-0.255
-0.22
-0.175
-0.115
-0.04
0.04
0.145
0.265
0.385
0.51
0.63
0.725
0.79
0.785
0.69
0.5
0.255
0.04
-0.125
-0.24
-0.3
-0.335
-0.36
-0.375
-0.39
-0.395
-0.39
-0.39
-0.39
-0.39
-0.385
-0.37
-0.355
-0.355
-0.345
-0.345
-0.345
-0.35
-0.35
-0.355
-0.375
-0.365
-0.38
-0.395
-0.395
-0.4
-0.395
-0.395
-0.4
-0.375
-0.3
-0.255
-0.27
-0.21
-0.095
-0.155
-0.29
-0.34
-0.375
-0.42
-0.44
-0.445
-0.45
-0.445
-0.445
-0.46
-0.225
0.75
2.135
2.225
0.55
-0.575
-0.59
-0.56
-0.415
-0.36
-0.36
-0.365
-0.345
-0.325
-0.31
-0.265
-0.225
-0.205
-0.165
-0.12
-0.09
-0.03
0.06
0.14
0.26
0.4
0.525
0.65
0.775
0.89
0.925
0.86
0.695
0.485
0.255
0.04
-0.08
-0.195
-0.255
-0.275
-0.295
-0.31
-0.305
-0.31
-0.325
-0.325
-0.31
-0.315
-0.305
-0.31
-0.325
-0.32
-0.3
-0.305
-0.31
-0.32
-0.34
-0.34
-0.33
-0.34
-0.355
-0.355
-0.37
-0.365
-0.38
-0.385
-0.34
-0.27
-0.215
-0.235
-0.185
-0.07
-0.115
-0.255
-0.335
-0.355
-0.38
-0.39
-0.41
-0.43
-0.42
-0.41
-0.455
-0.22
0.89
2.445
2.585
0.72
-0.63
-0.63
-0.535
-0.375
-0.305
-0.225
-0.22
-0.225
-0.23
-0.25
-0.215
-0.15
-0.105
-0.075
-0.035
0.015
0.07
0.145
0.24
0.36
0.505
0.655
0.795
0.925
1.015
1.065
0.99
0.815
0.575
0.315
0.1
-0.035
-0.125
-0.185
-0.23
-0.255
-0.255
-0.255
-0.265
-0.275
-0.29
-0.29
-0.27
-0.25
-0.275
-0.285
-0.265
-0.27
-0.275
-0.275
-0.275
-0.28
-0.29
-0.3
-0.315
-0.325
-0.335
-0.34
-0.34
-0.345
-0.345
-0.325
-0.245
-0.205
-0.225
-0.155
-0.055
-0.11
-0.24
-0.3
-0.325
-0.385
-0.4
-0.41
-0.415
-0.415
-0.415
-0.455
-0.215
0.985
2.69
2.82
0.785
-0.58
-0.535
-0.49
-0.345
-0.325
-0.32
-0.31
-0.295
-0.265
-0.24
-0.225
-0.185
-0.155
-0.11
-0.075
-0.015
0.035
0.11
0.205
0.325
0.46
0.605
0.74
0.885
0.975
1.03
0.98
0.825
0.585
0.345
0.115
-0.035
-0.145
-0.19
-0.24
-0.235
-0.25
-0.27
-0.295
-0.29
-0.295
-0.295
-0.295
-0.27
-0.275
-0.265
-0.255
-0.235
-0.245
-0.24
-0.255
-0.255
-0.275
-0.27
-0.285
-0.29
-0.31
-0.31
-0.315
-0.315
-0.325
-0.315
-0.33
-0.315
-0.26
-0.17
-0.185
-0.15
-0.055
-0.065
-0.21
-0.255
-0.275
-0.335
-0.39
-0.385
-0.4
-0.4
-0.41
-0.4
-0.3
0.535
2.165
3.03
1.285
-0.465
-0.535
-0.445
-0.335
-0.295
-0.31
-0.29
-0.29
-0.26
-0.25
-0.215
-0.195
-0.15
-0.125
-0.075
-0.055
0.03
0.08
0.175
0.27
0.405
0.53
0.675
0.795
0.91
0.97
0.99
0.87
0.67
0.4
0.185
-0.015
-0.125
-0.2
-0.23
-0.265
-0.265
-0.29
-0.295
-0.31
-0.305
-0.32
-0.315
-0.325
-0.3
-0.305
-0.29
-0.295
-0.275
-0.285
-0.285
-0.3
-0.295
-0.32
-0.315
-0.33
-0.325
-0.345
-0.345
-0.365
-0.355
-0.37
-0.355
-0.38
-0.37
-0.375
-0.305
-0.23
-0.23
-0.23
-0.105
-0.085
-0.215
-0.305
-0.295
-0.37
-0.41
-0.425
-0.425
-0.435
-0.42
-0.43
-0.43
0.055
1.485
2.735
1.685
-0.18
-0.625
-0.52
-0.42
-0.355
-0.355
-0.35
-0.32
-0.31
-0.28
-0.26
-0.225
-0.205
-0.16
-0.13
-0.065
-0.02
0.05
0.11
0.225
0.32
0.465
0.6
0.725
0.84
0.94
0.955
0.91
0.735
0.525
0.28
0.105
-0.04
-0.115
-0.17
-0.185
-0.21
-0.22
-0.24
-0.24
-0.255
-0.245
-0.27
-0.26
-0.25
-0.21
-0.22
-0.2
-0.21
-0.205
-0.205
-0.2
-0.215
-0.215
-0.235
-0.23
-0.255
-0.24
-0.255
-0.235
-0.265
-0.26
-0.275
-0.26
-0.27
-0.255
-0.23
-0.165
-0.14
-0.14
-0.035
0.045
-0.095
-0.175
-0.225
-0.255
-0.3
-0.29
-0.315
-0.31
-0.345
-0.315
-0.35
-0.075
1.05
2.495
2.34
0.595
-0.475
-0.485
-0.46
-0.285
-0.275
-0.26
-0.255
-0.23
-0.215
-0.17
-0.175
-0.135
-0.115
-0.065
-0.045
0.04
0.085
0.145
0.215
0.365
0.465
0.615
0.755
0.89
0.965
1.04
0.96
0.825
0.605
0.395
0.165
0.005
-0.08
-0.085
-0.145
-0.185
-0.195
-0.19
-0.195
-0.16
-0.215
-0.185
-0.205
-0.2
-0.185
-0.175
-0.195
-0.19
-0.2
-0.175
-0.215
-0.215
-0.24
-0.215
-0.24
-0.24
-0.27
-0.24
-0.275
-0.285
-0.27
-0.24
-0.285
-0.24
-0.185
-0.08
-0.035
0.03
0.085
0.045
-0.125
-0.205
-0.24
-0.29
-0.345
-0.34
-0.36
-0.35
-0.375
-0.39
-0.325
0.465
2.085
3.095
1.5
-0.33
-0.585
-0.525
-0.38
-0.305
-0.305
-0.285
-0.28
-0.25
-0.23
-0.205
-0.19
-0.15
-0.115
-0.07
-0.035
0.025
0.095
0.18
0.275
0.4
0.53
0.675
0.8
0.895
0.95
0.96
0.855
0.655
0.41
0.19
0.01
-0.11
-0.175
-0.215
-0.245
-0.265
-0.28
-0.29
-0.3
-0.305
-0.305
-0.295
-0.285
-0.275
-0.265
-0.275
-0.27
-0.27
-0.28
-0.285
-0.295
-0.315
-0.315
-0.325
-0.33
-0.345
-0.35
-0.365
-0.36
-0.365
-0.365
-0.375
-0.37
-0.375
-0.37
-0.33
-0.25
-0.23
-0.24
-0.155
-0.08
-0.205
-0.295
-0.305
-0.345
-0.42
-0.435
-0.43
-0.45
-0.45
-0.455
-0.47
0.005
1.47
2.965
2.13
0.02
-0.69
-0.515
-0.45
-0.355
-0.365
-0.34
-0.335
-0.315
-0.295
-0.27
-0.25
-0.21
-0.18
-0.125
-0.09
-0.03
0.035
0.12
0.2
0.325
0.45
0.585
0.72
0.85
0.93
0.98
0.93
0.79
0.55
0.295
0.08
-0.075
-0.18
-0.235
-0.275
-0.285
-0.305
-0.315
-0.325
-0.325
-0.33
-0.33
-0.335
-0.33
-0.325
-0.315
-0.32
-0.315
-0.325
-0.32
-0.33
-0.335
-0.36
-0.355
-0.37
-0.37
-0.385
-0.37
-0.385
-0.39
-0.4
-0.395
-0.4
-0.395
-0.405
-0.4
-0.41
-0.375
-0.31
-0.24
-0.265
-0.2
-0.105
-0.165
-0.295
-0.32
-0.35
-0.415
-0.45
-0.445
-0.455
-0.455
-0.46
-0.48
-0.29
0.75
2.34
2.6
0.58
-0.72
-0.57
-0.49
-0.375
-0.365
-0.37
-0.35
-0.35
-0.325
-0.305
-0.275
-0.24
-0.205
-0.18
-0.125
-0.08
-0.03
0.045
0.135
0.23
0.35
0.475
0.61
0.725
0.835
0.885
0.895
0.79
0.6
0.355
0.135
-0.045
-0.16
-0.23
-0.265
-0.295
-0.3
-0.32
-0.32
-0.335
-0.335
-0.345
-0.335
-0.345
-0.33
-0.33
-0.32
-0.32
-0.325
-0.33
-0.335
-0.345
-0.35
-0.365
-0.37
-0.385
-0.385
-0.39
-0.395
-0.4
-0.4
-0.41
-0.4
-0.4
-0.4
-0.41
-0.41
-0.405
-0.4
-0.395
-0.32
-0.255
-0.255
-0.23
-0.125
-0.15
-0.275
-0.335
-0.345
-0.41
-0.44
-0.45
-0.465
-0.47
-0.465
-0.49
-0.41
0.33
1.835
2.57
0.94
-0.615
-0.615
-0.53
-0.4
-0.365
-0.36
-0.345
-0.34
-0.33
-0.31
-0.295
-0.25
-0.215
-0.185
-0.15
-0.095
-0.045
0.015
0.095
0.18
0.3
0.425
0.54
0.66
0.77
0.85
0.87
0.815
0.65
0.435
0.24
0.07
-0.08
-0.15
-0.195
-0.23
-0.235
-0.25
-0.265
-0.27
-0.27
-0.265
-0.27
-0.275
-0.265
-0.24
-0.25
-0.255
-0.255
-0.26
-0.25
-0.265
-0.285
-0.28
-0.285
-0.285
-0.305
-0.31
-0.305
-0.31
-0.31
-0.32
-0.31
-0.305
-0.315
-0.325
-0.315
-0.29
-0.225
-0.185
-0.21
-0.13
-0.005
-0.075
-0.215
-0.255
-0.295
-0.345
-0.365
-0.37
-0.37
-0.385
-0.38
-0.375
-0.2
0.685
2.075
2.44
0.87
-0.42
-0.525
-0.51
-0.365
-0.305
-0.27
-0.28
-0.275
-0.27
-0.235
-0.2
-0.165
-0.145
-0.11
-0.075
-0.03
0.025
0.09
0.165
0.25
0.37
0.51
0.635
0.74
0.825
0.86
0.855
0.765
0.605
0.365
0.16
0.01
-0.105
-0.145
-0.2
-0.225
-0.225
-0.24
-0.24
-0.215
-0.215
-0.215
-0.215
-0.21
-0.225
-0.24
-0.24
-0.23
-0.27
-0.275
-0.275
-0.275
-0.295
-0.32
-0.305
-0.305
-0.325
-0.33
-0.325
-0.335
-0.355
-0.345
-0.32
-0.33
-0.37
-0.365
-0.315
-0.265
-0.22
-0.235
-0.205
-0.07
-0.075
-0.22
-0.31
-0.325
-0.355
-0.39
-0.4
-0.405
-0.4
-0.415
-0.435
-0.33
0.515
2.06
2.765
1.135
-0.47
-0.615
-0.575
-0.425
-0.365
-0.355
-0.35
-0.335
-0.315
-0.295
-0.265
-0.24
-0.215
-0.175
-0.135
-0.105
-0.055
0.015
0.085
0.185
0.295
0.41
0.535
0.655
0.735
0.785
0.78
0.705
0.525
0.315
0.105
-0.05
-0.17
-0.245
-0.285
-0.32
-0.325
-0.34
-0.345
-0.345
-0.335
-0.33
-0.315
-0.31
-0.31
-0.31
-0.31
-0.325
-0.335
-0.345
-0.355
-0.37
-0.385
-0.395
-0.4
-0.41
-0.41
-0.415
-0.425
-0.42
-0.43
-0.43
-0.435
-0.44
-0.435
-0.445
-0.445
-0.445
-0.445
-0.405
-0.31
-0.3
-0.315
-0.21
-0.15
-0.275
-0.37
-0.38
-0.425
-0.485
-0.495
-0.495
-0.505
-0.51
-0.515
-0.525
-0.03
1.43
2.83
1.85
-0.13
-0.69
-0.575
-0.505
-0.425
-0.44
-0.425
-0.42
-0.4
-0.385
-0.36
-0.33
-0.3
-0.265
-0.22
-0.175
-0.115
-0.055
0.02
0.105
0.215
0.33
0.465
0.585
0.7
0.775
0.81
0.78
0.665
0.455
0.22
0.01
-0.145
-0.255
-0.32
-0.36
-0.38
-0.405
-0.41
-0.415
-0.4
-0.4
-0.405
-0.4
-0.39
-0.385
-0.37
-0.37
-0.37
-0.385
-0.39
-0.395
-0.41
-0.42
-0.425
-0.445
-0.445
-0.455
-0.455
-0.465
-0.47
-0.475
-0.475
-0.48
-0.48
-0.48
-0.475
-0.475
-0.465
-0.465
-0.41
-0.33
-0.325
-0.335
-0.23
-0.185
-0.315
-0.395
-0.4
-0.455
-0.505
-0.515
-0.52
-0.53
-0.525
-0.535
-0.545
-0.01
1.42
2.64
1.455
-0.39
-0.725
-0.59
-0.505
-0.43
-0.445
-0.43
-0.42
-0.4
-0.395
-0.365
-0.335
-0.305
-0.265
-0.22
-0.18
-0.13
-0.065
0.025
0.105
0.21
0.315
0.445
0.565
0.665
0.745
0.775
0.745
0.625
0.42
0.19
-0.015
-0.15
-0.25
-0.31
-0.34
-0.37
-0.39
-0.385
-0.395
-0.395
-0.395
-0.39
-0.38
-0.375
-0.37
-0.365
-0.37
-0.36
-0.375
-0.38
-0.385
-0.4
-0.42
-0.425
-0.425
-0.43
-0.43
-0.44
-0.445
-0.445
-0.455
-0.45
-0.45
-0.455
-0.455
-0.45
-0.46
-0.455
-0.455
-0.46
-0.44
-0.37
-0.31
-0.32
-0.265
-0.165
-0.21
-0.335
-0.375
-0.405
-0.475
-0.49
-0.495
-0.505
-0.515
-0.51
-0.545
-0.425
0.42
1.92
2.355
0.605
-0.725
-0.635
-0.57
-0.445
-0.41
-0.415
-0.41
-0.405
-0.385
-0.355
-0.335
-0.3
-0.28
-0.235
-0.195
-0.16
-0.09
-0.025
0.035
0.135
0.24
0.36
0.475
0.585
0.675
0.745
0.75
0.695
0.56
0.345
0.135
-0.025
-0.14
-0.23
-0.28
-0.31
-0.33
-0.33
-0.335
-0.33
-0.335
-0.335
-0.33
-0.325
-0.325
-0.325
-0.32
-0.325
-0.325
-0.325
-0.335
-0.34
-0.36
-0.375
-0.365
-0.375
-0.385
-0.39
-0.37
-0.395
-0.39
-0.39
-0.385
-0.395
-0.395
-0.39
-0.39
-0.4
-0.385
-0.375
-0.295
-0.255
-0.275
-0.185
-0.08
-0.185
-0.295
-0.345
-0.38
-0.42
-0.425
-0.44
-0.44
-0.445
-0.45
-0.465
-0.165
0.855
2.165
2.04
0.465
-0.525
-0.6
-0.555
-0.415
-0.365
-0.35
-0.35
-0.335
-0.31
-0.28
-0.27
-0.225
-0.195
-0.155
-0.12
-0.07
-0.03
0.045
0.115
0.22
0.325
0.465
0.58
0.67
0.745
0.815
0.775
0.68
0.495
0.295
0.12
-0.01
-0.14
-0.195
-0.24
-0.235
-0.22
-0.215
-0.245
-0.235
-0.225
-0.215
-0.23
-0.21
-0.225
-0.215
-0.23
-0.25
-0.265
-0.265
-0.29
-0.29
-0.305
-0.295
-0.32
-0.315
-0.33
-0.325
-0.335
-0.335
-0.345
-0.35
-0.355
-0.355
-0.36
-0.35
-0.365
-0.35
-0.32
-0.235
-0.24
-0.225
-0.12
-0.08
-0.225
-0.31
-0.345
-0.38
-0.425
-0.425
-0.445
-0.435
-0.445
-0.445
-0.44
0.12
1.535
2.665
1.565
-0.055
-0.505
-0.56
-0.47
-0.38
-0.395
-0.38
-0.375
-0.345
-0.325
-0.295
-0.28
-0.235
-0.215
-0.17
-0.135
-0.075
-0.03
0.055
0.125
0.245
0.345
0.47
0.57
0.675
0.73
0.765
0.7
0.58
0.37
0.17
-0.02
-0.15
-0.255
-0.305
-0.345
-0.36
-0.38
-0.37
-0.385
-0.375
-0.37
-0.345
-0.345
-0.33
-0.33
-0.32
-0.325
-0.325
-0.35
-0.35
-0.385
-0.385
-0.405
-0.405
-0.415
-0.41
-0.43
-0.42
-0.435
-0.435
-0.445
-0.44
-0.45
-0.43
-0.445
-0.44
-0.45
-0.44
-0.45
-0.43
-0.4
-0.3
-0.305
-0.315
-0.225
-0.145
-0.28
-0.365
-0.385
-0.42
-0.495
-0.49
-0.505
-0.5
-0.52
-0.515
-0.555
-0.145
1.195
2.635
1.905
-0.055
-0.735
-0.57
-0.515
-0.425
-0.45
-0.42
-0.425
-0.4
-0.39
-0.355
-0.345
-0.305
-0.28
-0.22
-0.185
-0.115
-0.07
0.03
0.1
0.205
0.3
0.44
0.55
0.665
0.73
0.78
0.76
0.675
0.475
0.265
0.035
-0.13
-0.25
-0.305
-0.35
-0.365
-0.4
-0.4
-0.41
-0.395
-0.415
-0.405
-0.41
-0.385
-0.385
-0.365
-0.38
-0.375
-0.385
-0.385
-0.4
-0.405
-0.425
-0.42
-0.445
-0.43
-0.445
-0.44
-0.455
-0.445
-0.46
-0.455
-0.465
-0.46
-0.47
-0.46
-0.48
-0.46
-0.47
-0.46
-0.465
-0.43
-0.355
-0.305
-0.35
-0.245
-0.175
-0.265
-0.38
-0.385
-0.445
-0.49
-0.515
-0.51
-0.53
-0.52
-0.54
-0.555
-0.33
0.785
2.235
2.095
0.17
-0.755
-0.615
-0.55
-0.45
-0.44
-0.46
-0.43
-0.44
-0.405
-0.4
-0.355
-0.34
-0.285
-0.265
-0.205
-0.17
-0.105
-0.055
0.05
0.135
0.25
0.36
0.49
0.57
0.67
0.705
0.73
0.625
0.475
0.245
0.055
-0.13
-0.22
-0.315
-0.345
-0.39
-0.39
-0.42
-0.395
-0.405
-0.39
-0.405
-0.385
-0.39
-0.375
-0.395
-0.37
-0.385
-0.385
-0.4
-0.39
-0.415
-0.41
-0.425
-0.43
-0.44
-0.425
-0.445
-0.435
-0.45
-0.445
-0.465
-0.43
-0.445
-0.44
-0.445
-0.44
-0.455
-0.445
-0.465
-0.445
-0.425
-0.36
-0.32
-0.335
-0.26
-0.13
-0.22
-0.34
-0.38
-0.42
-0.47
-0.49
-0.49
-0.5
-0.505
-0.495
-0.505
-0.24
0.76
2.085
2.07
0.5
-0.56
-0.63
-0.6
-0.455
-0.415
-0.415
-0.42
-0.395
-0.355
-0.35
-0.325
-0.28
-0.255
-0.205
-0.18
-0.125
-0.06
-0.01
0.07
0.175
0.285
0.4
0.525
0.63
0.73
0.765
0.745
0.685
0.52
0.31
0.13
-0.035
-0.155
-0.22
-0.265
-0.29
-0.295
-0.295
-0.305
-0.295
-0.28
-0.285
-0.285
-0.28
-0.285
-0.295
-0.295
-0.305
-0.3
-0.32
-0.33
-0.34
-0.335
-0.345
-0.365
-0.385
-0.375
-0.38
-0.39
-0.4
-0.39
-0.395
-0.4
-0.415
-0.425
-0.435
-0.4
-0.365
-0.315
-0.32
-0.205
-0.13
-0.235
-0.335
-0.355
-0.415
-0.45
-0.455
-0.455
-0.47
-0.465
-0.485
-0.48
-0.05
1.27
2.59
1.92
0.15
-0.595
-0.605
-0.525
-0.415
-0.37
-0.38
-0.365
-0.34
-0.32
-0.295
-0.25
-0.225
-0.19
-0.16
-0.12
-0.075
-0.005
0.055
0.155
0.265
0.405
0.515
0.655
0.755
0.825
0.85
0.81
0.68
0.455
0.215
0.05
-0.105
-0.21
-0.27
-0.31
-0.335
-0.33
-0.335
-0.335
-0.36
-0.345
-0.355
-0.35
-0.355
-0.345
-0.345
-0.335
-0.355
-0.375
-0.385
-0.395
-0.415
-0.415
-0.44
-0.445
-0.465
-0.46
-0.465
-0.465
-0.485
-0.48
-0.495
-0.48
-0.455
-0.37
-0.355
-0.375
-0.31
-0.215
-0.32
-0.43
-0.47
-0.495
-0.56
-0.565
-0.585
-0.58
-0.595
-0.595
-0.63
-0.15
1.29
2.73
1.845
-0.115
-0.76
-0.685
-0.615
-0.515
-0.525
-0.515
-0.5
-0.475
-0.465
-0.44
-0.42
-0.385
-0.365
-0.315
-0.28
-0.21
-0.155
-0.075
0.02
0.145
0.255
0.41
0.535
0.655
0.725
0.76
0.705
0.555
0.315
0.08
-0.14
-0.285
-0.39
-0.45
-0.49
-0.51
-0.535
-0.545
-0.555
-0.555
-0.57
-0.55
-0.55
-0.535
-0.525
-0.5
-0.505
-0.5
-0.51
-0.515
-0.53
-0.545
-0.565
-0.575
-0.59
-0.58
-0.595
-0.6
-0.605
-0.615
-0.615
-0.61
-0.605
-0.605
-0.59
-0.505
-0.465
-0.49
-0.4
-0.325
-0.4
-0.52
-0.54
-0.56
-0.645
-0.655
-0.67
-0.67
-0.67
-0.675
-0.715
-0.36
0.975
2.49
1.95
-0.18
-0.985
-0.725
-0.66
-0.56
-0.58
-0.555
-0.545
-0.54
-0.515
-0.49
-0.46
-0.425
-0.39
-0.345
-0.305
-0.24
-0.175
-0.1
0.0
0.115
0.24
0.385
0.52
0.635
0.725
0.765
0.735
0.605
0.375
0.13
-0.08
-0.255
-0.37
-0.425
-0.46
-0.475
-0.48
-0.5
-0.505
-0.51
-0.515
-0.505
-0.505
-0.5
-0.485
-0.485
-0.475
-0.47
-0.47
-0.47
-0.485
-0.495
-0.505
-0.505
-0.52
-0.53
-0.535
-0.535
-0.54
-0.55
-0.55
-0.545
-0.55
-0.555
-0.55
-0.535
-0.47
-0.4
-0.4
-0.37
-0.265
-0.285
-0.41
-0.465
-0.48
-0.56
-0.585
-0.59
-0.605
-0.605
-0.605
-0.63
-0.54
0.24
1.755
2.415
0.665
-0.855
-0.75
-0.635
-0.525
-0.495
-0.49
-0.485
-0.47
-0.46
-0.44
-0.415
-0.385
-0.35
-0.305
-0.255
-0.215
-0.165
-0.095
-0.005
0.095
0.21
0.335
0.475
0.59
0.69
0.75
0.765
0.685
0.505
0.27
0.05
-0.125
-0.25
-0.325
-0.35
-0.385
-0.4
-0.4
-0.415
-0.415
-0.415
-0.42
-0.4
-0.405
-0.405
-0.385
-0.385
-0.375
-0.385
-0.38
-0.38
-0.395
-0.4
-0.39
-0.4
-0.415
-0.42
-0.425
-0.41
-0.42
-0.43
-0.425
-0.425
-0.42
-0.425
-0.41
-0.415
-0.385
-0.31
-0.29
-0.28
-0.17
-0.11
-0.235
-0.33
-0.34
-0.4
-0.44
-0.435
-0.435
-0.435
-0.435
-0.435
-0.4
0.05
1.295
2.47
1.62
-0.02
-0.56
-0.56
-0.465
-0.365
-0.35
-0.35
-0.325
-0.32
-0.305
-0.285
-0.26
-0.215
-0.19
-0.145
-0.08
-0.035
0.015
0.09
0.19
0.29
0.425
0.55
0.67
0.795
0.855
0.885
0.825
0.685
0.47
0.22
0.045
-0.065
-0.16
-0.21
-0.25
-0.245
-0.24
-0.24
-0.245
-0.235
-0.23
-0.24
-0.24
-0.235
-0.225
-0.205
-0.205
-0.2
-0.215
-0.225
-0.24
-0.27
-0.27
-0.28
-0.28
-0.275
-0.285
-0.295
-0.295
-0.285
-0.285
-0.28
-0.265
-0.195
-0.15
-0.155
-0.1
-0.01
-0.085
-0.205
-0.235
-0.275
-0.33
-0.355
-0.345
-0.365
-0.36
-0.345
-0.38
-0.115
1.055
2.57
2.455
0.55
-0.62
-0.55
-0.44
-0.285
-0.26
-0.235
-0.23
-0.215
-0.195
-0.175
-0.15
-0.1
-0.045
-0.025
0.005
0.055
0.13
0.195
0.285
0.4
0.53
0.685
0.8
0.915
1.0
1.025
0.975
0.82
0.585
0.345
0.145
0.005
-0.105
-0.165
-0.2
-0.22
-0.235
-0.24
-0.25
-0.24
-0.25
-0.24
-0.24
-0.23
-0.24
-0.235
-0.245
-0.245
-0.255
-0.265
-0.28
-0.29
-0.3
-0.315
-0.325
-0.335
-0.345
-0.36
-0.365
-0.355
-0.36
-0.375
-0.355
-0.28
-0.23
-0.24
-0.19
-0.09
-0.175
-0.295
-0.33
-0.37
-0.425
-0.435
-0.445
-0.45
-0.455
-0.45
-0.495
-0.15
1.21
2.82
2.375
0.24
-0.72
-0.55
-0.475
-0.365
-0.365
-0.355
-0.34
-0.325
-0.295
-0.27
-0.24
-0.215
-0.185
-0.14
-0.09
-0.035
0.035
0.125
0.225
0.34
0.46
0.61
0.755
0.88
0.955
0.99
0.95
0.805
0.57
0.31
0.095
-0.07
-0.175
-0.235
-0.275
-0.295
-0.32
-0.335
-0.35
-0.355
-0.35
-0.345
-0.335
-0.32
-0.31
-0.305
-0.29
-0.3
-0.305
-0.305
-0.325
-0.34
-0.355
-0.365
-0.375
-0.385
-0.375
-0.39
-0.4
-0.4
-0.4
-0.405
-0.405
-0.4
-0.375
-0.295
-0.25
-0.28
-0.205
-0.11
-0.195
-0.305
-0.325
-0.365
-0.43
-0.45
-0.45
-0.455
-0.45
-0.46
-0.505
-0.185
1.125
2.675
2.25
0.105
-0.775
-0.525
-0.45
-0.35
-0.355
-0.34
-0.325
-0.315
-0.295
-0.275
-0.255
-0.23
-0.19
-0.135
-0.08
-0.04
0.035
0.11
0.205
0.3
0.435
0.56
0.685
0.795
0.89
0.93
0.91
0.775
0.555
0.32
0.105
-0.065
-0.17
-0.23
-0.265
-0.28
-0.28
-0.285
-0.29
-0.3
-0.315
-0.315
-0.31
-0.305
-0.295
-0.29
-0.285
-0.29
-0.29
-0.29
-0.305
-0.31
-0.325
-0.335
-0.345
-0.355
-0.365
-0.37
-0.37
-0.37
-0.37
-0.375
-0.38
-0.375
-0.34
-0.26
-0.22
-0.24
-0.15
-0.06
-0.165
-0.28
-0.3
-0.35
-0.415
-0.41
-0.42
-0.42
-0.425
-0.425
-0.46
-0.15
1.05
2.435
1.875
-0.005
-0.68
-0.49
-0.43
-0.325
-0.325
-0.31
-0.315
-0.295
-0.275
-0.25
-0.24
-0.185
-0.155
-0.12
-0.08
-0.015
0.04
0.115
0.2
0.31
0.43
0.55
0.675
0.78
0.855
0.91
0.88
0.765
0.545
0.32
0.125
0.0
-0.105
-0.15
-0.18
-0.2
-0.23
-0.23
-0.24
-0.23
-0.23
-0.215
-0.24
-0.225
-0.22
-0.2
-0.19
-0.175
-0.21
-0.215
-0.225
-0.215
-0.225
-0.225
-0.235
-0.235
-0.255
-0.255
-0.265
-0.255
-0.255
-0.24
-0.205
-0.135
-0.14
-0.11
-0.02
0.02
-0.12
-0.2
-0.22
-0.255
-0.31
-0.295
-0.31
-0.325
-0.315
-0.315
-0.2
0.495
1.87
2.65
1.23
-0.265
-0.48
-0.475
-0.365
-0.26
-0.23
-0.225
-0.235
-0.22
-0.195
-0.14
-0.135
-0.09
-0.045
-0.005
0.035
0.095
0.15
0.255
0.33
0.45
0.575
0.73
0.84
0.955
0.99
0.99
0.885
0.71
0.45
0.275
0.125
0.02
-0.06
-0.08
-0.125
-0.135
-0.12
-0.1
-0.13
-0.105
-0.125
-0.11
-0.125
-0.11
-0.135
-0.12
-0.135
-0.135
-0.165
-0.16
-0.185
-0.195
-0.215
-0.205
-0.22
-0.215
-0.235
-0.23
-0.235
-0.2
-0.12
-0.08
-0.13
-0.025
0.04
-0.06
-0.175
-0.185
-0.24
-0.28
-0.295
-0.295
-0.31
-0.285
-0.325
-0.275
0.29
1.775
2.96
1.755
-0.08
-0.49
-0.435
-0.31
-0.235
-0.205
-0.215
-0.19
-0.185
-0.155
-0.145
-0.105
-0.09
-0.035
-0.01
0.055
0.1
0.175
0.245
0.345
0.44
0.585
0.705
0.84
0.93
1.005
1.005
0.935
0.74
0.52
0.285
0.135
0.005
-0.07
-0.125
-0.14
-0.18
-0.185
-0.2
-0.2
-0.22
-0.19
-0.195
-0.175
-0.19
-0.165
-0.17
-0.16
-0.185
-0.175
-0.21
-0.215
-0.235
-0.235
-0.25
-0.245
-0.275
-0.27
-0.285
-0.275
-0.265
-0.185
-0.13
-0.135
-0.1
0.01
-0.065
-0.19
-0.24
-0.25
-0.335
-0.345
-0.36
-0.35
-0.37
-0.365
-0.42
-0.105
1.15
2.705
2.325
0.315
-0.625
-0.475
-0.42
-0.295
-0.305
-0.285
-0.285
-0.255
-0.255
-0.215
-0.205
-0.16
-0.13
-0.075
-0.045
0.025
0.08
0.17
0.245
0.365
0.47
0.61
0.725
0.85
0.91
0.965
0.89
0.77
0.53
0.315
0.1
-0.035
-0.145
-0.17
-0.21
-0.22
-0.26
-0.265
-0.275
-0.26
-0.285
-0.265
-0.265
-0.24
-0.25
-0.22
-0.24
-0.23
-0.25
-0.24
-0.275
-0.265
-0.305
-0.29
-0.315
-0.305
-0.325
-0.315
-0.335
-0.275
-0.21
-0.185
-0.205
-0.09
-0.06
-0.17
-0.275
-0.27
-0.34
-0.38
-0.4
-0.385
-0.4
-0.385
-0.425
-0.35
0.345
1.885
2.735
1.11
-0.56
-0.585
-0.485
-0.355
-0.335
-0.33
-0.325
-0.305
-0.295
-0.27
-0.255
-0.22
-0.2
-0.145
-0.115
-0.055
-0.005
0.08
0.15
0.275
0.375
0.5
0.63
0.74
0.81
0.885
0.88
0.79
0.59
0.37
0.135
-0.035
-0.145
-0.205
-0.23
-0.245
-0.275
-0.27
-0.285
-0.27
-0.27
-0.275
-0.265
-0.255
-0.255
-0.24
-0.235
-0.24
-0.24
-0.255
-0.27
-0.27
-0.3
-0.31
-0.32
-0.33
-0.33
-0.325
-0.27
-0.205
-0.21
-0.18
-0.065
-0.07
-0.215
-0.295
-0.315
-0.385
-0.415
-0.425
-0.425
-0.435
-0.435
-0.46
-0.24
0.75
2.17
2.25
0.49
-0.62
-0.555
-0.525
-0.39
-0.375
-0.37
-0.36
-0.34
-0.335
-0.31
-0.29
-0.255
-0.225
-0.18
-0.145
-0.08
-0.03
0.04
0.125
0.225
0.345
0.475
0.585
0.695
0.75
0.79
0.725
0.59
0.37
0.165
-0.02
-0.145
-0.235
-0.27
-0.3
-0.325
-0.33
-0.325
-0.345
-0.34
-0.34
-0.325
-0.325
-0.31
-0.315
-0.315
-0.325
-0.325
-0.345
-0.355
-0.365
-0.365
-0.38
-0.37
-0.395
-0.39
-0.4
-0.385
-0.33
-0.25
-0.27
-0.23
-0.125
-0.155
-0.285
-0.335
-0.375
-0.425
-0.465
-0.455
-0.475
-0.48
-0.485
-0.505
-0.315
0.69
2.175
2.205
0.275
-0.765
-0.585
-0.515
-0.405
-0.395
-0.4
-0.385
-0.38
-0.36
-0.345
-0.305
-0.28
-0.24
-0.21
-0.155
-0.11
-0.055
0.02
0.12
0.22
0.33
0.45
0.57
0.66
0.745
0.755
0.725
0.585
0.385
0.165
-0.015
-0.15
-0.225
-0.285
-0.305
-0.335
-0.335
-0.34
-0.345
-0.345
-0.345
-0.335
-0.325
-0.33
-0.315
-0.315
-0.315
-0.33
-0.325
-0.345
-0.345
-0.365
-0.37
-0.385
-0.38
-0.39
-0.39
-0.38
-0.32
-0.255
-0.26
-0.235
-0.115
-0.135
-0.26
-0.32
-0.335
-0.4
-0.43
-0.43
-0.44
-0.445
-0.435
-0.47
-0.33
0.51
1.965
2.275
0.49
-0.73
-0.575
-0.505
-0.375
-0.36
-0.355
-0.355
-0.345
-0.335
-0.3
-0.275
-0.24
-0.215
-0.165
-0.125
-0.075
-0.02
0.055
0.13
0.24
0.34
0.455
0.56
0.65
0.72
0.755
0.735
0.62
0.415
0.21
0.03
-0.1
-0.175
-0.23
-0.27
-0.29
-0.29
-0.295
-0.295
-0.285
-0.295
-0.29
-0.295
-0.28
-0.295
-0.29
-0.28
-0.3
-0.295
-0.3
-0.31
-0.315
-0.335
-0.34
-0.33
-0.335
-0.345
-0.35
-0.355
-0.365
-0.34
-0.265
-0.22
-0.24
-0.17
-0.045
-0.125
-0.285
-0.34
-0.36
-0.4
-0.425
-0.425
-0.425
-0.43
-0.44
-0.435
-0.155
0.89
2.235
2.065
0.325
-0.63
-0.575
-0.53
-0.405
-0.395
-0.39
-0.36
-0.35
-0.34
-0.33
-0.31
-0.285
-0.235
-0.19
-0.155
-0.11
-0.055
0.02
0.115
0.195
0.3
0.435
0.55
0.63
0.685
0.72
0.69
0.56
0.36
0.155
-0.03
-0.155
-0.235
-0.29
-0.32
-0.345
-0.34
-0.335
-0.33
-0.345
-0.325
-0.315
-0.325
-0.31
-0.335
-0.36
-0.355
-0.365
-0.37
-0.38
-0.4
-0.43
-0.425
-0.415
-0.425
-0.445
-0.445
-0.45
-0.465
-0.46
-0.465
-0.475
-0.4
-0.34
-0.365
-0.325
-0.195
-0.225
-0.39
-0.45
-0.49
-0.56
-0.575
-0.585
-0.59
-0.585
-0.595
-0.62
-0.455
0.405
1.855
2.325
0.685
-0.71
-0.805
-0.77
-0.625
-0.56
-0.535
-0.535
-0.53
-0.505
-0.505
-0.475
-0.405
-0.375
-0.34
-0.325
-0.27
-0.205
-0.15
-0.08
0.03
0.13
0.235
0.36
0.455
0.525
0.55
0.515
0.4
0.215
0.015
-0.185
-0.33
-0.42
-0.48
-0.525
-0.525
-0.525
-0.525
-0.525
-0.52
-0.515
-0.51
-0.505
-0.51
-0.525
-0.53
-0.53
-0.55
-0.56
-0.58
-0.585
-0.59
-0.61
-0.615
-0.63
-0.625
-0.63
-0.64
-0.635
-0.645
-0.655
-0.645
-0.655
-0.655
-0.655
-0.665
-0.67
-0.665
-0.635
-0.545
-0.52
-0.545
-0.415
-0.33
-0.45
-0.595
-0.615
-0.67
-0.71
-0.715
-0.725
-0.74
-0.74
-0.735
-0.775
-0.56
0.55
2.14
2.215
0.325
-0.86
-0.81
-0.785
-0.645
-0.63
-0.635
-0.625
-0.605
-0.585
-0.565
-0.525
-0.495
-0.46
-0.415
-0.365
-0.32
-0.25
-0.185
-0.085
0.015
0.115
0.23
0.34
0.445
0.53
0.565
0.55
0.46
0.29
0.085
-0.12
-0.275
-0.38
-0.45
-0.49
-0.515
-0.535
-0.535
-0.53
-0.525
-0.51
-0.495
-0.485
-0.465
-0.455
-0.45
-0.45
-0.465
-0.48
-0.5
-0.505
-0.52
-0.535
-0.55
-0.55
-0.555
-0.57
-0.575
-0.56
-0.575
-0.585
-0.585
-0.575
-0.575
-0.575
-0.58
-0.575
-0.58
-0.575
-0.57
-0.505
-0.42
-0.415
-0.41
-0.275
-0.24
-0.395
-0.505
-0.495
-0.555
-0.61
-0.615
-0.615
-0.625
-0.625
-0.63
-0.66
-0.25
1.125
2.52
1.675
-0.285
-0.865
-0.7
-0.615
-0.53
-0.535
-0.515
-0.51
-0.49
-0.465
-0.44
-0.41
-0.375
-0.335
-0.295
-0.25
-0.195
-0.13
-0.06
0.025
0.14
0.245
0.35
0.47
0.57
0.635
0.665
0.645
0.535
0.345
0.135
-0.07
-0.21
-0.315
-0.38
-0.415
-0.44
-0.445
-0.445
-0.445
-0.44
-0.435
-0.425
-0.41
-0.4
-0.4
-0.395
-0.385
-0.395
-0.4
-0.415
-0.425
-0.44
-0.445
-0.455
-0.46
-0.465
-0.47
-0.475
-0.485
-0.485
-0.485
-0.485
-0.45
-0.425
-0.44
-0.445
-0.46
-0.455
-0.465
-0.455
-0.4
-0.305
-0.305
-0.28
-0.165
-0.145
-0.29
-0.38
-0.39
-0.45
-0.505
-0.51
-0.515
-0.52
-0.525
-0.525
-0.52
-0.03
1.345
2.5
1.35
-0.39
-0.69
-0.58
-0.49
-0.41
-0.435
-0.415
-0.41
-0.39
-0.365
-0.34
-0.315
-0.28
-0.24
-0.2
-0.155
-0.09
-0.035
0.04
0.115
0.22
0.32
0.435
0.535
0.63
0.695
0.72
0.685
0.565
0.38
0.19
-0.005
-0.135
-0.23
-0.28
-0.32
-0.335
-0.345
-0.335
-0.345
-0.33
-0.32
-0.315
-0.31
-0.295
-0.305
-0.305
-0.295
-0.31
-0.325
-0.33
-0.34
-0.34
-0.34
-0.355
-0.365
-0.375
-0.37
-0.37
-0.38
-0.37
-0.37
-0.365
-0.37
-0.365
-0.365
-0.365
-0.365
-0.37
-0.36
-0.365
-0.325
-0.235
-0.225
-0.235
-0.115
-0.045
-0.185
-0.305
-0.335
-0.365
-0.39
-0.395
-0.4
-0.405
-0.415
-0.4
-0.37
0.09
1.325
2.425
1.59
0.06
-0.485
-0.545
-0.445
-0.345
-0.325
-0.325
-0.31
-0.305
-0.265
-0.23
-0.21
-0.175
-0.135
-0.105
-0.06
-0.015
0.055
0.115
0.205
0.305
0.43
0.53
0.635
0.74
0.81
0.84
0.81
0.695
0.52
0.33
0.15
0.005
-0.08
-0.14
-0.165
-0.185
-0.175
-0.17
-0.175
-0.19
-0.18
-0.15
-0.145
-0.165
-0.155
-0.155
-0.175
-0.185
-0.175
-0.2
-0.215
-0.225
-0.23
-0.225
-0.22
-0.235
-0.24
-0.245
-0.24
-0.255
-0.24
-0.26
-0.26
-0.255
-0.25
-0.255
-0.255
-0.24
-0.17
-0.125
-0.145
-0.075
0.04
-0.025
-0.155
-0.215
-0.235
-0.285
-0.3
-0.305
-0.31
-0.335
-0.325
-0.35
-0.21
0.615
2.025
2.52
1.045
-0.285
-0.445
-0.48
-0.335
-0.285
-0.27
-0.275
-0.255
-0.24
-0.205
-0.2
-0.165
-0.14
-0.105
-0.08
-0.03
0.015
0.085
0.16
0.255
0.35
0.47
0.56
0.665
0.73
0.765
0.745
0.685
0.525
0.335
0.135
-0.005
-0.13
-0.19
-0.25
-0.26
-0.275
-0.27
-0.285
-0.27
-0.285
-0.26
-0.265
-0.255
-0.265
-0.26
-0.27
-0.275
-0.3
-0.31
-0.325
-0.325
-0.345
-0.345
-0.36
-0.355
-0.37
-0.365
-0.375
-0.37
-0.38
-0.37
-0.385
-0.38
-0.385
-0.38
-0.395
-0.385
-0.395
-0.385
-0.375
-0.29
-0.24
-0.26
-0.195
-0.085
-0.17
-0.29
-0.345
-0.36
-0.425
-0.44
-0.455
-0.45
-0.465
-0.445
-0.49
-0.315
0.67
2.24
2.505
0.655
-0.625
-0.53
-0.515
-0.38
-0.375
-0.37
-0.365
-0.345
-0.34
-0.315
-0.295
-0.26
-0.23
-0.185
-0.155
-0.085
-0.045
0.045
0.115
0.215
0.315
0.44
0.545
0.66
0.735
0.795
0.78
0.73
0.56
0.36
0.135
-0.03
-0.165
-0.23
-0.295
-0.31
-0.335
-0.345
-0.345
-0.335
-0.33
-0.325
-0.33
-0.305
-0.31
-0.295
-0.31
-0.3
-0.32
-0.325
-0.35
-0.345
-0.37
-0.375
-0.385
-0.375
-0.395
-0.385
-0.4
-0.39
-0.41
-0.395
-0.415
-0.4
-0.415
-0.405
-0.415
-0.405
-0.41
-0.37
-0.3
-0.255
-0.295
-0.185
-0.105
-0.205
-0.325
-0.33
-0.39
-0.435
-0.455
-0.455
-0.48
-0.465
-0.485
-0.51
-0.23
0.945
2.325
1.945
0.095
-0.65
-0.55
-0.485
-0.39
-0.39
-0.395
-0.37
-0.365
-0.34
-0.32
-0.29
-0.27
-0.23
-0.2
-0.14
-0.115
-0.035
0.025
0.125
0.21
0.335
0.435
0.565
0.65
0.745
0.765
0.77
0.665
0.5
0.27
0.085
-0.08
-0.17
-0.255
-0.285
-0.33
-0.325
-0.34
-0.33
-0.34
-0.335
-0.33
-0.305
-0.315
-0.295
-0.315
-0.295
-0.31
-0.31
-0.33
-0.315
-0.345
-0.335
-0.36
-0.35
-0.365
-0.365
-0.395
-0.365
-0.38
-0.365
-0.38
-0.37
-0.38
-0.36
-0.375
-0.36
-0.38
-0.33
-0.26
-0.21
-0.255
-0.135
-0.075
-0.165
-0.285
-0.295
-0.345
-0.375
-0.395
-0.385
-0.4
-0.38
-0.4
-0.405
-0.105
0.985
2.275
2.035
0.385
-0.49
-0.51
-0.455
-0.335
-0.31
-0.315
-0.295
-0.295
-0.25
-0.235
-0.21
-0.18
-0.135
-0.105
-0.055
-0.025
0.06
0.12
0.205
0.295
0.415
0.54
0.67
0.765
0.85
0.91
0.91
0.795
0.61
0.385
0.205
0.04
-0.055
-0.14
-0.18
-0.205
-0.21
-0.205
-0.19
-0.205
-0.215
-0.2
-0.175
-0.18
-0.185
-0.2
-0.19
-0.205
-0.2
-0.215
-0.24
-0.235
-0.24
-0.265
-0.27
-0.275
-0.275
-0.26
-0.27
-0.29
-0.275
-0.24
-0.265
-0.26
-0.25
-0.225
-0.155
-0.095
-0.095
-0.04
0.055
0.0
-0.16
-0.24
-0.265
-0.315
-0.34
-0.325
-0.335
-0.35
-0.35
-0.35
-0.14
0.85
2.215
2.41
0.795
-0.4
-0.52
-0.5
-0.34
-0.24
-0.24
-0.24
-0.22
-0.175
-0.16
-0.095
-0.055
-0.025
0.01
0.05
0.09
0.125
0.18
0.28
0.355
0.485
0.615
0.755
0.87
0.955
0.975
0.985
0.87
0.655
0.42
0.25
0.06
-0.035
-0.09
-0.13
-0.155
-0.17
-0.175
-0.155
-0.175
-0.165
-0.15
-0.135
-0.155
-0.145
-0.15
-0.165
-0.175
-0.19
-0.21
-0.21
-0.225
-0.235
-0.265
-0.265
-0.275
-0.27
-0.275
-0.275
-0.285
-0.275
-0.285
-0.285
-0.285
-0.21
-0.145
-0.135
-0.125
0.005
0.01
-0.125
-0.215
-0.235
-0.295
-0.315
-0.325
-0.34
-0.345
-0.34
-0.375
-0.31
0.365
1.895
2.93
1.565
-0.17
-0.48
-0.475
-0.365
-0.295
-0.28
-0.265
-0.25
-0.225
-0.205
-0.21
-0.15
-0.125
-0.075
-0.04
-0.005
0.045
0.14
0.22
0.325
0.42
0.54
0.685
0.825
0.915
0.985
0.995
0.935
0.76
0.525
0.28
0.105
-0.045
-0.12
-0.17
-0.19
-0.225
-0.24
-0.255
-0.255
-0.26
-0.24
-0.25
-0.225
-0.225
-0.205
-0.215
-0.2
-0.215
-0.225
-0.235
-0.235
-0.265
-0.265
-0.29
-0.28
-0.285
-0.29
-0.315
-0.31
-0.33
-0.325
-0.33
-0.305
-0.235
-0.185
-0.215
-0.13
-0.04
-0.115
-0.25
-0.275
-0.305
-0.36
-0.385
-0.38
-0.39
-0.39
-0.4
-0.43
-0.19
0.975
2.565
2.565
0.605
-0.515
-0.44
-0.425
-0.31
-0.295
-0.29
-0.275
-0.27
-0.25
-0.23
-0.19
-0.16
-0.12
-0.08
-0.035
0.01
0.08
0.145
0.24
0.335
0.465
0.585
0.725
0.835
0.93
0.97
0.955
0.835
0.64
0.385
0.18
0.02
-0.09
-0.17
-0.2
-0.235
-0.25
-0.27
-0.275
-0.27
-0.265
-0.275
-0.265
-0.26
-0.24
-0.24
-0.235
-0.24
-0.24
-0.255
-0.26
-0.27
-0.28
-0.305
-0.3
-0.3
-0.3
-0.31
-0.31
-0.31
-0.31
-0.31
-0.25
-0.175
-0.17
-0.175
-0.05
-0.005
-0.14
-0.235
-0.235
-0.305
-0.345
-0.355
-0.365
-0.365
-0.355
-0.36
-0.335
0.235
1.71
2.815
1.575
-0.145
-0.485
-0.445
-0.345
-0.28
-0.305
-0.285
-0.27
-0.285
-0.28
-0.24
-0.205
-0.18
-0.145
-0.115
-0.085
-0.03
0.045
0.105
0.195
0.335
0.46
0.575
0.715
0.815
0.87
0.9
0.835
0.635
0.405
0.155
-0.03
-0.16
-0.24
-0.305
-0.36
-0.395
-0.4
-0.4
-0.435
-0.46
-0.47
-0.46
-0.475
-0.46
-0.46
-0.465
-0.45
-0.445
-0.455
-0.455
-0.47
-0.48
-0.475
-0.45
-0.4
-0.43
-0.47
-0.495
-0.52
-0.475
-0.425
-0.44
-0.39
-0.275
-0.325
-0.485
-0.56
-0.585
-0.67
-0.7
-0.69
-0.69
-0.715
-0.745
-0.765
-0.55
0.465
2.015
2.285
0.43
-0.965
-0.955
-0.865
-0.745
-0.72
-0.69
-0.685
-0.655
-0.65
-0.635
-0.595
-0.58
-0.535
-0.49
-0.45
-0.4
-0.35
-0.265
-0.185
-0.055
0.1
0.23
0.36
0.485
0.585
0.62
0.565
0.39
0.15
-0.11
-0.31
-0.455
-0.565
-0.6
-0.625
-0.665
-0.68
-0.655
-0.66
-0.67
-0.675
-0.675
-0.665
-0.665
-0.655
-0.65
-0.665
-0.645
-0.64
-0.65
-0.66
-0.67
-0.675
-0.69
-0.71
-0.705
-0.705
-0.695
-0.64
-0.55
-0.545
-0.545
-0.445
-0.435
-0.56
-0.63
-0.65
-0.7
-0.725
-0.715
-0.72
-0.725
-0.725
-0.755
-0.585
0.43
2.125
2.655
0.7
-0.91
-0.875
-0.785
-0.63
-0.585
-0.575
-0.56
-0.55
-0.525
-0.51
-0.48
-0.445
-0.405
-0.375
-0.325
-0.265
-0.2
-0.115
-0.015
0.095
0.215
0.36
0.515
0.635
0.73
0.785
0.745
0.6
0.37
0.125
-0.075
-0.22
-0.325
-0.37
-0.395
-0.425
-0.435
-0.44
-0.44
-0.45
-0.44
-0.44
-0.42
-0.42
-0.415
-0.42
-0.405
-0.39
-0.395
-0.395
-0.4
-0.405
-0.405
-0.41
-0.41
-0.42
-0.415
-0.41
-0.39
-0.305
-0.255
-0.265
-0.175
-0.05
-0.12
-0.265
-0.315
-0.355
-0.42
-0.44
-0.445
-0.45
-0.45
-0.44
-0.48
-0.155
1.145
2.685
2.265
0.19
-0.67
-0.45
-0.39
-0.28
-0.275
-0.275
-0.26
-0.24
-0.23
-0.21
-0.19
-0.155
-0.115
-0.065
-0.02
0.045
0.115
0.2
0.295
0.42
0.54
0.675
0.81
0.925
1.01
1.045
0.985
0.835
0.61
0.365
0.165
0.03
-0.055
-0.1
-0.125
-0.14
-0.15
-0.165
-0.175
-0.19
-0.185
-0.18
-0.175
-0.175
-0.16
-0.145
-0.16
-0.155
-0.16
-0.155
-0.165
-0.175
-0.185
-0.19
-0.205
-0.215
-0.225
-0.215
-0.17
-0.09
-0.09
-0.08
0.03
0.035
-0.105
-0.185
-0.185
-0.24
-0.3
-0.275
-0.275
-0.28
-0.295
-0.3
-0.22
0.505
2.015
2.86
1.31
-0.355
-0.495
-0.42
-0.31
-0.27
-0.285
-0.275
-0.28
-0.265
-0.255
-0.255
-0.235
-0.19
-0.15
-0.13
-0.1
-0.025
0.04
0.135
0.24
0.325
0.45
0.57
0.695
0.825
0.88
0.825
0.695
0.475
0.25
0.065
-0.075
-0.19
-0.275
-0.29
-0.325
-0.365
-0.385
-0.395
-0.395
-0.42
-0.425
-0.415
-0.425
-0.4
-0.385
-0.395
-0.4
-0.385
-0.38
-0.395
-0.415
-0.445
-0.455
-0.46
-0.47
-0.46
-0.445
-0.355
-0.295
-0.33
-0.26
-0.165
-0.235
-0.38
-0.45
-0.505
-0.535
-0.555
-0.55
-0.555
-0.57
-0.575
-0.605
-0.35
0.775
2.335
2.38
0.39
-0.895
-0.755
-0.635
-0.505
-0.485
-0.465
-0.44
-0.415
-0.38
-0.36
-0.325
-0.285
-0.24
-0.18
-0.13
-0.075
0.005
0.08
0.185
0.29
0.44
0.605
0.76
0.89
0.975
0.985
0.91
0.72
0.45
0.23
0.065
-0.07
-0.15
-0.19
-0.2
-0.215
-0.215
-0.21
-0.205
-0.2
-0.185
-0.19
-0.185
-0.17
-0.17
-0.15
-0.15
-0.145
-0.125
-0.115
-0.12
-0.13
-0.12
-0.11
-0.11
-0.115
-0.1
-0.05
0.045
0.055
0.045
0.15
0.225
0.11
0.01
0.005
-0.05
-0.095
-0.08
-0.08
-0.07
-0.075
-0.08
-0.035
0.645
2.285
3.555
2.06
0.035
-0.26
-0.11
0.025
0.095
0.11
0.13
0.145
0.175
0.195
0.22
0.265
0.31
0.355
0.4
0.46
0.53
0.615
0.715
0.835
0.955
1.105
1.27
1.4
1.49
1.565
1.555
1.435
1.215
0.965
0.74
0.57
0.46
0.41
0.375
0.365
0.35
0.335
0.33
0.33
0.32
0.325
0.33
0.35
0.35
0.375
0.385
0.39
0.38
0.375
0.375
0.375
0.36
0.365
0.35
0.35
0.34
0.34
0.33
0.37
0.44
0.475
0.45
0.545
0.62
0.52
0.38
0.37
0.315
0.25
0.23
0.24
0.23
0.23
0.205
0.21
0.685
2.18
3.585
2.585
0.545
-0.005
0.125
0.21
0.28
0.285
0.285
0.305
0.305
0.335
0.355
0.375
0.4
0.435
0.46
0.515
0.56
0.635
0.705
0.795
0.905
1.04
1.15
1.27
1.37
1.46
1.47
1.395
1.19
0.955
0.72
0.555
0.415
0.355
0.3
0.29
0.29
0.28
0.225
0.215
0.19
0.19
0.185
0.19
0.18
0.195
0.18
0.19
0.165
0.17
0.145
0.135
0.115
0.115
0.09
0.085
0.065
0.06
0.045
0.085
0.15
0.185
0.14
0.24
0.31
0.215
0.09
0.085
0.02
-0.05
-0.08
-0.08
-0.115
-0.1
-0.12
-0.145
0.275
1.64
2.995
2.105
0.13
-0.395
-0.23
-0.145
-0.08
-0.09
-0.095
-0.085
-0.095
-0.07
-0.065
-0.025
-0.01
0.03
0.05
0.1
0.15
0.22
0.275
0.38
0.475
0.605
0.72
0.84
0.915
0.995
0.995
0.93
0.735
0.52
0.29
0.115
-0.01
-0.055
-0.115
-0.145
-0.18
-0.19
-0.215
-0.19
-0.22
-0.215
-0.23
-0.215
-0.225
-0.21
-0.225
-0.22
-0.235
-0.225
-0.23
-0.25
-0.28
-0.295
-0.295
-0.29
-0.315
-0.29
-0.23
-0.185
-0.235
-0.135
-0.06
-0.11
-0.25
-0.31
-0.36
-0.39
-0.42
-0.425
-0.44
-0.425
-0.455
-0.435
-0.135
1.055
2.41
2.045
0.27
-0.645
-0.63
-0.54
-0.425
-0.405
-0.425
-0.4
-0.41
-0.36
-0.36
-0.345
-0.33
-0.245
-0.215
-0.125
-0.035
0.015
0.04
0.145
0.245
0.38
0.495
0.63
0.72
0.805
0.785
0.705
0.485
0.26
0.03
-0.13
-0.25
-0.32
-0.365
-0.385
-0.415
-0.385
-0.42
-0.42
-0.435
-0.415
-0.425
-0.42
-0.435
-0.41
-0.435
-0.435
-0.445
-0.44
-0.475
-0.47
-0.485
-0.5
-0.505
-0.505
-0.53
-0.475
-0.405
-0.4
-0.4
-0.255
-0.255
-0.38
-0.505
-0.51
-0.555
-0.56
-0.61
-0.605
-0.605
-0.605
-0.665
-0.49
0.455
2.095
2.655
0.785
-0.885
-0.855
-0.745
-0.57
-0.56
-0.535
-0.545
-0.515
-0.52
-0.49
-0.47
-0.42
-0.41
-0.35
-0.33
-0.255
-0.21
-0.115
-0.05
0.08
0.195
0.35
0.455
0.59
0.65
0.695
0.625
0.475
0.215
0.01
-0.195
-0.31
-0.4
-0.435
-0.475
-0.485
-0.525
-0.515
-0.54
-0.525
-0.535
-0.51
-0.525
-0.495
-0.505
-0.49
-0.49
-0.465
-0.505
-0.505
-0.525
-0.515
-0.54
-0.53
-0.55
-0.54
-0.555
-0.47
-0.4
-0.41
-0.405
-0.285
-0.295
-0.42
-0.505
-0.505
-0.58
-0.605
-0.61
-0.605
-0.63
-0.62
-0.66
-0.445
0.665
2.415
2.695
0.585
-0.89
-0.735
-0.665
-0.525
-0.52
-0.515
-0.51
-0.475
-0.465
-0.445
-0.43
-0.38
-0.355
-0.295
-0.265
-0.2
-0.14
-0.05
0.035
0.155
0.285
0.425
0.545
0.67
0.75
0.79
0.725
0.565
0.32
0.085
-0.115
-0.25
-0.335
-0.39
-0.425
-0.44
-0.455
-0.465
-0.475
-0.475
-0.465
-0.465
-0.455
-0.435
-0.43
-0.415
-0.41
-0.415
-0.42
-0.445
-0.46
-0.465
-0.48
-0.495
-0.505
-0.5
-0.505
-0.505
-0.505
-0.455
-0.365
-0.355
-0.36
-0.27
-0.23
-0.365
-0.435
-0.44
-0.505
-0.56
-0.55
-0.56
-0.565
-0.57
-0.585
-0.51
0.325
2.0
2.85
0.95
-0.785
-0.72
-0.6
-0.485
-0.455
-0.465
-0.44
-0.43
-0.415
-0.395
-0.375
-0.335
-0.3
-0.265
-0.21
-0.16
-0.095
-0.015
0.08
0.185
0.31
0.44
0.575
0.68
0.77
0.82
0.795
0.675
0.465
0.22
0.02
-0.145
-0.24
-0.305
-0.33
-0.35
-0.36
-0.38
-0.375
-0.395
-0.395
-0.395
-0.385
-0.38
-0.365
-0.365
-0.36
-0.365
-0.365
-0.375
-0.375
-0.4
-0.4
-0.41
-0.415
-0.43
-0.425
-0.44
-0.43
-0.445
-0.435
-0.445
-0.4
-0.33
-0.29
-0.325
-0.24
-0.15
-0.245
-0.365
-0.38
-0.43
-0.485
-0.505
-0.495
-0.515
-0.51
-0.525
-0.56
-0.21
1.085
2.475
1.795
-0.175
-0.79
-0.57
-0.49
-0.4
-0.415
-0.41
-0.385
-0.39
-0.365
-0.355
-0.315
-0.305
-0.25
-0.22
-0.17
-0.12
-0.05
0.025
0.13
0.225
0.35
0.465
0.585
0.67
0.745
0.755
0.71
0.545
0.35
0.135
-0.025
-0.145
-0.21
-0.265
-0.29
-0.325
-0.34
-0.35
-0.36
-0.365
-0.365
-0.37
-0.355
-0.36
-0.35
-0.355
-0.355
-0.365
-0.375
-0.39
-0.395
-0.415
-0.41
-0.44
-0.445
-0.455
-0.455
-0.47
-0.475
-0.485
-0.48
-0.485
-0.495
-0.49
-0.415
-0.35
-0.355
-0.325
-0.225
-0.24
-0.375
-0.45
-0.475
-0.545
-0.57
-0.585
-0.59
-0.605
-0.595
-0.635
-0.525
0.275
1.72
2.105
0.395
-0.875
-0.745
-0.675
-0.555
-0.54
-0.535
-0.54
-0.53
-0.515
-0.485
-0.465
-0.44
-0.41
-0.37
-0.33
-0.27
-0.22
-0.16
-0.08
0.015
0.11
0.23
0.335
0.43
0.5
0.525
0.51
0.415
0.24
0.045
-0.135
-0.285
-0.36
-0.395
-0.455
-0.475
-0.495
-0.485
-0.495
-0.485
-0.48
-0.49
-0.505
-0.495
-0.485
-0.48
-0.49
-0.485
-0.505
-0.51
-0.515
-0.505
-0.525
-0.535
-0.54
-0.53
-0.54
-0.545
-0.55
-0.545
-0.55
-0.555
-0.54
-0.47
-0.4
-0.4
-0.375
-0.265
-0.25
-0.39
-0.495
-0.525
-0.555
-0.575
-0.575
-0.58
-0.585
-0.59
-0.59
-0.4
0.445
1.78
2.15
0.6
-0.64
-0.735
-0.73
-0.585
-0.535
-0.525
-0.535
-0.52
-0.495
-0.475
-0.45
-0.41
-0.39
-0.37
-0.325
-0.265
-0.225
-0.155
-0.08
0.02
0.12
0.23
0.325
0.425
0.505
0.51
0.465
0.365
0.185
0.005
-0.195
-0.33
-0.4
-0.475
-0.495
-0.5
-0.495
-0.505
-0.505
-0.485
-0.505
-0.51
-0.515
-0.52
-0.51
-0.53
-0.525
-0.55
-0.58
-0.58
-0.595
-0.595
-0.585
-0.625
-0.635
-0.62
-0.63
-0.635
-0.63
-0.64
-0.64
-0.635
-0.635
-0.61
-0.545
-0.515
-0.545
-0.435
-0.325
-0.45
-0.59
-0.62
-0.645
-0.69
-0.68
-0.7
-0.705
-0.705
-0.715
-0.725
-0.26
1.095
2.35
1.485
-0.255
-0.915
-0.88
-0.765
-0.635
-0.625
-0.64
-0.63
-0.59
-0.585
-0.555
-0.49
-0.455
-0.43
-0.385
-0.35
-0.305
-0.25
-0.18
-0.08
0.04
0.145
0.265
0.38
0.475
0.53
0.535
0.455
0.295
0.075
-0.115
-0.265
-0.38
-0.44
-0.48
-0.51
-0.53
-0.53
-0.52
-0.515
-0.505
-0.485
-0.48
-0.465
-0.46
-0.45
-0.455
-0.465
-0.465
-0.485
-0.49
-0.5
-0.51
-0.51
-0.515
-0.52
-0.52
-0.525
-0.52
-0.52
-0.52
-0.525
-0.525
-0.515
-0.51
-0.475
-0.385
-0.355
-0.37
-0.27
-0.185
-0.295
-0.4
-0.415
-0.46
-0.51
-0.525
-0.53
-0.52
-0.525
-0.53
-0.56
-0.14
1.265
2.725
1.955
0.015
-0.645
-0.545
-0.475
-0.385
-0.4
-0.38
-0.365
-0.345
-0.325
-0.295
-0.265
-0.235
-0.195
-0.15
-0.095
-0.035
0.035
0.125
0.215
0.33
0.45
0.575
0.695
0.795
0.855
0.895
0.845
0.695
0.475
0.255
0.07
-0.065
-0.15
-0.205
-0.23
-0.24
-0.255
-0.25
-0.255
-0.25
-0.24
-0.23
-0.215
-0.195
-0.18
-0.175
-0.18
-0.18
-0.185
-0.2
-0.21
-0.225
-0.23
-0.24
-0.245
-0.265
-0.265
-0.265
-0.265
-0.265
-0.26
-0.265
-0.265
-0.27
-0.26
-0.26
-0.24
-0.175
-0.095
-0.11
-0.07
0.04
0.015
-0.13
-0.185
-0.2
-0.265
-0.3
-0.3
-0.31
-0.315
-0.31
-0.335
-0.225
0.62
2.185
2.78
0.955
-0.535
-0.43
-0.345
-0.23
-0.21
-0.21
-0.195
-0.185
-0.16
-0.14
-0.11
-0.08
-0.055
-0.01
0.035
0.095
0.15
0.22
0.3
0.405
0.515
0.635
0.76
0.865
0.94
0.995
0.995
0.91
0.725
0.495
0.29
0.12
0.01
-0.06
-0.105
-0.13
-0.15
-0.15
-0.15
-0.155
-0.15
-0.155
-0.145
-0.145
-0.13
-0.12
-0.12
-0.12
-0.135
-0.145
-0.16
-0.17
-0.18
-0.195
-0.21
-0.21
-0.215
-0.22
-0.225
-0.23
-0.225
-0.23
-0.23
-0.24
-0.24
-0.23
-0.235
-0.235
-0.24
-0.24
-0.24
-0.21
-0.14
-0.095
-0.115
-0.03
0.08
-0.015
-0.14
-0.17
-0.21
-0.285
-0.29
-0.3
-0.295
-0.31
-0.31
-0.345
-0.155
0.865
2.32
2.305
0.46
-0.56
-0.385
-0.325
-0.22
-0.22
-0.215
-0.205
-0.195
-0.185
-0.155
-0.13
-0.105
-0.07
-0.035
0.01
0.065
0.125
0.185
0.265
0.36
0.465
0.575
0.685
0.785
0.85
0.885
0.87
0.775
0.615
0.41
0.225
0.065
-0.045
-0.11
-0.145
-0.17
-0.175
-0.185
-0.185
-0.175
-0.18
-0.165
-0.165
-0.155
-0.155
-0.155
-0.155
-0.165
-0.175
-0.19
-0.205
-0.22
-0.235
-0.245
-0.245
-0.255
-0.26
-0.27
-0.265
-0.28
-0.275
-0.275
-0.285
-0.28
-0.28
-0.28
-0.285
-0.285
-0.285
-0.295
-0.285
-0.275
-0.205
-0.145
-0.15
-0.1
0.005
-0.045
-0.175
-0.225
-0.24
-0.315
-0.335
-0.34
-0.34
-0.345
-0.335
-0.36
-0.235
0.59
1.97
2.31
0.66
-0.535
-0.445
-0.395
-0.27
-0.25
-0.26
-0.245
-0.235
-0.22
-0.2
-0.185
-0.155
-0.135
-0.085
-0.05
0.01
0.06
0.13
0.205
0.295
0.39
0.505
0.605
0.7
0.765
0.805
0.805
0.725
0.59
0.4
0.21
0.07
-0.03
-0.11
-0.155
-0.175
-0.19
-0.185
-0.19
-0.185
-0.185
-0.185
-0.19
-0.18
-0.185
-0.185
-0.185
-0.195
-0.205
-0.22
-0.245
-0.245
-0.25
-0.265
-0.275
-0.265
-0.265
-0.275
-0.275
-0.285
-0.28
-0.285
-0.28
-0.285
-0.285
-0.285
-0.285
-0.285
-0.285
-0.27
-0.275
-0.265
-0.2
-0.15
-0.155
-0.08
0.035
-0.035
-0.165
-0.215
-0.24
-0.295
-0.31
-0.325
-0.335
-0.33
-0.325
-0.345
-0.105
0.85
2.155
2.155
0.585
-0.4
-0.425
-0.4
-0.285
-0.26
-0.255
-0.25
-0.23
-0.215
-0.195
-0.18
-0.145
-0.11
-0.075
-0.045
0.02
0.06
0.135
0.2
0.285
0.375
0.49
0.595
0.685
0.75
0.795
0.775
0.705
0.545
0.36
0.185
0.04
-0.065
-0.125
-0.17
-0.175
-0.195
-0.19
-0.19
-0.19
-0.19
-0.165
-0.17
-0.195
-0.205
-0.19
-0.215
-0.23
-0.25
-0.25
-0.27
-0.25
-0.275
-0.28
-0.29
-0.29
-0.305
-0.31
-0.315
-0.29
-0.32
-0.33
-0.325
-0.305
-0.325
-0.325
-0.34
-0.31
-0.26
-0.205
-0.225
-0.155
-0.065
-0.095
-0.225
-0.275
-0.32
-0.36
-0.385
-0.37
-0.385
-0.385
-0.39
-0.395
-0.225
0.635
1.955
2.39
0.925
-0.345
-0.53
-0.545
-0.41
-0.335
-0.33
-0.315
-0.3
-0.27
-0.26
-0.24
-0.21
-0.165
-0.125
-0.08
-0.05
0.01
0.07
0.16
0.24
0.35
0.44
0.56
0.64
0.72
0.735
0.725
0.63
0.48
0.285
0.105
-0.05
-0.135
-0.215
-0.24
-0.265
-0.26
-0.26
-0.26
-0.265
-0.255
-0.26
-0.25
-0.27
-0.27
-0.285
-0.29
-0.315
-0.315
-0.34
-0.34
-0.36
-0.355
-0.38
-0.375
-0.395
-0.395
-0.4
-0.405
-0.415
-0.41
-0.42
-0.405
-0.415
-0.41
-0.42
-0.4
-0.415
-0.39
-0.335
-0.255
-0.275
-0.215
-0.12
-0.155
-0.3
-0.35
-0.39
-0.425
-0.45
-0.445
-0.47
-0.455
-0.475
-0.485
-0.345
0.625
2.17
2.54
0.76
-0.53
-0.54
-0.515
-0.395
-0.365
-0.38
-0.355
-0.345
-0.315
-0.31
-0.265
-0.24
-0.195
-0.165
-0.11
-0.075
-0.005
0.065
0.16
0.24
0.36
0.475
0.595
0.695
0.785
0.82
0.82
0.725
0.575
0.355
0.16
-0.015
-0.115
-0.215
-0.25
-0.285
-0.295
-0.31
-0.3
-0.31
-0.285
-0.28
-0.25
-0.255
-0.235
-0.24
-0.23
-0.24
-0.245
-0.265
-0.265
-0.29
-0.29
-0.315
-0.31
-0.325
-0.315
-0.33
-0.315
-0.34
-0.325
-0.34
-0.33
-0.335
-0.33
-0.345
-0.335
-0.345
-0.325
-0.285
-0.185
-0.195
-0.17
-0.08
-0.045
-0.185
-0.25
-0.275
-0.325
-0.38
-0.365
-0.385
-0.375
-0.38
-0.38
-0.365
0.195
1.59
2.685
1.415
-0.265
-0.52
-0.415
-0.325
-0.25
-0.265
-0.24
-0.245
-0.21
-0.21
-0.17
-0.16
-0.105
-0.085
-0.02
0.015
0.095
0.145
0.24
0.31
0.43
0.535
0.675
0.765
0.88
0.925
0.955
0.89
0.775
0.56
0.37
0.17
0.055
-0.05
-0.095
-0.145
-0.15
-0.175
-0.155
-0.17
-0.15
-0.165
-0.14
-0.145
-0.125
-0.135
-0.105
-0.125
-0.12
-0.14
-0.14
-0.165
-0.165
-0.195
-0.175
-0.2
-0.195
-0.215
-0.2
-0.22
-0.21
-0.22
-0.21
-0.225
-0.205
-0.225
-0.2
-0.22
-0.2
-0.215
-0.195
-0.165
-0.06
-0.06
-0.075
0.03
0.11
-0.025
-0.115
-0.15
-0.18
-0.245
-0.24
-0.255
-0.255
-0.27
-0.255
-0.305
0.03
1.175
2.49
1.96
0.24
-0.44
-0.33
-0.285
-0.17
-0.19
-0.165
-0.17
-0.15
-0.145
-0.115
-0.1
-0.065
-0.04
0.005
0.045
0.095
0.15
0.24
0.305
0.405
0.505
0.62
0.72
0.815
0.87
0.91
0.88
0.775
0.595
0.4
0.2
0.055
-0.05
-0.12
-0.17
-0.185
-0.205
-0.205
-0.21
-0.205
-0.21
-0.205
-0.205
-0.195
-0.195
-0.205
-0.21
-0.215
-0.23
-0.24
-0.255
-0.265
-0.27
-0.28
-0.295
-0.3
-0.3
-0.31
-0.305
-0.305
-0.315
-0.32
-0.32
-0.325
-0.32
-0.325
-0.325
-0.335
-0.335
-0.335
-0.26
-0.185
-0.19
-0.175
-0.06
-0.07
-0.195
-0.275
-0.29
-0.355
-0.37
-0.38
-0.38
-0.395
-0.38
-0.39
-0.325
0.245
1.585
2.45
1.205
-0.275
-0.46
-0.465
-0.35
-0.295
-0.29
-0.285
-0.28
-0.27
-0.245
-0.225
-0.19
-0.165
-0.12
-0.095
-0.04
0.015
0.075
0.15
0.235
0.33
0.445
0.56
0.675
0.76
0.83
0.835
0.795
0.67
0.48
0.275
0.11
-0.025
-0.105
-0.17
-0.195
-0.215
-0.205
-0.215
-0.205
-0.215
-0.205
-0.21
-0.195
-0.2
-0.195
-0.21
-0.2
-0.215
-0.225
-0.24
-0.25
-0.26
-0.26
-0.27
-0.265
-0.28
-0.275
-0.285
-0.275
-0.29
-0.28
-0.29
-0.29
-0.3
-0.295
-0.275
-0.19
-0.145
-0.155
-0.08
0.025
-0.045
-0.17
-0.23
-0.265
-0.315
-0.31
-0.325
-0.33
-0.34
-0.325
-0.35
-0.17
0.72
2.075
2.285
0.735
-0.355
-0.395
-0.39
-0.25
-0.225
-0.22
-0.215
-0.185
-0.17
-0.14
-0.115
-0.08
-0.05
-0.005
0.03
0.095
0.14
0.215
0.285
0.39
0.495
0.615
0.72
0.825
0.89
0.93
0.905
0.83
0.655
0.465
0.265
0.12
0.01
-0.05
-0.095
-0.11
-0.12
-0.11
-0.12
-0.105
-0.105
-0.08
-0.095
-0.08
-0.075
-0.08
-0.095
-0.095
-0.115
-0.11
-0.13
-0.14
-0.155
-0.15
-0.17
-0.165
-0.185
-0.18
-0.185
-0.18
-0.19
-0.185
-0.19
-0.185
-0.19
-0.18
-0.175
-0.105
-0.04
-0.035
-0.02
0.095
0.085
-0.045
-0.115
-0.13
-0.2
-0.225
-0.235
-0.23
-0.25
-0.245
-0.27
-0.2
0.42
1.81
2.64
1.235
-0.28
-0.39
-0.355
-0.23
-0.185
-0.185
-0.175
-0.17
-0.165
-0.135
-0.125
-0.09
-0.065
-0.025
0.005
0.055
0.105
0.185
0.255
0.35
0.44
0.555
0.66
0.77
0.84
0.89
0.88
0.815
0.68
0.485
0.265
0.095
-0.04
-0.12
-0.175
-0.2
-0.225
-0.225
-0.235
-0.235
-0.235
-0.23
-0.23
-0.225
-0.23
-0.22
-0.235
-0.23
-0.25
-0.255
-0.27
-0.285
-0.295
-0.305
-0.31
-0.315
-0.325
-0.335
-0.345
-0.345
-0.355
-0.36
-0.355
-0.36
-0.36
-0.36
-0.365
-0.305
-0.23
-0.225
-0.24
-0.13
-0.075
-0.195
-0.295
-0.31
-0.37
-0.41
-0.41
-0.4
-0.41
-0.415
-0.425
-0.41
0.055
1.32
2.415
1.45
-0.13
-0.515
-0.48
-0.39
-0.32
-0.32
-0.305
-0.295
-0.285
-0.27
-0.23
-0.205
-0.165
-0.13
-0.095
-0.045
0.01
0.075
0.155
0.235
0.33
0.44
0.56
0.67
0.775
0.825
0.85
0.81
0.695
0.5
0.305
0.13
-0.005
-0.085
-0.15
-0.19
-0.19
-0.2
-0.2
-0.195
-0.195
-0.19
-0.185
-0.18
-0.175
-0.175
-0.165
-0.175
-0.175
-0.185
-0.19
-0.2
-0.205
-0.215
-0.21
-0.225
-0.24
-0.23
-0.225
-0.22
-0.225
-0.23
-0.23
-0.23
-0.23
-0.21
-0.185
-0.135
-0.095
-0.105
-0.01
0.085
-0.005
-0.12
-0.16
-0.195
-0.235
-0.235
-0.24
-0.255
-0.24
-0.235
-0.25
0.035
1.085
2.345
2.235
0.735
-0.24
-0.385
-0.355
-0.19
-0.145
-0.15
-0.135
-0.12
-0.095
-0.07
-0.04
-0.005
0.04
0.08
0.13
0.17
0.22
0.295
0.39
0.485
0.595
0.705
0.8
0.91
1.0
1.04
1.005
0.915
0.735
0.525
0.34
0.205
0.12
0.065
0.02
0.0
0.015
0.015
0.025
0.03
0.03
0.03
0.035
0.03
0.025
0.03
0.03
0.005
0.0
-0.01
-0.01
-0.03
-0.035
-0.03
-0.035
-0.04
-0.04
-0.04
-0.05
-0.045
-0.035
-0.035
-0.045
-0.015
0.05
0.11
0.095
0.14
0.255
0.21
0.075
0.015
-0.005
-0.07
-0.09
-0.08
-0.09
-0.085
-0.095
-0.115
0.02
0.855
2.285
2.845
1.335
-0.06
-0.225
-0.235
-0.09
-0.04
-0.03
-0.03
-0.015
0.01
0.04
0.065
0.09
0.12
0.155
0.2
0.245
0.295
0.365
0.45
0.545
0.65
0.765
0.885
0.97
1.055
1.075
1.06
0.975
0.815
0.595
0.4
0.24
0.135
0.065
0.015
-0.01
-0.015
-0.02
-0.02
-0.015
-0.015
-0.005
-0.005
-0.005
0.01
0.01
0.005
-0.01
-0.025
-0.04
-0.05
-0.07
-0.075
-0.08
-0.09
-0.095
-0.095
-0.105
-0.105
-0.105
-0.11
-0.115
-0.12
-0.125
-0.125
-0.11
-0.05
0.035
0.025
0.03
0.135
0.15
0.025
-0.065
-0.075
-0.13
-0.165
-0.18
-0.18
-0.195
-0.185
-0.195
-0.175
0.385
1.84
3.01
1.785
-0.005
-0.345
-0.265
-0.17
-0.115
-0.12
-0.115
-0.095
-0.08
-0.06
-0.04
-0.01
0.035
0.07
0.11
0.155
0.21
0.285
0.365
0.455
0.56
0.68
0.805
0.925
1.02
1.08
1.105
1.055
0.9
0.69
0.46
0.26
0.115
0.025
-0.035
-0.065
-0.085
-0.105
-0.12
-0.115
-0.125
-0.125
-0.12
-0.11
-0.105
-0.09
-0.09
-0.095
-0.1
-0.11
-0.125
-0.125
-0.145
-0.16
-0.165
-0.165
-0.175
-0.18
-0.19
-0.185
-0.2
-0.205
-0.215
-0.21
-0.215
-0.17
-0.09
-0.07
-0.1
0.01
0.09
-0.035
-0.14
-0.155
-0.205
-0.265
-0.275
-0.265
-0.28
-0.285
-0.29
-0.325
-0.08
1.04
2.485
2.275
0.41
-0.51
-0.37
-0.315
-0.21
-0.205
-0.2
-0.185
-0.185
-0.16
-0.135
-0.105
-0.08
-0.04
0.0
0.05
0.095
0.155
0.235
0.315
0.425
0.53
0.655
0.775
0.88
0.955
0.995
0.975
0.86
0.665
0.43
0.235
0.09
-0.02
-0.09
-0.125
-0.15
-0.16
-0.17
-0.165
-0.175
-0.185
-0.17
-0.175
-0.165
-0.155
-0.15
-0.15
-0.155
-0.165
-0.185
-0.19
-0.195
-0.205
-0.215
-0.22
-0.225
-0.235
-0.24
-0.24
-0.25
-0.255
-0.24
-0.245
-0.24
-0.255
-0.225
-0.15
-0.095
-0.125
-0.05
0.055
-0.01
-0.145
-0.185
-0.215
-0.28
-0.305
-0.3
-0.315
-0.325
-0.325
-0.35
-0.25
0.525
1.975
2.515
0.88
-0.475
-0.445
-0.39
-0.28
-0.245
-0.25
-0.235
-0.225
-0.21
-0.195
-0.165
-0.135
-0.095
-0.05
-0.01
0.03
0.09
0.16
0.25
0.335
0.445
0.56
0.685
0.785
0.86
0.91
0.91
0.835
0.675
0.46
0.25
0.085
-0.03
-0.095
-0.135
-0.165
-0.175
-0.18
-0.175
-0.18
-0.185
-0.175
-0.165
-0.16
-0.155
-0.155
-0.155
-0.155
-0.155
-0.17
-0.18
-0.18
-0.18
-0.185
-0.21
-0.225
-0.22
-0.225
-0.22
-0.225
-0.235
-0.225
-0.24
-0.24
-0.21
-0.135
-0.1
-0.13
-0.055
0.055
-0.01
-0.135
-0.2
-0.23
-0.27
-0.28
-0.29
-0.295
-0.295
-0.29
-0.305
-0.135
0.685
2.025
2.445
0.99
-0.255
-0.38
-0.415
-0.28
-0.235
-0.23
-0.23
-0.205
-0.185
-0.175
-0.15
-0.11
-0.08
-0.05
-0.015
0.04
0.095
0.165
0.23
0.33
0.435
0.56
0.69
0.79
0.855
0.93
0.92
0.83
0.635
0.425
0.22
0.06
-0.045
-0.105
-0.155
-0.155
-0.165
-0.15
-0.155
-0.17
-0.17
-0.145
-0.15
-0.135
-0.135
-0.145
-0.175
-0.165
-0.155
-0.18
-0.205
-0.2
-0.23
-0.215
-0.215
-0.21
-0.23
-0.22
-0.24
-0.235
-0.255
-0.225
-0.205
-0.145
-0.095
-0.105
-0.055
0.07
0.005
-0.12
-0.175
-0.22
-0.275
-0.25
-0.285
-0.295
-0.305
-0.285
-0.31
-0.165
0.695
2.13
2.645
1.135
-0.27
-0.43
-0.455
-0.31
-0.24
-0.225
-0.225
-0.195
-0.195
-0.16
-0.12
-0.08
-0.07
-0.01
0.0
0.065
0.125
0.175
0.255
0.37
0.47
0.615
0.73
0.855
0.915
0.965
0.955
0.85
0.62
0.415
0.205
0.075
-0.03
-0.11
-0.17
-0.175
-0.195
-0.17
-0.165
-0.165
-0.17
-0.145
-0.175
-0.165
-0.145
-0.15
-0.17
-0.175
-0.19
-0.165
-0.195
-0.225
-0.24
-0.22
-0.24
-0.24
-0.26
-0.265
-0.285
-0.26
-0.285
-0.27
-0.27
-0.205
-0.16
-0.16
-0.125
-0.005
-0.055
-0.19
-0.27
-0.295
-0.355
-0.375
-0.39
-0.405
-0.42
-0.41
-0.445
-0.335
0.475
2.02
2.765
1.2
-0.425
-0.6
-0.585
-0.435
-0.4
-0.38
-0.39
-0.37
-0.37
-0.335
-0.305
-0.285
-0.27
-0.225
-0.2
-0.14
-0.095
-0.025
0.035
0.14
0.24
0.365
0.48
0.595
0.66
0.72
0.69
0.605
0.405
0.195
-0.025
-0.185
-0.31
-0.355
-0.415
-0.435
-0.465
-0.47
-0.485
-0.475
-0.475
-0.465
-0.47
-0.455
-0.46
-0.455
-0.475
-0.475
-0.495
-0.51
-0.54
-0.54
-0.57
-0.575
-0.605
-0.595
-0.615
-0.61
-0.635
-0.64
-0.645
-0.645
-0.665
-0.655
-0.675
-0.6
-0.54
-0.545
-0.545
-0.425
-0.45
-0.58
-0.665
-0.68
-0.75
-0.775
-0.8
-0.795
-0.81
-0.815
-0.84
-0.78
-0.13
1.41
2.46
1.055
-0.74
-0.99
-0.95
-0.835
-0.795
-0.805
-0.81
-0.79
-0.79
-0.755
-0.745
-0.715
-0.695
-0.655
-0.625
-0.555
-0.51
-0.435
-0.37
-0.26
-0.165
-0.03
0.08
0.225
0.315
0.4
0.405
0.345
0.165
-0.055
-0.3
-0.465
-0.63
-0.71
-0.78
-0.795
-0.835
-0.84
-0.86
-0.85
-0.865
-0.845
-0.845
-0.81
-0.81
-0.77
-0.785
-0.765
-0.785
-0.77
-0.8
-0.79
-0.835
-0.835
-0.86
-0.86
-0.88
-0.865
-0.9
-0.88
-0.905
-0.895
-0.915
-0.88
-0.815
-0.735
-0.775
-0.69
-0.605
-0.645
-0.78
-0.805
-0.845
-0.87
-0.915
-0.9
-0.92
-0.905
-0.915
-0.92
-0.805
0.085
1.625
2.135
0.35
-1.01
-0.975
-0.925
-0.815
-0.775
-0.79
-0.76
-0.765
-0.72
-0.715
-0.67
-0.655
-0.595
-0.57
-0.5
-0.465
-0.395
-0.34
-0.24
-0.145
-0.025
0.09
0.23
0.335
0.445
0.495
0.51
0.405
0.235
-0.005
-0.2
-0.365
-0.465
-0.545
-0.575
-0.6
-0.6
-0.615
-0.605
-0.62
-0.595
-0.6
-0.585
-0.575
-0.55
-0.555
-0.535
-0.55
-0.54
-0.555
-0.555
-0.57
-0.57
-0.56
-0.555
-0.56
-0.575
-0.56
-0.56
-0.56
-0.56
-0.555
-0.525
-0.445
-0.39
-0.4
-0.315
-0.215
-0.255
-0.395
-0.44
-0.46
-0.505
-0.53
-0.535
-0.535
-0.52
-0.51
-0.515
-0.365
0.535
2.0
2.395
0.745
-0.54
-0.575
-0.54
-0.395
-0.37
-0.39
-0.365
-0.34
-0.32
-0.285
-0.265
-0.225
-0.185
-0.145
-0.11
-0.045
0.025
0.095
0.17
0.285
0.425
0.565
0.675
0.815
0.91
0.975
0.97
0.87
0.675
0.45
0.245
0.1
-0.02
-0.08
-0.11
-0.13
-0.155
-0.145
-0.145
-0.15
-0.145
-0.12
-0.13
-0.125
-0.11
-0.08
-0.105
-0.1
-0.105
-0.1
-0.085
-0.085
-0.11
-0.11
-0.115
-0.125
-0.14
-0.11
-0.105
-0.115
-0.075
0.025
0.015
-0.015
0.105
0.24
0.115
-0.035
-0.06
-0.08
-0.125
-0.115
-0.165
-0.2
-0.2
-0.17
-0.155
0.225
1.415
2.645
2.105
0.54
-0.295
-0.36
-0.27
-0.125
-0.095
-0.055
-0.07
-0.075
-0.065
-0.025
-0.015
0.055
0.075
0.115
0.135
0.185
0.235
0.31
0.37
0.495
0.61
0.74
0.85
0.955
1.01
1.025
0.945
0.765
0.51
0.29
0.115
-0.01
-0.095
-0.12
-0.165
-0.175
-0.2
-0.185
-0.2
-0.21
-0.195
-0.185
-0.215
-0.205
-0.24
-0.23
-0.24
-0.255
-0.3
-0.28
-0.305
-0.315
-0.33
-0.355
-0.365
-0.345
-0.37
-0.325
-0.295
-0.3
-0.315
-0.315
-0.265
-0.215
-0.275
-0.21
-0.11
-0.18
-0.325
-0.37
-0.425
-0.505
-0.545
-0.545
-0.56
-0.575
-0.61
-0.645
-0.4
0.835
2.49
2.535
0.49
-0.825
-0.765
-0.67
-0.54
-0.505
-0.505
-0.47
-0.455
-0.45
-0.42
-0.36
-0.35
-0.305
-0.285
-0.2
-0.155
-0.1
-0.01
0.105
0.215
0.365
0.51
0.64
0.775
0.89
0.915
0.865
0.7
0.46
0.175
-0.005
-0.155
-0.27
-0.325
-0.345
-0.365
-0.375
-0.405
-0.37
-0.37
-0.38
-0.375
-0.36
-0.35
-0.33
-0.325
-0.3
-0.3
-0.295
-0.285
-0.3
-0.315
-0.32
-0.33
-0.325
-0.335
-0.335
-0.32
-0.275
-0.205
-0.19
-0.18
-0.07
-0.03
-0.14
-0.23
-0.235
-0.275
-0.32
-0.32
-0.295
-0.29
-0.29
-0.3
-0.22
0.555
2.26
3.395
1.75
-0.195
-0.395
-0.31
-0.17
-0.1
-0.085
-0.065
-0.05
-0.025
0.0
0.03
0.055
0.11
0.155
0.205
0.265
0.335
0.425
0.52
0.63
0.77
0.93
1.075
1.21
1.33
1.405
1.41
1.285
1.08
0.825
0.6
0.43
0.3
0.24
0.22
0.21
0.19
0.18
0.165
0.165
0.165
0.175
0.18
0.2
0.215
0.225
0.235
0.255
0.27
0.265
0.255
0.25
0.24
0.235
0.22
0.22
0.21
0.215
0.265
0.355
0.37
0.355
0.47
0.54
0.41
0.335
0.335
0.29
0.27
0.28
0.255
0.23
0.215
0.205
0.24
0.905
2.48
3.625
2.135
0.25
0.04
0.165
0.27
0.31
0.295
0.315
0.325
0.34
0.355
0.39
0.425
0.46
0.5
0.535
0.585
0.635
0.71
0.79
0.895
1.01
1.145
1.28
1.405
1.5
1.57
1.565
1.455
1.245
0.99
0.75
0.585
0.455
0.4
0.355
0.325
0.31
0.29
0.275
0.265
0.255
0.24
0.24
0.245
0.255
0.26
0.26
0.25
0.25
0.25
0.24
0.225
0.215
0.205
0.195
0.19
0.215
0.28
0.305
0.285
0.365
0.455
0.355
0.24
0.215
0.175
0.105
0.095
0.095
0.095
0.08
0.055
0.08
0.515
1.825
3.13
2.3
0.475
-0.155
-0.065
0.01
0.065
0.055
0.045
0.05
0.09
0.095
0.08
0.115
0.155
0.17
0.2
0.25
0.285
0.355
0.45
0.545
0.65
0.78
0.925
1.065
1.2
1.275
1.255
1.115
0.88
0.625
0.435
0.285
0.135
0.08
0.08
0.055
0.015
-0.015
-0.03
-0.075
-0.105
-0.115
-0.1
-0.095
-0.07
-0.035
-0.055
-0.07
-0.06
-0.08
-0.11
-0.135
-0.155
-0.18
-0.155
-0.115
-0.075
-0.065
-0.085
0.015
0.035
-0.11
-0.195
-0.22
-0.265
-0.295
-0.315
-0.325
-0.345
-0.345
-0.395
-0.195
0.895
2.5
2.81
0.79
-0.73
-0.65
-0.51
-0.37
-0.34
-0.325
-0.315
-0.325
-0.33
-0.29
-0.27
-0.205
-0.185
-0.17
-0.11
-0.025
0.03
0.055
0.195
0.325
0.455
0.6
0.74
0.89
0.955
0.96
0.85
0.64
0.37
0.105
-0.11
-0.23
-0.325
-0.375
-0.39
-0.415
-0.435
-0.435
-0.445
-0.455
-0.455
-0.455
-0.455
-0.46
-0.465
-0.46
-0.445
-0.455
-0.465
-0.46
-0.475
-0.49
-0.51
-0.5
-0.44
-0.395
-0.42
-0.365
-0.275
-0.315
-0.46
-0.495
-0.545
-0.595
-0.63
-0.635
-0.645
-0.65
-0.65
-0.685
-0.27
1.215
2.85
2.215
-0.05
-1.01
-0.825
-0.71
-0.6
-0.595
-0.57
-0.56
-0.545
-0.525
-0.515
-0.485
-0.455
-0.41
-0.365
-0.315
-0.265
-0.2
-0.115
-0.005
0.135
0.285
0.43
0.575
0.69
0.755
0.75
0.625
0.385
0.105
-0.13
-0.29
-0.41
-0.48
-0.525
-0.54
-0.545
-0.575
-0.59
-0.6
-0.61
-0.615
-0.62
-0.61
-0.61
-0.595
-0.58
-0.575
-0.585
-0.585
-0.595
-0.605
-0.615
-0.62
-0.605
-0.545
-0.44
-0.425
-0.49
-0.425
-0.365
-0.48
-0.59
-0.61
-0.655
-0.705
-0.705
-0.725
-0.735
-0.74
-0.755
-0.71
-0.005
1.64
2.805
1.225
-0.735
-0.93
-0.795
-0.685
-0.635
-0.645
-0.625
-0.625
-0.61
-0.59
-0.57
-0.545
-0.52
-0.47
-0.425
-0.365
-0.305
-0.21
-0.115
0.005
0.135
0.275
0.435
0.59
0.69
0.715
0.66
0.49
0.24
-0.025
-0.21
-0.35
-0.43
-0.495
-0.535
-0.565
-0.585
-0.6
-0.605
-0.605
-0.61
-0.615
-0.605
-0.595
-0.585
-0.575
-0.565
-0.56
-0.56
-0.575
-0.575
-0.58
-0.575
-0.585
-0.565
-0.51
-0.47
-0.51
-0.425
-0.33
-0.415
-0.545
-0.56
-0.595
-0.665
-0.685
-0.685
-0.685
-0.69
-0.695
-0.715
-0.36
0.955
2.48
1.93
-0.19
-0.985
-0.745
-0.66
-0.58
-0.595
-0.57
-0.56
-0.53
-0.51
-0.495
-0.455
-0.425
-0.39
-0.35
-0.3
-0.255
-0.185
-0.115
0.005
0.125
0.27
0.405
0.53
0.64
0.73
0.745
0.63
0.425
0.175
-0.07
-0.24
-0.32
-0.365
-0.41
-0.425
-0.465
-0.485
-0.485
-0.505
-0.495
-0.52
-0.525
-0.5
-0.5
-0.475
-0.46
-0.455
-0.45
-0.455
-0.44
-0.435
-0.46
-0.47
-0.455
-0.375
-0.285
-0.305
-0.295
-0.185
-0.22
-0.385
-0.455
-0.47
-0.505
-0.525
-0.525
-0.525
-0.52
-0.535
-0.57
-0.325
0.8
2.41
2.495
0.49
-0.815
-0.725
-0.635
-0.51
-0.49
-0.475
-0.46
-0.45
-0.4
-0.385
-0.36
-0.335
-0.305
-0.25
-0.2
-0.17
-0.09
0.015
0.09
0.195
0.35
0.475
0.625
0.755
0.835
0.82
0.725
0.49
0.245
0.01
-0.13
-0.25
-0.325
-0.37
-0.38
-0.415
-0.395
-0.4
-0.43
-0.43
-0.415
-0.415
-0.395
-0.425
-0.415
-0.41
-0.39
-0.375
-0.395
-0.39
-0.41
-0.425
-0.395
-0.445
-0.405
-0.315
-0.32
-0.355
-0.235
-0.185
-0.305
-0.425
-0.435
-0.475
-0.525
-0.535
-0.53
-0.555
-0.53
-0.56
-0.485
0.29
2.015
3.145
1.435
-0.625
-0.815
-0.675
-0.5
-0.455
-0.44
-0.43
-0.395
-0.4
-0.375
-0.355
-0.315
-0.28
-0.235
-0.19
-0.125
-0.08
-0.005
0.09
0.205
0.33
0.49
0.63
0.765
0.85
0.895
0.825
0.655
0.4
0.16
-0.055
-0.19
-0.28
-0.315
-0.345
-0.355
-0.39
-0.395
-0.415
-0.415
-0.435
-0.425
-0.43
-0.41
-0.395
-0.38
-0.39
-0.375
-0.375
-0.375
-0.395
-0.395
-0.415
-0.405
-0.435
-0.415
-0.435
-0.42
-0.375
-0.285
-0.285
-0.27
-0.185
-0.15
-0.295
-0.35
-0.37
-0.41
-0.475
-0.47
-0.47
-0.47
-0.485
-0.505
-0.36
0.645
2.45
3.235
1.125
-0.705
-0.62
-0.51
-0.4
-0.365
-0.37
-0.35
-0.35
-0.305
-0.295
-0.26
-0.24
-0.2
-0.17
-0.11
-0.06
0.02
0.075
0.195
0.29
0.425
0.565
0.72
0.815
0.915
0.955
0.925
0.75
0.52
0.255
0.065
-0.095
-0.165
-0.22
-0.235
-0.265
-0.27
-0.295
-0.285
-0.31
-0.32
-0.335
-0.31
-0.315
-0.295
-0.3
-0.28
-0.3
-0.285
-0.305
-0.285
-0.315
-0.315
-0.33
-0.33
-0.35
-0.34
-0.355
-0.345
-0.305
-0.215
-0.205
-0.215
-0.14
-0.055
-0.19
-0.29
-0.305
-0.335
-0.415
-0.4
-0.43
-0.42
-0.43
-0.435
-0.44
0.13
1.635
2.97
1.73
-0.24
-0.645
-0.475
-0.39
-0.305
-0.285
-0.24
-0.275
-0.265
-0.275
-0.235
-0.225
-0.18
-0.165
-0.095
-0.06
0.01
0.065
0.165
0.25
0.375
0.495
0.65
0.74
0.85
0.885
0.9
0.775
0.59
0.335
0.155
-0.005
-0.08
-0.17
-0.205
-0.25
-0.25
-0.28
-0.265
-0.295
-0.27
-0.29
-0.27
-0.28
-0.24
-0.255
-0.225
-0.24
-0.225
-0.25
-0.245
-0.275
-0.265
-0.29
-0.275
-0.3
-0.305
-0.325
-0.325
-0.34
-0.285
-0.21
-0.18
-0.205
-0.07
-0.025
-0.14
-0.245
-0.25
-0.325
-0.365
-0.38
-0.37
-0.385
-0.375
-0.39
-0.355
0.22
1.71
2.8
1.435
-0.365
-0.555
-0.445
-0.33
-0.29
-0.295
-0.28
-0.255
-0.25
-0.225
-0.205
-0.17
-0.155
-0.105
-0.07
-0.015
0.04
0.11
0.18
0.285
0.385
0.515
0.635
0.745
0.83
0.895
0.88
0.775
0.58
0.365
0.17
0.02
-0.07
-0.13
-0.17
-0.19
-0.205
-0.225
-0.225
-0.24
-0.225
-0.225
-0.215
-0.205
-0.195
-0.19
-0.185
-0.2
-0.205
-0.215
-0.22
-0.235
-0.24
-0.245
-0.24
-0.26
-0.265
-0.275
-0.275
-0.255
-0.17
-0.125
-0.14
-0.06
0.045
-0.045
-0.165
-0.21
-0.25
-0.32
-0.325
-0.335
-0.325
-0.335
-0.335
-0.375
-0.055
1.115
2.48
1.975
0.165
-0.555
-0.415
-0.345
-0.24
-0.25
-0.24
-0.235
-0.21
-0.19
-0.175
-0.155
-0.105
-0.09
-0.05
-0.015
0.06
0.105
0.19
0.28
0.38
0.48
0.61
0.72
0.805
0.865
0.895
0.815
0.655
0.445
0.26
0.095
-0.01
-0.085
-0.125
-0.16
-0.165
-0.18
-0.175
-0.19
-0.185
-0.185
-0.165
-0.165
-0.145
-0.155
-0.145
-0.165
-0.155
-0.17
-0.165
-0.185
-0.185
-0.205
-0.195
-0.205
-0.2
-0.205
-0.17
-0.105
-0.065
-0.095
0.015
0.095
-0.01
-0.145
-0.165
-0.225
-0.265
-0.27
-0.28
-0.295
-0.28
-0.295
-0.27
0.195
1.52
2.585
1.565
0.03
-0.345
-0.38
-0.285
-0.21
-0.21
-0.205
-0.19
-0.175
-0.145
-0.135
-0.1
-0.075
-0.025
-0.005
0.055
0.1
0.165
0.24
0.335
0.425
0.535
0.635
0.75
0.815
0.88
0.855
0.74
0.56
0.37
0.185
0.06
-0.03
-0.075
-0.125
-0.135
-0.15
-0.145
-0.15
-0.14
-0.14
-0.125
-0.125
-0.115
-0.125
-0.11
-0.13
-0.13
-0.15
-0.155
-0.175
-0.175
-0.19
-0.195
-0.205
-0.195
-0.205
-0.21
-0.185
-0.09
-0.065
-0.08
0.005
0.09
-0.015
-0.115
-0.155
-0.185
-0.25
-0.255
-0.27
-0.265
-0.28
-0.27
-0.295
0.145
1.46
2.69
1.7
-0.01
-0.435
-0.35
-0.275
-0.185
-0.205
-0.18
-0.185
-0.165
-0.155
-0.12
-0.09
-0.06
-0.03
0.005
0.045
0.1
0.165
0.24
0.33
0.43
0.535
0.645
0.745
0.835
0.88
0.88
0.795
0.63
0.425
0.24
0.095
-0.005
-0.075
-0.115
-0.135
-0.155
-0.15
-0.145
-0.145
-0.145
-0.135
-0.12
-0.115
-0.11
-0.125
-0.11
-0.125
-0.13
-0.15
-0.15
-0.175
-0.185
-0.19
-0.195
-0.205
-0.21
-0.215
-0.21
-0.155
-0.07
-0.08
-0.055
0.065
0.075
-0.045
-0.105
-0.145
-0.215
-0.255
-0.26
-0.28
-0.275
-0.275
-0.29
-0.205
0.515
1.95
2.55
1.01
-0.39
-0.42
-0.375
-0.255
-0.205
-0.22
-0.205
-0.185
-0.17
-0.15
-0.135
-0.1
-0.055
-0.03
0.015
0.065
0.115
0.18
0.265
0.36
0.455
0.56
0.655
0.745
0.835
0.86
0.83
0.73
0.54
0.335
0.18
0.055
-0.045
-0.08
-0.125
-0.145
-0.145
-0.165
-0.18
-0.16
-0.155
-0.15
-0.145
-0.145
-0.145
-0.15
-0.155
-0.155
-0.165
-0.185
-0.19
-0.2
-0.21
-0.21
-0.215
-0.215
-0.225
-0.24
-0.235
-0.24
-0.21
-0.145
-0.115
-0.135
-0.06
0.08
0.03
-0.135
-0.21
-0.245
-0.295
-0.295
-0.305
-0.3
-0.3
-0.315
-0.325
-0.085
0.87
2.2
2.23
0.685
-0.37
-0.47
-0.455
-0.3
-0.255
-0.25
-0.255
-0.24
-0.235
-0.2
-0.16
-0.135
-0.11
-0.075
-0.04
0.015
0.07
0.13
0.215
0.3
0.405
0.52
0.625
0.72
0.76
0.785
0.755
0.605
0.405
0.2
0.03
-0.06
-0.155
-0.21
-0.23
-0.235
-0.24
-0.235
-0.235
-0.255
-0.255
-0.25
-0.28
-0.275
-0.27
-0.305
-0.315
-0.345
-0.37
-0.355
-0.375
-0.41
-0.43
-0.425
-0.45
-0.455
-0.46
-0.48
-0.485
-0.505
-0.505
-0.52
-0.51
-0.425
-0.415
-0.45
-0.325
-0.235
-0.365
-0.525
-0.56
-0.6
-0.645
-0.66
-0.68
-0.7
-0.695
-0.72
-0.735
-0.385
0.885
2.29
1.77
-0.04
-0.93
-0.92
-0.83
-0.715
-0.72
-0.71
-0.685
-0.66
-0.64
-0.625
-0.585
-0.545
-0.505
-0.495
-0.485
-0.425
-0.365
-0.29
-0.205
-0.095
0.015
0.12
0.22
0.3
0.35
0.34
0.26
0.105
-0.09
-0.31
-0.48
-0.585
-0.66
-0.71
-0.72
-0.73
-0.725
-0.72
-0.715
-0.69
-0.69
-0.685
-0.675
-0.66
-0.655
-0.66
-0.67
-0.675
-0.695
-0.7
-0.705
-0.71
-0.715
-0.71
-0.72
-0.72
-0.705
-0.715
-0.71
-0.705
-0.69
-0.685
-0.68
-0.68
-0.68
-0.63
-0.525
-0.515
-0.515
-0.365
-0.315
-0.465
-0.565
-0.575
-0.615
-0.65
-0.645
-0.64
-0.64
-0.635
-0.635
-0.615
0.05
1.64
2.815
1.435
-0.395
-0.71
-0.65
-0.525
-0.45
-0.455
-0.435
-0.41
-0.385
-0.355
-0.32
-0.285
-0.24
-0.195
-0.14
-0.08
-0.015
0.065
0.155
0.26
0.375
0.495
0.625
0.74
0.84
0.9
0.895
0.835
0.69
0.475
0.27
0.11
-0.005
-0.07
-0.11
-0.135
-0.145
-0.14
-0.13
-0.12
-0.105
-0.08
-0.065
-0.055
-0.04
-0.04
-0.03
-0.03
-0.035
-0.045
-0.055
-0.06
-0.065
-0.07
-0.06
-0.07
-0.065
-0.065
-0.045
-0.04
-0.025
-0.01
-0.01
-0.02
-0.025
-0.02
-0.025
-0.005
0.055
0.145
0.145
0.165
0.3
0.32
0.17
0.08
0.085
0.035
-0.01
-0.005
-0.005
-0.005
0.0
-0.015
0.04
0.74
2.28
3.26
1.735
0.025
-0.115
-0.035
0.09
0.145
0.14
0.15
0.17
0.195
0.215
0.25
0.285
0.325
0.355
0.4
0.45
0.515
0.575
0.66
0.755
0.855
0.975
1.095
1.2
1.275
1.335
1.34
1.27
1.13
0.915
0.705
0.53
0.405
0.325
0.275
0.25
0.24
0.225
0.225
0.23
0.24
0.24
0.245
0.25
0.26
0.26
0.255
0.235
0.235
0.22
0.21
0.195
0.185
0.17
0.155
0.145
0.15
0.135
0.13
0.125
0.12
0.11
0.11
0.105
0.1
0.095
0.09
0.09
0.135
0.215
0.23
0.215
0.33
0.39
0.25
0.125
0.11
0.065
0.01
-0.01
-0.02
-0.035
-0.04
-0.05
-0.055
0.435
1.795
2.945
1.8
0.09
-0.23
-0.14
-0.06
0.005
-0.005
0.005
0.015
0.03
0.04
0.065
0.085
0.11
0.145
0.185
0.225
0.28
0.335
0.405
0.475
0.575
0.67
0.77
0.86
0.945
0.995
1.0
0.935
0.805
0.605
0.41
0.24
0.115
0.03
-0.01
-0.06
-0.08
-0.075
-0.075
-0.08
-0.065
-0.07
-0.07
-0.07
-0.06
-0.075
-0.08
-0.08
-0.09
-0.125
-0.125
-0.14
-0.15
-0.175
-0.18
-0.195
-0.2
-0.2
-0.205
-0.21
-0.215
-0.24
-0.235
-0.24
-0.24
-0.26
-0.235
-0.245
-0.225
-0.14
-0.115
-0.145
-0.02
0.045
-0.08
-0.195
-0.21
-0.27
-0.305
-0.31
-0.31
-0.335
-0.335
-0.335
-0.285
0.205
1.5
2.505
1.545
0.035
-0.43
-0.49
-0.38
-0.295
-0.275
-0.3
-0.265
-0.255
-0.235
-0.21
-0.17
-0.155
-0.115
-0.09
-0.04
0.005
0.08
0.135
0.22
0.3
0.415
0.525
0.63
0.705
0.755
0.755
0.705
0.575
0.405
0.205
0.05
-0.075
-0.15
-0.205
-0.205
-0.215
-0.215
-0.22
-0.205
-0.2
-0.195
-0.195
-0.195
-0.22
-0.21
-0.225
-0.23
-0.25
-0.255
-0.28
-0.275
-0.3
-0.295
-0.31
-0.305
-0.325
-0.325
-0.335
-0.325
-0.345
-0.33
-0.335
-0.34
-0.355
-0.345
-0.345
-0.265
-0.215
-0.22
-0.175
-0.055
-0.12
-0.24
-0.305
-0.335
-0.395
-0.4
-0.415
-0.41
-0.435
-0.43
-0.465
-0.305
0.595
2.07
2.415
0.825
-0.415
-0.505
-0.525
-0.375
-0.365
-0.36
-0.355
-0.335
-0.325
-0.295
-0.275
-0.23
-0.22
-0.17
-0.14
-0.08
-0.045
0.03
0.1
0.215
0.3
0.415
0.51
0.61
0.67
0.71
0.68
0.59
0.41
0.24
0.035
-0.105
-0.21
-0.27
-0.325
-0.33
-0.345
-0.335
-0.35
-0.33
-0.34
-0.32
-0.325
-0.31
-0.32
-0.315
-0.34
-0.335
-0.355
-0.365
-0.385
-0.39
-0.41
-0.4
-0.435
-0.425
-0.435
-0.425
-0.44
-0.425
-0.445
-0.435
-0.455
-0.435
-0.45
-0.435
-0.45
-0.435
-0.4
-0.305
-0.32
-0.315
-0.205
-0.14
-0.285
-0.37
-0.4
-0.435
-0.5
-0.495
-0.51
-0.51
-0.51
-0.515
-0.51
0.03
1.425
2.575
1.405
-0.265
-0.615
-0.575
-0.485
-0.4
-0.43
-0.405
-0.405
-0.385
-0.375
-0.34
-0.33
-0.285
-0.26
-0.19
-0.165
-0.105
-0.05
0.035
0.115
0.225
0.315
0.435
0.53
0.63
0.67
0.705
0.645
0.52
0.305
0.115
-0.065
-0.175
-0.275
-0.325
-0.37
-0.375
-0.39
-0.375
-0.37
-0.355
-0.365
-0.34
-0.35
-0.33
-0.345
-0.335
-0.355
-0.345
-0.375
-0.375
-0.395
-0.4
-0.425
-0.42
-0.43
-0.43
-0.45
-0.445
-0.46
-0.445
-0.46
-0.45
-0.455
-0.45
-0.46
-0.445
-0.415
-0.315
-0.32
-0.315
-0.215
-0.145
-0.285
-0.365
-0.4
-0.435
-0.49
-0.475
-0.505
-0.495
-0.505
-0.505
-0.505
-0.015
1.305
2.4
1.315
-0.265
-0.605
-0.57
-0.49
-0.41
-0.435
-0.42
-0.41
-0.385
-0.38
-0.335
-0.32
-0.275
-0.255
-0.205
-0.17
-0.1
-0.045
0.035
0.11
0.215
0.305
0.425
0.52
0.62
0.665
0.685
0.625
0.51
0.295
0.115
-0.055
-0.165
-0.26
-0.295
-0.35
-0.345
-0.365
-0.345
-0.355
-0.33
-0.345
-0.315
-0.33
-0.315
-0.325
-0.305
-0.34
-0.345
-0.365
-0.355
-0.38
-0.38
-0.4
-0.395
-0.415
-0.41
-0.425
-0.4
-0.42
-0.42
-0.435
-0.425
-0.435
-0.42
-0.43
-0.415
-0.415
-0.325
-0.295
-0.305
-0.235
-0.11
-0.19
-0.31
-0.375
-0.395
-0.46
-0.45
-0.475
-0.47
-0.495
-0.475
-0.515
-0.285
0.705
2.09
2.005
0.34
-0.63
-0.56
-0.53
-0.38
-0.365
-0.29
-0.29
-0.345
-0.375
-0.355
-0.34
-0.31
-0.29
-0.245
-0.215
-0.15
-0.11
-0.055
0.01
0.13
0.235
0.355
0.455
0.545
0.595
0.645
0.615
0.525
0.345
0.165
-0.02
-0.15
-0.25
-0.295
-0.34
-0.355
-0.365
-0.345
-0.345
-0.32
-0.32
-0.315
-0.315
-0.3
-0.295
-0.28
-0.305
-0.325
-0.33
-0.33
-0.355
-0.355
-0.355
-0.36
-0.375
-0.375
-0.385
-0.37
-0.365
-0.36
-0.355
-0.325
-0.32
-0.325
-0.35
-0.355
-0.33
-0.265
-0.25
-0.265
-0.145
-0.075
-0.195
-0.31
-0.335
-0.39
-0.425
-0.435
-0.44
-0.445
-0.45
-0.45
-0.435
-0.03
1.16
2.295
1.585
0.08
-0.495
-0.565
-0.49
-0.385
-0.38
-0.375
-0.355
-0.33
-0.305
-0.29
-0.26
-0.225
-0.185
-0.145
-0.08
-0.04
0.04
0.11
0.185
0.275
0.39
0.485
0.585
0.67
0.75
0.745
0.7
0.565
0.38
0.17
0.01
-0.115
-0.185
-0.24
-0.27
-0.28
-0.28
-0.275
-0.27
-0.275
-0.26
-0.265
-0.255
-0.265
-0.265
-0.285
-0.29
-0.31
-0.315
-0.335
-0.345
-0.355
-0.355
-0.37
-0.37
-0.385
-0.385
-0.395
-0.385
-0.39
-0.395
-0.405
-0.395
-0.39
-0.33
-0.255
-0.26
-0.255
-0.13
-0.115
-0.245
-0.33
-0.36
-0.415
-0.44
-0.45
-0.45
-0.46
-0.445
-0.475
-0.405
0.265
1.705
2.495
1.14
-0.325
-0.505
-0.53
-0.415
-0.37
-0.375
-0.37
-0.345
-0.325
-0.305
-0.285
-0.245
-0.225
-0.18
-0.145
-0.08
-0.035
0.045
0.115
0.225
0.325
0.445
0.545
0.655
0.735
0.785
0.77
0.695
0.515
0.31
0.115
-0.03
-0.145
-0.205
-0.255
-0.28
-0.305
-0.29
-0.285
-0.28
-0.275
-0.26
-0.255
-0.25
-0.25
-0.25
-0.255
-0.26
-0.275
-0.27
-0.285
-0.295
-0.31
-0.32
-0.33
-0.325
-0.335
-0.33
-0.335
-0.34
-0.345
-0.335
-0.34
-0.33
-0.33
-0.26
-0.18
-0.185
-0.17
-0.05
-0.045
-0.17
-0.255
-0.28
-0.33
-0.36
-0.36
-0.36
-0.375
-0.37
-0.385
-0.31
0.36
1.805
2.6
1.17
-0.345
-0.46
-0.44
-0.32
-0.285
-0.285
-0.28
-0.255
-0.245
-0.225
-0.205
-0.165
-0.135
-0.09
-0.055
0.0
0.05
0.125
0.195
0.295
0.4
0.525
0.63
0.745
0.815
0.88
0.88
0.805
0.63
0.42
0.21
0.065
-0.05
-0.105
-0.15
-0.175
-0.205
-0.2
-0.21
-0.2
-0.2
-0.185
-0.185
-0.185
-0.175
-0.165
-0.175
-0.18
-0.19
-0.195
-0.21
-0.21
-0.23
-0.23
-0.25
-0.24
-0.255
-0.26
-0.265
-0.265
-0.26
-0.26
-0.265
-0.265
-0.27
-0.195
-0.135
-0.135
-0.11
0.01
-0.01
-0.14
-0.215
-0.24
-0.3
-0.31
-0.325
-0.325
-0.335
-0.345
-0.365
-0.28
0.43
1.84
2.495
1.0
-0.4
-0.46
-0.44
-0.31
-0.275
-0.28
-0.27
-0.255
-0.235
-0.21
-0.195
-0.16
-0.13
-0.09
-0.06
-0.01
0.05
0.11
0.18
0.28
0.375
0.49
0.6
0.71
0.775
0.83
0.815
0.725
0.545
0.34
0.145
0.0
-0.11
-0.17
-0.215
-0.24
-0.26
-0.255
-0.26
-0.26
-0.265
-0.255
-0.25
-0.235
-0.24
-0.25
-0.24
-0.26
-0.275
-0.28
-0.295
-0.305
-0.32
-0.325
-0.34
-0.345
-0.35
-0.345
-0.35
-0.345
-0.35
-0.355
-0.355
-0.36
-0.36
-0.33
-0.255
-0.21
-0.24
-0.15
-0.05
-0.135
-0.25
-0.295
-0.345
-0.39
-0.395
-0.41
-0.415
-0.415
-0.41
-0.42
-0.215
0.745
2.125
2.175
0.56
-0.475
-0.5
-0.47
-0.33
-0.31
-0.325
-0.315
-0.29
-0.27
-0.265
-0.245
-0.2
-0.17
-0.13
-0.08
-0.04
0.015
0.09
0.17
0.265
0.375
0.505
0.625
0.725
0.795
0.835
0.81
0.695
0.495
0.285
0.095
-0.035
-0.13
-0.19
-0.23
-0.25
-0.255
-0.255
-0.24
-0.25
-0.24
-0.225
-0.22
-0.225
-0.23
-0.225
-0.225
-0.225
-0.24
-0.25
-0.27
-0.27
-0.275
-0.285
-0.29
-0.295
-0.3
-0.305
-0.305
-0.3
-0.305
-0.315
-0.315
-0.29
-0.225
-0.17
-0.195
-0.11
-0.005
-0.065
-0.195
-0.255
-0.29
-0.345
-0.36
-0.365
-0.375
-0.38
-0.375
-0.385
-0.255
0.575
1.985
2.415
0.915
-0.34
-0.455
-0.46
-0.325
-0.285
-0.29
-0.28
-0.27
-0.24
-0.23
-0.2
-0.165
-0.13
-0.09
-0.045
0.005
0.055
0.125
0.21
0.3
0.42
0.535
0.65
0.75
0.815
0.855
0.83
0.725
0.54
0.32
0.13
-0.005
-0.09
-0.155
-0.175
-0.205
-0.21
-0.215
-0.21
-0.205
-0.205
-0.195
-0.19
-0.185
-0.185
-0.185
-0.195
-0.2
-0.215
-0.23
-0.245
-0.255
-0.265
-0.265
-0.275
-0.275
-0.29
-0.295
-0.3
-0.295
-0.295
-0.305
-0.295
-0.305
-0.3
-0.31
-0.29
-0.21
-0.165
-0.19
-0.105
-0.01
-0.09
-0.215
-0.255
-0.295
-0.345
-0.365
-0.375
-0.39
-0.395
-0.39
-0.41
-0.26
0.635
2.135
2.49
0.805
-0.47
-0.49
-0.465
-0.335
-0.325
-0.32
-0.295
-0.285
-0.275
-0.24
-0.21
-0.185
-0.165
-0.125
-0.09
-0.055
0.02
0.09
0.175
0.275
0.365
0.485
0.615
0.715
0.8
0.85
0.835
0.735
0.56
0.335
0.13
-0.025
-0.13
-0.195
-0.24
-0.27
-0.295
-0.295
-0.31
-0.31
-0.3
-0.3
-0.305
-0.285
-0.27
-0.27
-0.28
-0.28
-0.285
-0.3
-0.31
-0.325
-0.34
-0.35
-0.365
-0.365
-0.37
-0.385
-0.38
-0.385
-0.38
-0.38
-0.385
-0.375
-0.385
-0.375
-0.32
-0.25
-0.26
-0.225
-0.1
-0.105
-0.245
-0.325
-0.355
-0.4
-0.435
-0.435
-0.44
-0.45
-0.46
-0.46
-0.435
0.09
1.435
2.46
1.39
-0.135
-0.515
-0.55
-0.455
-0.375
-0.375
-0.365
-0.35
-0.335
-0.31
-0.285
-0.245
-0.22
-0.185
-0.145
-0.09
-0.03
0.035
0.105
0.19
0.305
0.41
0.525
0.63
0.73
0.78
0.785
0.72
0.565
0.35
0.145
-0.02
-0.13
-0.2
-0.255
-0.285
-0.295
-0.295
-0.295
-0.295
-0.295
-0.29
-0.275
-0.28
-0.265
-0.265
-0.265
-0.275
-0.29
-0.295
-0.305
-0.315
-0.325
-0.335
-0.34
-0.345
-0.35
-0.355
-0.365
-0.365
-0.365
-0.38
-0.375
-0.375
-0.37
-0.375
-0.375
-0.375
-0.34
-0.255
-0.225
-0.25
-0.135
-0.05
-0.165
-0.27
-0.305
-0.345
-0.385
-0.395
-0.4
-0.405
-0.4
-0.39
-0.435
-0.215
0.845
2.31
2.26
0.475
-0.545
-0.49
-0.45
-0.32
-0.3
-0.3
-0.28
-0.27
-0.245
-0.22
-0.185
-0.155
-0.125
-0.08
-0.045
0.005
0.065
0.145
0.215
0.31
0.425
0.55
0.665
0.765
0.85
0.885
0.855
0.765
0.585
0.37
0.175
0.025
-0.08
-0.15
-0.2
-0.21
-0.225
-0.225
-0.23
-0.225
-0.225
-0.22
-0.215
-0.205
-0.195
-0.2
-0.21
-0.21
-0.22
-0.23
-0.24
-0.255
-0.265
-0.265
-0.27
-0.275
-0.275
-0.275
-0.285
-0.28
-0.28
-0.28
-0.295
-0.295
-0.29
-0.295
-0.305
-0.295
-0.28
-0.195
-0.15
-0.175
-0.09
0.015
-0.07
-0.195
-0.245
-0.275
-0.33
-0.335
-0.34
-0.34
-0.35
-0.345
-0.37
-0.23
0.645
2.1
2.425
0.76
-0.465
-0.435
-0.4
-0.275
-0.24
-0.25
-0.235
-0.215
-0.195
-0.17
-0.14
-0.12
-0.08
-0.045
-0.01
0.045
0.105
0.175
0.245
0.345
0.445
0.56
0.67
0.775
0.855
0.905
0.905
0.825
0.66
0.45
0.245
0.085
-0.025
-0.1
-0.15
-0.175
-0.185
-0.195
-0.185
-0.19
-0.18
-0.185
-0.17
-0.165
-0.165
-0.175
-0.18
-0.195
-0.195
-0.205
-0.215
-0.23
-0.235
-0.245
-0.245
-0.25
-0.255
-0.26
-0.27
-0.28
-0.275
-0.275
-0.275
-0.285
-0.285
-0.285
-0.28
-0.24
-0.155
-0.14
-0.165
-0.05
0.035
-0.095
-0.2
-0.235
-0.275
-0.325
-0.325
-0.34
-0.35
-0.35
-0.34
-0.36
-0.055
1.075
2.37
1.86
0.205
-0.49
-0.42
-0.37
-0.26
-0.255
-0.24
-0.23
-0.205
-0.205
-0.17
-0.14
-0.1
-0.08
-0.035
-0.005
0.055
0.11
0.19
0.265
0.36
0.455
0.58
0.69
0.795
0.855
0.89
0.855
0.75
0.565
0.365
0.18
0.045
-0.06
-0.115
-0.15
-0.175
-0.175
-0.165
-0.165
-0.16
-0.165
-0.165
-0.17
-0.165
-0.17
-0.165
-0.185
-0.185
-0.2
-0.195
-0.215
-0.225
-0.23
-0.225
-0.235
-0.24
-0.255
-0.25
-0.255
-0.26
-0.265
-0.255
-0.265
-0.255
-0.26
-0.255
-0.225
-0.13
-0.135
-0.135
-0.025
0.055
-0.08
-0.185
-0.215
-0.255
-0.3
-0.305
-0.315
-0.315
-0.325
-0.32
-0.3
0.145
1.36
2.45
1.65
0.175
-0.375
-0.435
-0.375
-0.25
-0.24
-0.235
-0.23
-0.205
-0.185
-0.145
-0.135
-0.09
-0.055
-0.025
0.0
0.095
0.135
0.2
0.28
0.39
0.48
0.605
0.72
0.82
0.88
0.915
0.865
0.745
0.535
0.35
0.175
0.04
-0.055
-0.08
-0.125
-0.14
-0.15
-0.13
-0.145
-0.14
-0.145
-0.13
-0.12
-0.125
-0.13
-0.125
-0.155
-0.155
-0.16
-0.15
-0.175
-0.185
-0.205
-0.2
-0.22
-0.205
-0.2
-0.205
-0.225
-0.225
-0.23
-0.215
-0.225
-0.135
-0.085
-0.095
-0.05
0.08
0.03
-0.105
-0.17
-0.205
-0.26
-0.26
-0.27
-0.27
-0.305
-0.285
-0.305
-0.105
0.795
2.16
2.41
0.935
-0.25
-0.4
-0.44
-0.28
-0.24
-0.23
-0.24
-0.2
-0.19
-0.145
-0.135
-0.105
-0.1
-0.045
0.01
0.04
0.08
0.16
0.25
0.335
0.415
0.575
0.705
0.795
0.865
0.92
0.86
0.765
0.56
0.345
0.16
0.03
-0.085
-0.14
-0.185
-0.19
-0.21
-0.21
-0.2
-0.195
-0.195
-0.195
-0.225
-0.205
-0.22
-0.235
-0.24
-0.235
-0.26
-0.26
-0.28
-0.295
-0.305
-0.29
-0.305
-0.325
-0.345
-0.31
-0.24
-0.115
-0.175
-0.24
-0.285
-0.31
-0.28
-0.2
-0.225
-0.145
-0.045
-0.07
-0.205
-0.275
-0.315
-0.355
-0.375
-0.36
-0.4
-0.415
-0.425
-0.46
-0.25
0.84
2.41
2.71
0.855
-0.54
-0.575
-0.515
-0.395
-0.345
-0.375
-0.39
-0.365
-0.325
-0.325
-0.265
-0.23
-0.2
-0.19
-0.14
-0.125
-0.03
0.045
0.125
0.21
0.33
0.45
0.62
0.73
0.79
0.805
0.795
0.635
0.415
0.145
-0.055
-0.245
-0.34
-0.42
-0.46
-0.515
-0.51
-0.54
-0.54
-0.55
-0.535
-0.56
-0.545
-0.555
-0.555
-0.56
-0.55
-0.585
-0.56
-0.61
-0.605
-0.625
-0.625
-0.67
-0.665
-0.695
-0.69
-0.715
-0.715
-0.705
-0.635
-0.6
-0.605
-0.55
-0.45
-0.555
-0.665
-0.72
-0.745
-0.815
-0.82
-0.855
-0.845
-0.865
-0.855
-0.9
-0.44
0.97
2.505
1.815
-0.22
-1.09
-0.985
-0.91
-0.79
-0.805
-0.775
-0.77
-0.745
-0.74
-0.705
-0.685
-0.625
-0.605
-0.555
-0.525
-0.445
-0.4
-0.31
-0.23
-0.08
0.055
0.205
0.33
0.455
0.515
0.535
0.45
0.3
0.035
-0.21
-0.41
-0.545
-0.63
-0.67
-0.71
-0.715
-0.725
-0.73
-0.745
-0.735
-0.745
-0.715
-0.725
-0.71
-0.71
-0.705
-0.71
-0.695
-0.725
-0.72
-0.735
-0.72
-0.735
-0.74
-0.745
-0.745
-0.745
-0.735
-0.69
-0.605
-0.61
-0.56
-0.47
-0.475
-0.61
-0.66
-0.675
-0.735
-0.785
-0.775
-0.775
-0.77
-0.765
-0.785
-0.575
0.53
2.195
2.43
0.41
-0.89
-0.78
-0.74
-0.62
-0.605
-0.605
-0.59
-0.575
-0.555
-0.515
-0.47
-0.44
-0.4
-0.35
-0.3
-0.235
-0.175
-0.08
0.025
0.135
0.265
0.41
0.545
0.67
0.75
0.8
0.775
0.655
0.455
0.21
-0.005
-0.15
-0.255
-0.31
-0.335
-0.355
-0.365
-0.365
-0.37
-0.37
-0.385
-0.37
-0.36
-0.33
-0.325
-0.31
-0.305
-0.3
-0.295
-0.29
-0.3
-0.295
-0.3
-0.295
-0.305
-0.295
-0.23
-0.165
-0.18
-0.135
-0.025
-0.025
-0.175
-0.23
-0.24
-0.3
-0.335
-0.325
-0.335
-0.335
-0.335
-0.345
-0.205
0.735
2.29
2.66
0.785
-0.525
-0.405
-0.34
-0.23
-0.21
-0.21
-0.19
-0.185
-0.16
-0.145
-0.12
-0.08
-0.035
0.0
0.055
0.11
0.17
0.245
0.345
0.445
0.585
0.7
0.84
0.94
1.03
1.055
1.015
0.855
0.63
0.4
0.21
0.08
0.0
-0.065
-0.08
-0.1
-0.105
-0.125
-0.11
-0.125
-0.12
-0.125
-0.115
-0.11
-0.095
-0.1
-0.085
-0.09
-0.095
-0.11
-0.11
-0.13
-0.12
-0.13
-0.12
-0.11
-0.02
-0.005
-0.015
0.08
0.17
0.045
-0.055
-0.085
-0.125
-0.18
-0.175
-0.195
-0.18
-0.185
-0.185
-0.185
0.26
1.535
2.765
1.89
0.14
-0.395
-0.29
-0.21
-0.12
-0.145
-0.135
-0.125
-0.095
-0.095
-0.07
-0.055
-0.025
0.025
0.085
0.12
0.17
0.23
0.32
0.4
0.525
0.66
0.8
0.925
1.015
1.05
1.075
0.955
0.75
0.52
0.325
0.145
0.055
-0.01
-0.035
-0.045
-0.05
-0.075
-0.075
-0.105
-0.085
-0.085
-0.09
-0.095
-0.075
-0.08
-0.045
-0.065
-0.095
-0.125
-0.125
-0.13
-0.145
-0.17
-0.165
-0.14
-0.05
-0.055
-0.055
0.045
0.15
0.005
-0.14
-0.165
-0.215
-0.285
-0.29
-0.29
-0.28
-0.305
-0.29
-0.215
0.4
1.85
2.935
1.645
-0.08
-0.44
-0.395
-0.315
-0.255
-0.265
-0.28
-0.28
-0.24
-0.26
-0.22
-0.21
-0.155
-0.125
-0.085
-0.015
0.04
0.095
0.185
0.295
0.41
0.53
0.68
0.825
0.925
0.94
0.9
0.74
0.52
0.27
0.055
-0.095
-0.145
-0.19
-0.245
-0.285
-0.275
-0.285
-0.265
-0.28
-0.295
-0.28
-0.285
-0.315
-0.32
-0.31
-0.305
-0.305
-0.315
-0.335
-0.325
-0.325
-0.35
-0.365
-0.365
-0.345
-0.25
-0.25
-0.215
-0.13
-0.165
-0.305
-0.365
-0.41
-0.465
-0.475
-0.48
-0.505
-0.515
-0.53
-0.56
-0.295
0.915
2.575
2.595
0.41
-0.92
-0.755
-0.615
-0.47
-0.46
-0.45
-0.425
-0.42
-0.415
-0.385
-0.34
-0.325
-0.27
-0.23
-0.19
-0.145
-0.065
0.02
0.115
0.25
0.385
0.525
0.665
0.77
0.83
0.835
0.73
0.515
0.255
0.025
-0.15
-0.27
-0.33
-0.38
-0.4
-0.4
-0.42
-0.445
-0.46
-0.45
-0.45
-0.46
-0.44
-0.445
-0.445
-0.44
-0.44
-0.45
-0.445
-0.44
-0.455
-0.475
-0.485
-0.485
-0.495
-0.445
-0.375
-0.355
-0.375
-0.275
-0.225
-0.36
-0.455
-0.47
-0.52
-0.56
-0.57
-0.57
-0.585
-0.585
-0.6
-0.53
0.29
1.975
2.97
1.24
-0.64
-0.745
-0.645
-0.515
-0.49
-0.505
-0.485
-0.485
-0.465
-0.455
-0.43
-0.4
-0.365
-0.325
-0.285
-0.24
-0.18
-0.1
-0.005
0.105
0.23
0.375
0.51
0.625
0.705
0.75
0.695
0.545
0.305
0.08
-0.115
-0.245
-0.34
-0.4
-0.45
-0.465
-0.475
-0.485
-0.485
-0.495
-0.51
-0.505
-0.5
-0.485
-0.46
-0.445
-0.445
-0.445
-0.44
-0.44
-0.46
-0.485
-0.505
-0.525
-0.525
-0.545
-0.55
-0.5
-0.4
-0.41
-0.405
-0.28
-0.23
-0.365
-0.475
-0.485
-0.545
-0.605
-0.605
-0.605
-0.605
-0.605
-0.62
-0.57
0.08
1.63
2.715
1.215
-0.6
-0.77
-0.66
-0.56
-0.51
-0.525
-0.51
-0.505
-0.485
-0.46
-0.43
-0.4
-0.365
-0.325
-0.295
-0.235
-0.17
-0.1
-0.015
0.09
0.21
0.34
0.475
0.59
0.675
0.725
0.69
0.56
0.325
0.085
-0.1
-0.24
-0.33
-0.39
-0.425
-0.43
-0.44
-0.455
-0.47
-0.475
-0.485
-0.485
-0.475
-0.46
-0.455
-0.45
-0.45
-0.455
-0.45
-0.465
-0.47
-0.48
-0.485
-0.5
-0.51
-0.52
-0.525
-0.53
-0.495
-0.42
-0.385
-0.405
-0.3
-0.205
-0.31
-0.425
-0.45
-0.495
-0.555
-0.56
-0.57
-0.58
-0.585
-0.58
-0.61
-0.365
0.77
2.265
2.075
0.13
-0.815
-0.655
-0.6
-0.495
-0.495
-0.495
-0.485
-0.47
-0.455
-0.435
-0.395
-0.365
-0.33
-0.29
-0.24
-0.195
-0.125
-0.06
0.035
0.14
0.255
0.375
0.485
0.585
0.665
0.675
0.61
0.445
0.225
0.01
-0.15
-0.265
-0.34
-0.38
-0.395
-0.4
-0.43
-0.435
-0.44
-0.435
-0.44
-0.43
-0.415
-0.41
-0.4
-0.385
-0.39
-0.4
-0.395
-0.41
-0.42
-0.42
-0.425
-0.44
-0.435
-0.445
-0.45
-0.44
-0.44
-0.415
-0.34
-0.315
-0.33
-0.22
-0.125
-0.24
-0.36
-0.395
-0.435
-0.48
-0.475
-0.485
-0.5
-0.505
-0.49
-0.505
-0.22
0.895
2.24
1.955
0.275
-0.63
-0.63
-0.56
-0.435
-0.425
-0.415
-0.4
-0.39
-0.385
-0.35
-0.305
-0.27
-0.24
-0.205
-0.165
-0.1
-0.025
0.05
0.135
0.24
0.375
0.51
0.62
0.73
0.795
0.8
0.725
0.56
0.355
0.15
-0.045
-0.13
-0.185
-0.24
-0.28
-0.305
-0.28
-0.29
-0.305
-0.27
-0.285
-0.28
-0.26
-0.24
-0.255
-0.25
-0.235
-0.23
-0.25
-0.285
-0.32
-0.33
-0.335
-0.35
-0.365
-0.37
-0.36
-0.355
-0.375
-0.355
-0.295
-0.205
-0.205
-0.16
-0.04
-0.04
-0.19
-0.31
-0.33
-0.365
-0.405
-0.42
-0.43
-0.43
-0.435
-0.455
-0.385
0.325
1.865
2.835
1.375
-0.35
-0.63
-0.575
-0.41
-0.365
-0.345
-0.335
-0.335
-0.31
-0.27
-0.245
-0.215
-0.165
-0.135
-0.115
-0.085
-0.01
0.065
0.135
0.24
0.365
0.505
0.645
0.77
0.865
0.905
0.88
0.735
0.51
0.275
0.09
-0.075
-0.18
-0.225
-0.255
-0.295
-0.31
-0.31
-0.305
-0.315
-0.31
-0.315
-0.315
-0.285
-0.29
-0.29
-0.285
-0.285
-0.3
-0.305
-0.325
-0.33
-0.335
-0.345
-0.36
-0.37
-0.365
-0.36
-0.355
-0.365
-0.36
-0.3
-0.235
-0.23
-0.205
-0.105
-0.105
-0.235
-0.32
-0.345
-0.395
-0.415
-0.415
-0.42
-0.445
-0.44
-0.465
-0.345
0.5
2.14
2.96
1.235
-0.465
-0.56
-0.515
-0.385
-0.355
-0.36
-0.345
-0.325
-0.305
-0.285
-0.265
-0.235
-0.205
-0.165
-0.13
-0.075
-0.02
0.055
0.145
0.245
0.36
0.49
0.63
0.74
0.83
0.88
0.84
0.73
0.53
0.275
0.065
-0.095
-0.195
-0.24
-0.295
-0.31
-0.325
-0.34
-0.35
-0.345
-0.35
-0.335
-0.335
-0.325
-0.315
-0.315
-0.315
-0.315
-0.325
-0.335
-0.35
-0.365
-0.375
-0.385
-0.385
-0.395
-0.375
-0.36
-0.375
-0.405
-0.415
-0.4
-0.345
-0.265
-0.28
-0.255
-0.145
-0.16
-0.3
-0.375
-0.395
-0.455
-0.495
-0.495
-0.5
-0.505
-0.5
-0.515
-0.4
0.42
2.02
2.74
1.01
-0.575
-0.59
-0.545
-0.42
-0.4
-0.4
-0.39
-0.375
-0.37
-0.355
-0.325
-0.295
-0.26
-0.225
-0.185
-0.135
-0.08
0.0
0.08
0.18
0.29
0.415
0.54
0.645
0.73
0.785
0.765
0.66
0.45
0.225
0.05
-0.1
-0.21
-0.275
-0.325
-0.335
-0.355
-0.365
-0.37
-0.365
-0.375
-0.36
-0.36
-0.345
-0.345
-0.32
-0.33
-0.33
-0.335
-0.345
-0.37
-0.375
-0.39
-0.385
-0.405
-0.4
-0.41
-0.4
-0.41
-0.42
-0.42
-0.41
-0.42
-0.39
-0.315
-0.25
-0.285
-0.195
-0.09
-0.155
-0.285
-0.33
-0.37
-0.425
-0.455
-0.445
-0.46
-0.46
-0.47
-0.485
-0.35
0.615
2.135
2.425
0.61
-0.635
-0.56
-0.515
-0.4
-0.385
-0.41
-0.37
-0.375
-0.35
-0.34
-0.3
-0.275
-0.245
-0.215
-0.16
-0.125
-0.06
0.0
0.09
0.18
0.295
0.4
0.52
0.605
0.695
0.725
0.695
0.57
0.38
0.15
-0.02
-0.165
-0.24
-0.315
-0.345
-0.375
-0.38
-0.395
-0.39
-0.4
-0.39
-0.395
-0.38
-0.385
-0.37
-0.38
-0.375
-0.39
-0.39
-0.42
-0.425
-0.445
-0.44
-0.46
-0.465
-0.475
-0.475
-0.49
-0.49
-0.495
-0.5
-0.5
-0.495
-0.505
-0.49
-0.485
-0.4
-0.355
-0.36
-0.3
-0.18
-0.26
-0.39
-0.445
-0.48
-0.545
-0.545
-0.575
-0.55
-0.575
-0.57
-0.605
-0.47
0.34
1.8
2.26
0.65
-0.675
-0.67
-0.645
-0.51
-0.495
-0.495
-0.495
-0.465
-0.46
-0.43
-0.4
-0.365
-0.345
-0.305
-0.285
-0.22
-0.175
-0.095
-0.02
0.09
0.175
0.31
0.42
0.535
0.615
0.67
0.635
0.56
0.37
0.165
-0.035
-0.16
-0.27
-0.32
-0.37
-0.385
-0.415
-0.4
-0.405
-0.4
-0.4
-0.385
-0.385
-0.38
-0.38
-0.365
-0.38
-0.37
-0.385
-0.39
-0.4
-0.405
-0.43
-0.415
-0.425
-0.425
-0.45
-0.435
-0.445
-0.435
-0.455
-0.43
-0.435
-0.425
-0.44
-0.405
-0.335
-0.3
-0.325
-0.215
-0.125
-0.19
-0.325
-0.36
-0.4
-0.435
-0.445
-0.44
-0.48
-0.47
-0.455
-0.465
-0.275
0.705
2.065
2.225
0.655
-0.46
-0.575
-0.555
-0.425
-0.36
-0.37
-0.35
-0.345
-0.31
-0.3
-0.265
-0.24
-0.19
-0.16
-0.11
-0.08
0.005
0.055
0.145
0.23
0.37
0.465
0.575
0.685
0.765
0.775
0.755
0.64
0.47
0.23
0.075
-0.065
-0.13
-0.19
-0.21
-0.23
-0.215
-0.25
-0.225
-0.225
-0.21
-0.225
-0.21
-0.23
-0.215
-0.23
-0.225
-0.25
-0.235
-0.275
-0.265
-0.28
-0.275
-0.295
-0.29
-0.305
-0.29
-0.31
-0.295
-0.305
-0.295
-0.32
-0.31
-0.325
-0.305
-0.325
-0.285
-0.225
-0.165
-0.215
-0.105
-0.01
-0.095
-0.235
-0.255
-0.315
-0.345
-0.365
-0.355
-0.385
-0.375
-0.395
-0.41
-0.23
0.825
2.345
2.555
0.795
-0.41
-0.495
-0.465
-0.335
-0.295
-0.32
-0.29
-0.285
-0.255
-0.24
-0.205
-0.185
-0.135
-0.115
-0.065
-0.025
0.055
0.11
0.2
0.29
0.42
0.535
0.65
0.735
0.825
0.845
0.83
0.695
0.52
0.295
0.11
-0.045
-0.125
-0.205
-0.235
-0.26
-0.265
-0.27
-0.265
-0.27
-0.27
-0.265
-0.25
-0.255
-0.23
-0.24
-0.235
-0.26
-0.265
-0.285
-0.3
-0.315
-0.315
-0.33
-0.33
-0.345
-0.345
-0.355
-0.345
-0.365
-0.355
-0.36
-0.355
-0.365
-0.365
-0.365
-0.36
-0.365
-0.375
-0.36
-0.31
-0.225
-0.225
-0.2
-0.09
-0.08
-0.225
-0.31
-0.33
-0.375
-0.415
-0.415
-0.415
-0.42
-0.43
-0.44
-0.415
0.17
1.625
2.775
1.52
-0.255
-0.575
-0.51
-0.415
-0.345
-0.37
-0.355
-0.345
-0.325
-0.31
-0.275
-0.255
-0.225
-0.19
-0.14
-0.1
-0.035
0.02
0.095
0.19
0.295
0.4
0.52
0.62
0.725
0.785
0.81
0.75
0.61
0.4
0.2
0.025
-0.105
-0.205
-0.24
-0.295
-0.305
-0.325
-0.32
-0.325
-0.32
-0.315
-0.3
-0.305
-0.295
-0.285
-0.285
-0.285
-0.285
-0.295
-0.31
-0.33
-0.33
-0.345
-0.35
-0.36
-0.365
-0.38
-0.37
-0.38
-0.37
-0.385
-0.375
-0.385
-0.38
-0.38
-0.375
-0.38
-0.37
-0.38
-0.37
-0.375
-0.365
-0.365
-0.295
-0.235
-0.23
-0.205
-0.09
-0.105
-0.235
-0.315
-0.33
-0.395
-0.405
-0.42
-0.425
-0.425
-0.42
-0.425
-0.4
0.13
1.525
2.605
1.435
-0.24
-0.55
-0.5
-0.39
-0.335
-0.32
-0.325
-0.305
-0.3
-0.27
-0.25
-0.215
-0.19
-0.145
-0.12
-0.065
-0.02
0.055
0.115
0.2
0.29
0.41
0.515
0.625
0.71
0.785
0.81
0.775
0.645
0.47
0.26
0.09
-0.055
-0.135
-0.195
-0.23
-0.26
-0.26
-0.27
-0.26
-0.27
-0.255
-0.25
-0.235
-0.235
-0.225
-0.225
-0.225
-0.235
-0.245
-0.265
-0.26
-0.28
-0.28
-0.29
-0.295
-0.305
-0.3
-0.305
-0.305
-0.315
-0.305
-0.32
-0.305
-0.31
-0.305
-0.31
-0.31
-0.315
-0.31
-0.31
-0.305
-0.315
-0.3
-0.29
-0.22
-0.165
-0.17
-0.12
-0.005
-0.04
-0.175
-0.235
-0.275
-0.32
-0.33
-0.345
-0.34
-0.35
-0.345
-0.36
-0.315
0.245
1.625
2.555
1.32
-0.22
-0.455
-0.435
-0.305
-0.26
-0.255
-0.245
-0.23
-0.21
-0.195
-0.175
-0.145
-0.11
-0.07
-0.045
-0.005
0.05
0.115
0.18
0.265
0.355
0.465
0.565
0.67
0.755
0.82
0.835
0.795
0.675
0.505
0.305
0.135
0.015
-0.075
-0.135
-0.165
-0.185
-0.18
-0.185
-0.175
-0.175
-0.165
-0.155
-0.15
-0.15
-0.155
-0.165
-0.165
-0.185
-0.195
-0.21
-0.215
-0.22
-0.225
-0.24
-0.245
-0.24
-0.255
-0.25
-0.25
-0.25
-0.25
-0.255
-0.25
-0.25
-0.25
-0.255
-0.26
-0.255
-0.26
-0.255
-0.255
-0.245
-0.25
-0.235
-0.165
-0.11
-0.135
-0.055
0.05
-0.01
-0.125
-0.185
-0.23
-0.28
-0.28
-0.29
-0.295
-0.305
-0.3
-0.305
-0.24
0.45
1.845
2.535
1.12
-0.285
-0.4
-0.375
-0.25
-0.205
-0.215
-0.195
-0.175
-0.155
-0.125
-0.105
-0.075
-0.05
-0.015
0.03
0.08
0.125
0.19
0.26
0.345
0.435
0.545
0.65
0.74
0.825
0.875
0.885
0.84
0.72
0.545
0.345
0.185
0.065
-0.015
-0.075
-0.1
-0.105
-0.11
-0.105
-0.11
-0.105
-0.095
-0.1
-0.1
-0.105
-0.11
-0.11
-0.125
-0.14
-0.145
-0.155
-0.17
-0.17
-0.175
-0.185
-0.195
-0.2
-0.21
-0.205
-0.215
-0.21
-0.22
-0.215
-0.215
-0.215
-0.215
-0.21
-0.21
-0.215
-0.22
-0.225
-0.22
-0.22
-0.215
-0.185
-0.11
-0.075
-0.1
0.015
0.09
-0.03
-0.13
-0.17
-0.215
-0.255
-0.255
-0.265
-0.265
-0.265
-0.275
-0.3
-0.055
0.975
2.295
2.12
0.5
-0.39
-0.375
-0.335
-0.21
-0.19
-0.185
-0.165
-0.15
-0.135
-0.115
-0.09
-0.065
-0.03
0.005
0.05
0.095
0.145
0.215
0.285
0.37
0.465
0.57
0.675
0.755
0.835
0.88
0.865
0.785
0.66
0.475
0.285
0.145
0.035
-0.04
-0.08
-0.105
-0.11
-0.115
-0.115
-0.115
-0.115
-0.105
-0.11
-0.105
-0.105
-0.11
-0.11
-0.12
-0.125
-0.135
-0.16
-0.17
-0.175
-0.18
-0.185
-0.19
-0.19
-0.2
-0.205
-0.205
-0.21
-0.2
-0.21
-0.205
-0.21
-0.205
-0.205
-0.2
-0.205
-0.2
-0.205
-0.205
-0.185
-0.11
-0.065
-0.08
0.005
0.11
0.03
-0.095
-0.14
-0.17
-0.215
-0.24
-0.25
-0.24
-0.245
-0.24
-0.255
-0.1
0.75
2.085
2.42
0.955
-0.225
-0.345
-0.345
-0.195
-0.15
-0.15
-0.135
-0.13
-0.115
-0.095
-0.075
-0.035
0.0
0.035
0.07
0.115
0.155
0.22
0.295
0.39
0.475
0.575
0.695
0.795
0.87
0.92
0.915
0.865
0.74
0.56
0.365
0.215
0.095
0.015
-0.05
-0.07
-0.08
-0.07
-0.075
-0.075
-0.08
-0.065
-0.055
-0.065
-0.065
-0.065
-0.075
-0.08
-0.095
-0.1
-0.115
-0.125
-0.135
-0.145
-0.15
-0.15
-0.15
-0.155
-0.165
-0.165
-0.16
-0.16
-0.16
-0.165
-0.17
-0.17
-0.165
-0.17
-0.165
-0.145
-0.08
-0.045
-0.07
0.02
0.125
0.045
-0.07
-0.115
-0.165
-0.21
-0.22
-0.23
-0.245
-0.24
-0.24
-0.265
-0.085
0.815
2.15
2.395
0.965
-0.165
-0.34
-0.365
-0.23
-0.18
-0.175
-0.16
-0.145
-0.125
-0.105
-0.08
-0.055
-0.015
0.01
0.05
0.09
0.145
0.21
0.275
0.37
0.465
0.575
0.68
0.77
0.835
0.88
0.875
0.81
0.665
0.48
0.3
0.15
0.04
-0.045
-0.08
-0.09
-0.105
-0.105
-0.105
-0.105
-0.105
-0.095
-0.095
-0.095
-0.095
-0.105
-0.11
-0.125
-0.135
-0.15
-0.16
-0.175
-0.175
-0.18
-0.19
-0.2
-0.205
-0.205
-0.21
-0.21
-0.21
-0.21
-0.22
-0.21
-0.215
-0.215
-0.22
-0.215
-0.22
-0.195
-0.12
-0.07
-0.09
-0.015
0.085
0.015
-0.105
-0.165
-0.205
-0.24
-0.255
-0.255
-0.27
-0.275
-0.28
-0.3
-0.2
0.605
2.085
2.675
1.1
-0.3
-0.37
-0.355
-0.225
-0.185
-0.19
-0.175
-0.165
-0.14
-0.12
-0.08
-0.055
-0.02
0.01
0.055
0.09
0.15
0.21
0.29
0.375
0.475
0.585
0.695
0.8
0.885
0.935
0.955
0.885
0.755
0.56
0.355
0.185
0.045
-0.05
-0.105
-0.14
-0.16
-0.17
-0.165
-0.175
-0.17
-0.165
-0.165
-0.16
-0.155
-0.165
-0.17
-0.18
-0.195
-0.215
-0.235
-0.25
-0.255
-0.275
-0.285
-0.3
-0.31
-0.31
-0.335
-0.34
-0.355
-0.365
-0.375
-0.385
-0.385
-0.4
-0.4
-0.415
-0.415
-0.38
-0.3
-0.32
-0.315
-0.205
-0.185
-0.33
-0.425
-0.46
-0.52
-0.555
-0.56
-0.585
-0.595
-0.605
-0.615
-0.625
-0.22
1.015
2.2
1.375
-0.25
-0.765
-0.755
-0.685
-0.6
-0.605
-0.605
-0.59
-0.59
-0.57
-0.55
-0.53
-0.505
-0.47
-0.45
-0.41
-0.36
-0.305
-0.24
-0.155
-0.07
0.03
0.135
0.245
0.34
0.41
0.43
0.4
0.3
0.13
-0.08
-0.265
-0.415
-0.51
-0.585
-0.625
-0.645
-0.65
-0.655
-0.645
-0.645
-0.64
-0.64
-0.625
-0.63
-0.625
-0.63
-0.63
-0.645
-0.65
-0.67
-0.67
-0.69
-0.68
-0.7
-0.695
-0.71
-0.71
-0.715
-0.71
-0.72
-0.72
-0.715
-0.705
-0.715
-0.705
-0.72
-0.7
-0.69
-0.61
-0.555
-0.565
-0.505
-0.39
-0.425
-0.545
-0.615
-0.635
-0.69
-0.7
-0.7
-0.705
-0.715
-0.705
-0.72
-0.635
-0.015
1.35
2.14
0.825
-0.605
-0.755
-0.745
-0.625
-0.57
-0.555
-0.545
-0.525
-0.51
-0.475
-0.45
-0.41
-0.38
-0.33
-0.295
-0.235
-0.19
-0.11
-0.04
0.06
0.15
0.27
0.38
0.495
0.565
0.635
0.65
0.615
0.49
0.32
0.125
-0.035
-0.155
-0.24
-0.295
-0.305
-0.325
-0.31
-0.31
-0.29
-0.29
-0.27
-0.275
-0.26
-0.255
-0.245
-0.255
-0.24
-0.25
-0.24
-0.275
-0.27
-0.28
-0.27
-0.285
-0.275
-0.285
-0.27
-0.27
-0.26
-0.275
-0.265
-0.275
-0.255
-0.265
-0.245
-0.24
-0.185
-0.11
-0.09
-0.11
0.015
0.08
-0.025
-0.125
-0.145
-0.205
-0.225
-0.225
-0.22
-0.235
-0.225
-0.225
-0.22
0.055
1.15
2.415
2.095
0.51
-0.24
-0.28
-0.235
-0.12
-0.09
-0.09
-0.075
-0.065
-0.03
-0.01
0.03
0.06
0.1
0.12
0.175
0.225
0.28
0.34
0.425
0.505
0.625
0.735
0.855
0.955
1.04
1.055
1.06
0.955
0.81
0.6
0.43
0.275
0.19
0.1
0.065
0.045
0.055
0.05
0.065
0.05
0.065
0.075
0.085
0.055
0.07
0.065
0.08
0.045
0.055
0.03
0.03
0.02
0.025
0.01
0.015
-0.01
-0.005
-0.015
0.0
-0.01
-0.005
-0.025
-0.02
-0.025
0.05
0.105
0.1
0.125
0.26
0.265
0.13
0.03
0.015
-0.035
-0.05
-0.07
-0.07
-0.095
-0.075
-0.08
-0.03
0.455
1.7
2.63
1.795
0.42
-0.1
-0.26
-0.165
-0.07
-0.025
-0.035
-0.025
-0.02
0.01
0.035
0.065
0.08
0.13
0.14
0.18
0.24
0.3
0.35
0.455
0.54
0.635
0.73
0.855
0.925
0.995
1.0
0.95
0.805
0.64
0.43
0.275
0.125
0.045
-0.015
-0.025
-0.045
-0.045
-0.055
-0.04
-0.05
-0.045
-0.05
-0.04
-0.055
-0.06
-0.08
-0.07
-0.105
-0.105
-0.12
-0.13
-0.165
-0.155
-0.17
-0.165
-0.175
-0.17
-0.195
-0.185
-0.21
-0.205
-0.22
-0.205
-0.16
-0.075
-0.105
-0.06
0.04
0.055
-0.1
-0.17
-0.22
-0.24
-0.28
-0.28
-0.31
-0.3
-0.325
-0.315
-0.29
0.28
1.62
2.625
1.575
0.07
-0.4
-0.47
-0.39
-0.295
-0.3
-0.28
-0.275
-0.25
-0.245
-0.215
-0.2
-0.145
-0.135
-0.09
-0.065
-0.005
0.04
0.12
0.195
0.3
0.39
0.515
0.6
0.7
0.735
0.755
0.675
0.555
0.36
0.16
-0.02
-0.135
-0.23
-0.265
-0.31
-0.31
-0.32
-0.315
-0.32
-0.305
-0.305
-0.285
-0.295
-0.28
-0.295
-0.3
-0.315
-0.315
-0.33
-0.34
-0.36
-0.365
-0.385
-0.385
-0.395
-0.39
-0.395
-0.395
-0.4
-0.4
-0.41
-0.415
-0.4
-0.315
-0.28
-0.3
-0.21
-0.12
-0.21
-0.315
-0.37
-0.4
-0.465
-0.47
-0.48
-0.485
-0.49
-0.49
-0.515
-0.375
0.56
2.105
2.485
0.755
-0.56
-0.585
-0.565
-0.445
-0.425
-0.435
-0.425
-0.41
-0.4
-0.37
-0.345
-0.325
-0.29
-0.26
-0.23
-0.185
-0.13
-0.065
0.01
0.09
0.21
0.315
0.435
0.525
0.605
0.65
0.65
0.56
0.39
0.165
-0.035
-0.21
-0.325
-0.41
-0.455
-0.49
-0.505
-0.525
-0.515
-0.52
-0.525
-0.53
-0.515
-0.505
-0.495
-0.51
-0.505
-0.52
-0.525
-0.545
-0.545
-0.575
-0.585
-0.595
-0.605
-0.62
-0.62
-0.63
-0.63
-0.64
-0.635
-0.65
-0.615
-0.555
-0.5
-0.54
-0.44
-0.355
-0.435
-0.56
-0.595
-0.65
-0.69
-0.71
-0.71
-0.73
-0.725
-0.735
-0.755
-0.645
0.175
1.635
2.15
0.535
-0.79
-0.84
-0.81
-0.695
-0.655
-0.67
-0.635
-0.635
-0.605
-0.595
-0.555
-0.535
-0.49
-0.47
-0.425
-0.385
-0.305
-0.255
-0.165
-0.09
0.025
0.135
0.255
0.36
0.45
0.495
0.495
0.42
0.26
0.035
-0.165
-0.325
-0.42
-0.49
-0.52
-0.545
-0.555
-0.56
-0.555
-0.555
-0.545
-0.545
-0.525
-0.535
-0.515
-0.515
-0.51
-0.52
-0.52
-0.53
-0.535
-0.545
-0.55
-0.57
-0.56
-0.56
-0.555
-0.57
-0.555
-0.57
-0.555
-0.56
-0.545
-0.485
-0.395
-0.4
-0.37
-0.255
-0.25
-0.39
-0.455
-0.485
-0.525
-0.555
-0.555
-0.57
-0.56
-0.57
-0.56
-0.57
-0.13
1.14
2.29
1.365
-0.21
-0.645
-0.615
-0.55
-0.45
-0.46
-0.445
-0.44
-0.415
-0.405
-0.37
-0.34
-0.3
-0.27
-0.225
-0.19
-0.135
-0.08
0.005
0.09
0.19
0.295
0.41
0.515
0.63
0.675
0.72
0.69
0.565
0.35
0.15
-0.04
-0.155
-0.24
-0.275
-0.31
-0.32
-0.33
-0.325
-0.325
-0.325
-0.315
-0.295
-0.3
-0.3
-0.3
-0.29
-0.3
-0.305
-0.315
-0.305
-0.315
-0.33
-0.34
-0.335
-0.34
-0.34
-0.365
-0.35
-0.345
-0.33
-0.335
-0.345
-0.335
-0.255
-0.21
-0.225
-0.15
-0.045
-0.11
-0.225
-0.285
-0.315
-0.375
-0.365
-0.375
-0.385
-0.39
-0.37
-0.385
-0.265
0.425
1.745
2.355
1.11
-0.185
-0.445
-0.51
-0.385
-0.32
-0.3
-0.295
-0.29
-0.27
-0.23
-0.21
-0.175
-0.145
-0.115
-0.08
-0.025
0.025
0.07
0.145
0.24
0.335
0.47
0.575
0.695
0.77
0.825
0.815
0.75
0.595
0.385
0.205
0.045
-0.075
-0.135
-0.175
-0.19
-0.195
-0.185
-0.185
-0.185
-0.185
-0.165
-0.165
-0.165
-0.165
-0.165
-0.185
-0.195
-0.19
-0.185
-0.215
-0.235
-0.23
-0.24
-0.255
-0.24
-0.24
-0.25
-0.255
-0.265
-0.26
-0.23
-0.255
-0.24
-0.215
-0.15
-0.11
-0.135
-0.025
0.055
-0.045
-0.15
-0.185
-0.225
-0.275
-0.3
-0.3
-0.295
-0.31
-0.31
-0.325
-0.17
0.705
2.115
2.525
1.045
-0.24
-0.44
-0.46
-0.305
-0.24
-0.24
-0.245
-0.225
-0.195
-0.165
-0.145
-0.125
-0.085
-0.025
0.005
0.04
0.095
0.16
0.25
0.35
0.455
0.575
0.705
0.81
0.88
0.925
0.885
0.815
0.645
0.405
0.215
0.08
-0.04
-0.08
-0.115
-0.155
-0.155
-0.165
-0.165
-0.135
-0.135
-0.145
-0.145
-0.15
-0.165
-0.185
-0.16
-0.145
-0.17
-0.195
-0.205
-0.24
-0.25
-0.215
-0.225
-0.23
-0.245
-0.235
-0.235
-0.24
-0.235
-0.25
-0.28
-0.25
-0.19
-0.175
-0.145
-0.025
-0.035
-0.175
-0.25
-0.27
-0.295
-0.325
-0.33
-0.345
-0.345
-0.355
-0.38
-0.365
0.265
1.805
3.115
1.93
-0.05
-0.59
-0.54
-0.41
-0.35
-0.36
-0.345
-0.315
-0.295
-0.255
-0.21
-0.175
-0.135
-0.095
-0.08
-0.04
0.01
0.07
0.17
0.265
0.375
0.505
0.665
0.79
0.895
0.985
0.99
0.9
0.72
0.47
0.225
0.04
-0.115
-0.205
-0.265
-0.3
-0.31
-0.32
-0.335
-0.345
-0.33
-0.32
-0.32
-0.32
-0.32
-0.315
-0.305
-0.31
-0.315
-0.305
-0.31
-0.325
-0.345
-0.365
-0.365
-0.375
-0.39
-0.39
-0.395
-0.39
-0.325
-0.255
-0.265
-0.245
-0.145
-0.155
-0.28
-0.36
-0.38
-0.435
-0.475
-0.485
-0.49
-0.495
-0.505
-0.525
-0.42
0.425
2.11
3.04
1.29
-0.52
-0.635
-0.59
-0.475
-0.44
-0.445
-0.43
-0.415
-0.395
-0.375
-0.345
-0.325
-0.3
-0.265
-0.22
-0.18
-0.115
-0.055
0.04
0.14
0.25
0.375
0.505
0.635
0.73
0.79
0.785
0.675
0.475
0.24
-0.01
-0.195
-0.32
-0.405
-0.45
-0.485
-0.505
-0.51
-0.51
-0.485
-0.46
-0.49
-0.515
-0.52
-0.51
-0.51
-0.495
-0.475
-0.49
-0.52
-0.54
-0.555
-0.575
-0.59
-0.6
-0.61
-0.61
-0.61
-0.61
-0.56
-0.465
-0.44
-0.455
-0.365
-0.325
-0.445
-0.545
-0.56
-0.615
-0.68
-0.68
-0.69
-0.695
-0.705
-0.715
-0.705
-0.185
1.275
2.595
1.485
-0.465
-0.92
-0.78
-0.695
-0.625
-0.645
-0.63
-0.62
-0.6
-0.585
-0.55
-0.515
-0.485
-0.45
-0.4
-0.345
-0.275
-0.225
-0.135
-0.045
0.07
0.195
0.33
0.455
0.565
0.63
0.645
0.56
0.4
0.155
-0.075
-0.255
-0.38
-0.45
-0.51
-0.535
-0.55
-0.555
-0.55
-0.555
-0.57
-0.585
-0.58
-0.56
-0.55
-0.54
-0.535
-0.535
-0.535
-0.525
-0.525
-0.525
-0.525
-0.545
-0.565
-0.57
-0.56
-0.525
-0.45
-0.445
-0.46
-0.355
-0.275
-0.39
-0.49
-0.51
-0.55
-0.605
-0.6
-0.625
-0.63
-0.615
-0.615
-0.605
-0.18
1.095
2.395
1.735
-0.04
-0.775
-0.72
-0.645
-0.52
-0.515
-0.51
-0.51
-0.49
-0.395
-0.34
-0.325
-0.28
-0.225
-0.22
-0.205
-0.145
-0.1
-0.03
0.085
0.24
0.385
0.525
0.655
0.755
0.84
0.85
0.765
0.55
0.315
0.1
-0.075
-0.19
-0.265
-0.315
-0.315
-0.335
-0.4
-0.4
-0.365
-0.375
-0.37
-0.365
-0.4
-0.4
-0.395
-0.385
-0.37
-0.365
-0.38
-0.37
-0.355
-0.395
-0.4
-0.395
-0.375
-0.36
-0.29
-0.235
-0.24
-0.165
-0.07
-0.21
-0.315
-0.315
-0.375
-0.41
-0.385
-0.405
-0.415
-0.42
-0.43
-0.41
0.215
1.79
3.085
1.745
-0.345
-0.775
-0.565
-0.395
-0.33
-0.335
-0.315
-0.305
-0.27
-0.23
-0.195
-0.16
-0.11
-0.075
-0.03
0.025
0.07
0.155
0.25
0.375
0.53
0.67
0.82
0.955
1.055
1.105
1.085
0.95
0.685
0.425
0.185
0.015
-0.065
-0.145
-0.185
-0.18
-0.2
-0.2
-0.21
-0.215
-0.225
-0.225
-0.215
-0.21
-0.225
-0.225
-0.21
-0.2
-0.21
-0.215
-0.22
-0.23
-0.23
-0.225
-0.25
-0.225
-0.175
-0.11
-0.115
-0.09
0.005
-0.02
-0.165
-0.215
-0.26
-0.32
-0.35
-0.34
-0.345
-0.345
-0.355
-0.385
-0.135
1.095
2.825
2.925
0.72
-0.645
-0.485
-0.41
-0.29
-0.255
-0.27
-0.245
-0.24
-0.21
-0.19
-0.155
-0.135
-0.1
-0.06
-0.005
0.04
0.12
0.195
0.3
0.405
0.535
0.675
0.81
0.93
1.015
1.04
0.975
0.77
0.53
0.27
0.09
-0.05
-0.125
-0.175
-0.195
-0.225
-0.23
-0.24
-0.245
-0.27
-0.255
-0.265
-0.265
-0.285
-0.265
-0.26
-0.24
-0.25
-0.205
-0.21
-0.235
-0.285
-0.29
-0.32
-0.325
-0.315
-0.24
-0.195
-0.205
-0.15
-0.03
-0.095
-0.22
-0.275
-0.285
-0.37
-0.395
-0.405
-0.4
-0.415
-0.4
-0.44
-0.185
0.995
2.645
2.565
0.4
-0.74
-0.48
-0.425
-0.315
-0.34
-0.32
-0.31
-0.285
-0.275
-0.24
-0.23
-0.185
-0.16
-0.1
-0.07
-0.005
0.065
0.165
0.245
0.375
0.495
0.645
0.77
0.895
0.955
0.99
0.905
0.72
0.455
0.22
0.025
-0.075
-0.145
-0.19
-0.235
-0.225
-0.255
-0.255
-0.28
-0.28
-0.295
-0.285
-0.29
-0.27
-0.275
-0.255
-0.26
-0.25
-0.275
-0.265
-0.285
-0.295
-0.315
-0.305
-0.325
-0.275
-0.215
-0.21
-0.235
-0.115
-0.065
-0.2
-0.315
-0.32
-0.38
-0.415
-0.44
-0.445
-0.455
-0.44
-0.465
