signal
0.0
0.01
0.0
0.015
0.005
0.02
0.015
0.025
0.025
0.035
0.035
0.055
0.065
0.085
0.105
0.13
0.15
0.165
0.16
0.135
0.085
0.05
0.01
-0.005
-0.01
-0.015
-0.015
-0.01
-0.01
-0.01
-0.015
-0.02
-0.02
-0.02
-0.02
-0.025
-0.025
-0.025
-0.025
-0.02
-0.02
-0.02
-0.015
-0.02
-0.01
-0.01
-0.01
-0.005
-0.005
-0.005
0.0
0.0
0.0
0.0
0.0
0.0
0.0
0.0
0.0
0.0
0.0
0.0
0.0
0.0
0.005
0.005
0.005
0.005
0.005
0.005
0.005
0.005
0.01
0.005
0.01
0.005
0.01
0.005
0.01
0.01
0.01
0.01
0.01
0.01
0.01
0.01
0.01
0.01
0.01
0.005
0.005
0.005
0.005
0.005
0.005
0.0
-0.01
0.0
-0.04
-0.025
0.0
0.015
0.005
0.01
0.015
0.01
0.01
0.005
0.005
0.005
0.0
0.0
-0.005
-0.015
0.035
0.11
-0.14
-0.5
-0.42
-0.25
-0.15
-0.07
-0.04
-0.025
-0.015
-0.01
-0.005
0.0
0.0
0.0
0.005
0.005
0.01
0.01
0.015
0.02
0.02
0.025
0.03
0.04
0.045
0.06
0.08
0.105
0.125
0.145
0.165
0.175
0.16
0.12
0.07
0.03
0.0
-0.01
-0.02
-0.02
-0.02
-0.02
-0.02
-0.02
-0.025
-0.025
-0.03
-0.03
-0.03
-0.03
-0.03
-0.03
-0.03
-0.025
-0.025
-0.025
-0.02
-0.02
-0.02
-0.02
-0.015
-0.015
-0.015
-0.01
-0.01
-0.01
-0.01
-0.01
-0.01
-0.01
-0.005
-0.01
-0.005
-0.005
-0.005
-0.005
-0.005
-0.005
-0.005
-0.005
-0.005
0.0
0.0
0.0
0.0
0.0
0.0
0.0
0.0
0.0
0.0
0.0
0.0
0.0
0.0
0.005
0.005
0.005
0.005
0.005
0.005
0.005
0.005
0.01
0.01
0.01
0.01
0.01
0.01
0.005
0.01
0.005
0.01
0.005
0.01
0.005
0.01
0.0
0.015
-0.005
0.015
-0.035
-0.015
-0.005
0.03
0.005
0.02
0.01
0.025
0.005
0.02
0.0
0.015
0.0
0.005
-0.01
0.005
0.01
0.11
-0.035
-0.54
-0.285
-0.375
-0.2
-0.075
-0.055
-0.015
-0.02
0.0
-0.01
0.005
-0.005
0.01
0.0
0.015
0.005
0.02
0.01
0.025
0.02
0.03
0.03
0.045
0.045
0.07
0.08
0.105
0.12
0.15
0.165
0.185
0.18
0.155
0.1
0.06
0.02
0.0
-0.01
-0.015
-0.015
-0.01
-0.01
-0.015
-0.015
-0.015
-0.015
-0.015
-0.015
-0.015
-0.02
-0.02
-0.015
-0.015
-0.015
-0.01
-0.01
-0.01
-0.01
-0.005
-0.005
-0.005
-0.005
-0.005
-0.005
-0.005
-0.005
0.0
-0.005
0.0
-0.005
-0.005
-0.005
0.0
-0.005
0.0
0.0
0.0
0.0
0.0
0.0
0.0
0.0
0.0
0.0
0.0
0.0
0.0
0.0
0.0
0.0
0.0
0.0
0.0
0.0
0.0
0.0
0.0
0.0
0.0
0.0
0.005
0.005
0.005
0.005
0.005
0.005
0.005
0.005
0.0
0.01
0.005
0.005
0.0
0.005
0.0
0.01
0.005
0.0
0.005
0.0
-0.005
-0.015
-0.045
-0.015
0.015
0.015
0.005
0.02
0.005
0.02
0.005
0.01
0.0
0.01
0.0
0.005
-0.01
0.0
-0.02
0.06
0.055
-0.31
-0.395
-0.51
-0.22
-0.105
-0.065
-0.03
-0.025
0.0
-0.005
0.005
0.0
0.005
0.005
0.02
0.01
0.03
0.015
0.03
0.025
0.035
0.035
0.05
0.055
0.075
0.085
0.105
0.125
0.15
0.165
0.195
0.195
0.175
0.135
0.085
0.04
0.01
0.0
-0.01
-0.01
-0.005
-0.005
-0.005
-0.01
-0.005
0.0
-0.005
-0.015
-0.01
-0.005
0.0
-0.005
-0.01
-0.01
-0.005
-0.005
-0.005
0.0
0.0
-0.005
-0.01
-0.005
0.005
0.005
0.0
0.0
0.0
0.0
0.005
0.0
0.005
0.005
0.0
0.0
0.005
0.01
0.0
0.0
0.005
0.005
0.0
0.0
0.005
0.01
0.005
0.0
0.005
0.005
0.015
0.01
0.005
0.01
0.005
0.01
0.005
0.005
0.005
0.01
0.005
0.005
0.0
0.005
0.0
0.01
0.0
0.005
0.0
0.0
0.0
0.005
0.0
0.0
0.0
0.0
-0.015
-0.02
-0.055
-0.03
0.0
0.01
0.0
0.015
0.0
0.01
0.0
0.005
-0.005
0.0
-0.01
0.0
-0.02
0.0
0.0
0.11
-0.015
-0.485
-0.36
-0.435
-0.23
-0.09
-0.065
-0.025
-0.03
-0.005
-0.01
0.0
-0.005
0.005
0.0
0.01
0.005
0.015
0.01
0.02
0.02
0.03
0.03
0.045
0.045
0.065
0.075
0.105
0.12
0.145
0.16
0.18
0.175
0.145
0.09
0.045
0.005
-0.015
-0.03
-0.035
-0.035
-0.04
-0.04
-0.04
-0.04
-0.04
-0.04
-0.04
-0.035
-0.035
-0.035
-0.03
-0.03
-0.035
-0.03
-0.035
-0.03
-0.03
-0.025
-0.03
-0.025
-0.025
-0.02
-0.02
-0.015
-0.015
-0.015
-0.015
-0.01
-0.01
-0.01
-0.01
-0.01
-0.01
-0.005
-0.01
-0.005
-0.005
-0.005
0.0
0.0
0.0
0.0
0.0
0.0
0.0
0.0
0.0
0.0
0.0
0.0
0.0
0.0
0.0
0.005
0.0
0.0
0.0
0.005
0.0
0.005
0.0
0.005
0.0
0.005
0.0
0.005
0.0
0.005
0.0
0.005
0.0
0.005
0.0
0.0
0.005
0.0
-0.015
-0.01
-0.045
-0.01
0.01
0.015
0.0
0.02
0.005
0.02
0.0
0.01
0.0
0.015
-0.005
0.005
-0.01
0.005
0.01
0.12
-0.025
-0.535
-0.34
-0.4
-0.215
-0.075
-0.055
-0.015
-0.02
0.0
-0.005
0.005
0.0
0.01
0.005
0.015
0.01
0.02
0.015
0.03
0.02
0.04
0.03
0.045
0.05
0.07
0.08
0.105
0.12
0.145
0.165
0.18
0.18
0.16
0.11
0.065
0.025
0.0
-0.01
-0.015
-0.015
-0.015
-0.015
-0.02
-0.02
-0.02
-0.02
-0.02
-0.015
-0.02
-0.02
-0.02
-0.015
-0.015
-0.015
-0.015
-0.01
-0.01
-0.01
-0.01
-0.01
-0.005
-0.01
-0.005
-0.005
-0.005
-0.005
-0.005
-0.005
0.0
0.0
0.0
-0.005
0.0
0.0
0.0
0.0
0.0
0.0
0.0
0.0
0.0
0.0
0.0
0.0
0.0
0.0
0.0
0.0
0.0
0.0
0.0
0.0
0.0
0.0
0.0
0.0
0.0
0.005
0.005
0.0
0.0
0.0
0.0
0.0
0.0
0.0
0.0
0.0
0.0
0.0
0.005
0.0
0.005
0.0
0.0
0.0
0.0
0.0
0.005
-0.005
0.01
-0.005
-0.005
-0.015
-0.035
-0.025
0.02
0.0
0.005
0.0
0.015
0.0
0.01
0.0
0.005
-0.005
0.0
-0.01
0.0
-0.02
0.07
0.085
-0.265
-0.45
-0.54
-0.235
-0.115
-0.07
-0.035
-0.03
-0.005
-0.015
0.0
-0.005
0.005
0.0
0.01
0.005
0.015
0.015
0.02
0.02
0.03
0.035
0.045
0.045
0.06
0.07
0.09
0.11
0.135
0.15
0.17
0.175
0.17
0.13
0.085
0.04
0.01
-0.005
-0.01
-0.015
-0.01
-0.015
-0.015
-0.015
-0.015
-0.015
-0.015
-0.015
-0.015
-0.015
-0.015
-0.01
-0.015
-0.01
-0.01
-0.015
-0.01
-0.01
-0.01
-0.01
-0.005
-0.005
-0.005
0.0
0.0
0.0
0.0
0.0
0.0
0.0
0.0
0.0
0.0
0.0
0.0
0.0
0.0
0.0
0.0
0.0
0.0
0.0
0.0
0.0
0.0
0.0
0.0
0.0
0.0
0.0
0.005
0.005
0.005
0.0
0.005
0.005
0.005
0.005
0.005
0.005
0.005
0.005
0.0
0.005
0.005
0.005
0.005
0.005
-0.005
0.01
0.0
0.0
-0.025
-0.03
-0.02
0.025
0.0
0.005
0.0
0.01
0.0
0.005
0.0
0.0
-0.005
0.0
-0.01
-0.005
-0.02
0.07
0.09
-0.27
-0.465
-0.56
-0.23
-0.12
-0.07
-0.035
-0.03
-0.01
-0.015
0.0
-0.005
0.005
0.0
0.01
0.005
0.015
0.01
0.025
0.025
0.035
0.03
0.045
0.05
0.065
0.08
0.1
0.125
0.15
0.165
0.19
0.19
0.175
0.13
0.08
0.035
0.01
-0.01
-0.015
-0.015
-0.02
-0.02
-0.02
-0.02
-0.02
-0.015
-0.02
-0.02
-0.015
-0.015
-0.015
-0.015
-0.015
-0.01
-0.015
-0.01
-0.01
-0.01
-0.01
-0.01
-0.01
-0.005
-0.005
-0.005
-0.005
-0.005
-0.005
-0.005
0.0
-0.005
0.0
-0.005
0.0
0.0
0.0
0.0
0.0
0.0
0.0
0.0
0.0
0.0
0.0
0.0
0.0
0.0
0.0
0.0
0.0
0.0
0.0
0.0
0.0
0.0
0.0
0.0
0.0
0.0
0.0
0.0
0.0
0.0
0.0
-0.005
0.0
-0.01
-0.005
-0.015
-0.045
-0.03
0.005
0.0
0.0
0.0
0.005
0.0
0.0
0.0
0.0
-0.005
-0.005
-0.015
-0.015
-0.03
0.05
0.135
-0.145
-0.545
-0.555
-0.255
-0.165
-0.08
-0.045
-0.03
-0.015
-0.015
-0.005
-0.005
0.0
0.0
0.005
0.005
0.01
0.01
0.02
0.02
0.03
0.03
0.045
0.05
0.065
0.075
0.1
0.125
0.155
0.175
0.195
0.2
0.185
0.14
0.085
0.04
0.01
-0.005
-0.015
-0.015
-0.015
-0.015
-0.02
-0.015
-0.015
-0.015
-0.015
-0.02
-0.015
-0.015
-0.015
-0.01
-0.015
-0.01
-0.01
-0.01
-0.01
-0.005
-0.005
-0.005
-0.005
0.0
0.0
0.0
0.0
0.0
0.0
0.0
0.0
0.005
0.005
0.0
0.005
0.005
0.005
0.005
0.005
0.005
0.01
0.01
0.01
0.005
0.01
0.01
0.01
0.01
0.01
0.01
0.01
0.015
0.01
0.015
0.01
0.015
0.01
0.01
0.01
0.015
0.005
0.015
0.0
0.015
0.0
0.015
-0.025
-0.02
-0.015
0.035
0.005
0.015
0.01
0.02
0.005
0.01
0.0
0.01
-0.005
0.0
-0.01
0.0
0.0
0.1
0.02
-0.445
-0.385
-0.48
-0.235
-0.095
-0.065
-0.03
-0.025
-0.005
-0.015
0.0
-0.005
0.005
0.0
0.01
0.005
0.015
0.01
0.025
0.02
0.035
0.035
0.05
0.055
0.075
0.09
0.12
0.145
0.175
0.19
0.21
0.205
0.17
0.11
0.065
0.02
0.0
-0.01
-0.015
-0.015
-0.015
-0.02
-0.02
-0.02
-0.02
-0.02
-0.02
-0.02
-0.02
-0.02
-0.02
-0.015
-0.015
-0.015
-0.015
-0.01
-0.015
-0.01
-0.005
-0.01
-0.005
-0.005
-0.005
0.0
0.0
0.0
0.0
0.0
0.0
0.0
0.0
0.0
0.0
0.0
0.0
0.0
0.0
0.0
0.0
0.0
0.0
0.0
0.0
0.0
0.0
0.0
0.0
0.0
0.0
0.0
0.0
0.0
0.0
-0.01
0.0
-0.005
0.0
-0.035
-0.035
-0.025
0.01
0.0
0.0
0.0
0.005
0.0
0.0
0.0
0.0
-0.005
-0.005
-0.015
-0.015
-0.03
0.045
0.135
-0.15
-0.51
-0.565
-0.255
-0.165
-0.08
-0.04
-0.03
-0.015
-0.015
-0.005
-0.005
0.0
0.0
0.005
0.005
0.015
0.01
0.02
0.02
0.03
0.035
0.045
0.055
0.07
0.085
0.115
0.14
0.17
0.195
0.22
0.22
0.19
0.13
0.08
0.03
0.0
-0.01
-0.015
-0.015
-0.02
-0.02
-0.02
-0.02
-0.02
-0.02
-0.02
-0.02
-0.02
-0.02
-0.02
-0.02
-0.015
-0.015
-0.015
-0.015
-0.015
-0.01
-0.01
-0.005
-0.005
-0.005
-0.005
0.0
0.0
0.0
0.0
0.0
0.0
0.0
0.0
0.0
0.0
0.0
0.0
-0.005
0.0
0.0
0.0
0.0
0.0
0.0
0.0
0.0
0.005
0.0
0.005
0.0
0.0
0.0
-0.005
0.0
0.0
0.0
-0.03
-0.04
-0.015
0.01
0.005
0.0
0.01
0.0
0.01
0.0
0.005
-0.005
0.0
-0.01
0.0
-0.02
-0.01
-0.035
0.045
0.1
-0.2
-0.45
-0.57
-0.24
-0.14
-0.075
-0.03
-0.03
-0.005
-0.01
0.0
0.0
0.01
0.005
0.015
0.01
0.025
0.02
0.035
0.03
0.04
0.04
0.06
0.065
0.085
0.1
0.13
0.155
0.185
0.21
0.23
0.225
0.19
0.13
0.075
0.03
0.0
-0.01
-0.01
-0.015
-0.015
-0.015
-0.015
-0.015
-0.02
-0.015
-0.015
-0.015
-0.015
-0.015
-0.015
-0.01
-0.015
-0.005
-0.01
-0.005
-0.005
0.0
0.0
0.0
0.0
0.0
0.0
0.0
0.0
0.0
0.0
0.005
0.005
0.0
0.005
0.005
0.005
0.01
0.005
0.005
0.01
0.005
0.005
0.005
0.01
0.01
0.01
0.005
0.01
0.005
0.005
0.005
0.01
0.0
0.0
-0.005
0.01
-0.04
-0.02
-0.005
0.025
0.005
0.02
0.01
0.02
0.005
0.015
0.0
0.01
0.0
0.005
-0.01
0.0
-0.015
-0.005
0.0
0.08
0.015
-0.43
-0.34
-0.465
-0.23
-0.09
-0.06
-0.02
-0.02
0.0
-0.005
0.005
0.0
0.015
0.005
0.02
0.01
0.025
0.02
0.035
0.03
0.045
0.04
0.06
0.065
0.085
0.1
0.14
0.16
0.195
0.215
0.23
0.205
0.165
0.1
0.05
0.01
-0.005
-0.015
-0.02
-0.015
-0.02
-0.02
-0.02
-0.02
-0.02
-0.015
-0.015
-0.02
-0.02
-0.02
-0.015
-0.015
-0.015
-0.01
-0.01
-0.005
-0.005
-0.005
-0.005
-0.005
0.0
0.0
0.0
0.0
0.005
0.0
0.0
0.005
0.005
0.005
0.01
0.005
0.01
0.005
0.01
0.005
0.01
0.005
0.01
0.005
0.015
0.0
0.01
0.005
0.01
0.01
0.005
0.005
0.005
0.0
-0.02
-0.045
-0.01
0.015
0.015
0.0
0.02
0.005
0.02
0.005
0.02
0.0
0.01
-0.005
0.005
-0.01
0.0
-0.01
0.0
0.0
0.09
-0.025
-0.45
-0.325
-0.4
-0.21
-0.075
-0.05
-0.015
-0.01
0.005
0.0
0.015
0.015
0.02
0.02
0.025
0.02
0.04
0.03
0.055
0.045
0.055
0.055
0.075
0.085
0.11
0.13
0.15
0.18
0.205
0.23
0.245
0.215
0.175
0.1
0.05
0.015
0.0
-0.01
0.0
-0.005
0.0
-0.005
-0.005
-0.005
-0.005
0.0
-0.005
-0.005
-0.005
0.0
0.0
0.0
0.0
0.005
0.005
0.01
0.0
0.0
0.005
0.005
0.005
0.01
0.01
0.005
0.0
0.005
0.005
0.015
0.0
0.01
0.01
0.005
0.005
0.01
0.015
0.01
0.01
0.015
0.005
0.015
0.01
0.01
0.01
0.005
0.01
-0.045
-0.045
0.0
0.02
0.0
0.01
0.02
0.01
0.025
0.01
0.015
0.0
0.0
0.01
0.01
-0.01
-0.015
-0.025
-0.005
0.04
0.11
-0.12
-0.525
-0.415
-0.325
-0.195
-0.07
-0.035
-0.01
-0.01
0.005
-0.005
0.01
0.02
0.015
0.02
0.02
0.03
0.04
0.035
0.05
0.04
0.06
0.065
0.08
0.09
0.115
0.14
0.16
0.185
0.215
0.245
0.235
0.2
0.13
0.07
0.025
-0.01
-0.01
-0.02
-0.02
-0.015
-0.03
-0.015
-0.03
-0.03
-0.025
-0.01
0.0
-0.015
-0.01
-0.005
0.0
-0.005
-0.005
-0.01
-0.01
0.0
0.0
-0.015
-0.015
0.0
-0.01
0.0
0.0
-0.005
-0.005
-0.005
0.0
0.0
-0.005
0.0
0.0
-0.005
-0.005
0.01
-0.01
0.0
0.0
0.005
-0.01
-0.005
0.0
-0.01
0.0
-0.055
-0.06
-0.035
0.0
0.0
0.0
0.005
0.0
0.0
0.0
0.005
-0.01
-0.01
0.0
-0.005
-0.025
-0.015
-0.03
-0.025
0.01
0.085
-0.15
-0.485
-0.355
-0.335
-0.22
-0.08
-0.06
-0.04
-0.035
-0.02
-0.01
-0.005
-0.005
-0.005
-0.005
0.005
0.005
0.005
0.01
0.025
0.015
0.025
0.035
0.05
0.06
0.08
0.09
0.115
0.14
0.165
0.185
0.195
0.15
0.1
0.045
0.005
-0.025
-0.035
-0.03
-0.04
-0.04
-0.045
-0.04
-0.04
-0.04
-0.035
-0.035
-0.035
-0.03
-0.03
-0.03
-0.025
-0.025
-0.025
-0.025
-0.02
-0.015
-0.02
-0.015
-0.015
-0.02
-0.015
-0.015
-0.01
-0.01
-0.01
-0.01
-0.01
-0.01
-0.01
-0.005
-0.01
-0.005
-0.01
0.0
-0.005
0.0
-0.005
-0.005
-0.005
0.0
-0.005
0.0
-0.005
0.0
-0.005
0.0
-0.005
0.0
-0.005
0.0
-0.015
-0.02
-0.035
-0.045
-0.04
0.0
0.0
0.005
0.0
0.02
0.0
0.01
-0.005
0.01
-0.005
0.01
-0.01
0.005
-0.015
0.0
-0.01
0.065
-0.04
-0.42
-0.225
-0.425
-0.21
-0.085
-0.065
-0.02
-0.03
-0.005
-0.01
0.005
-0.005
0.01
0.0
0.015
0.005
0.02
0.01
0.025
0.02
0.03
0.03
0.045
0.045
0.065
0.075
0.105
0.12
0.145
0.16
0.175
0.165
0.13
0.085
0.045
0.015
0.0
-0.005
-0.005
-0.005
-0.005
-0.005
-0.005
-0.01
-0.01
-0.01
-0.01
-0.015
-0.015
-0.015
-0.015
-0.015
-0.015
-0.01
-0.01
-0.005
-0.005
-0.005
0.0
0.0
0.0
0.0
0.005
0.005
0.0
0.0
0.005
0.005
0.005
0.005
0.005
0.005
0.005
0.005
0.005
0.005
0.005
0.005
0.01
0.01
0.01
0.01
0.005
0.01
0.01
0.01
0.01
0.01
0.005
0.01
0.01
0.01
0.01
0.01
0.005
0.01
0.005
0.015
0.0
0.015
-0.01
0.0
-0.04
-0.03
-0.015
0.03
0.005
0.015
0.005
0.02
0.005
0.02
0.0
0.015
0.0
0.01
-0.005
0.005
-0.015
0.0
0.0
0.085
-0.05
-0.485
-0.235
-0.405
-0.21
-0.08
-0.06
-0.02
-0.025
0.0
-0.01
0.005
-0.005
0.01
0.0
0.02
0.005
0.02
0.015
0.03
0.02
0.035
0.03
0.05
0.05
0.075
0.08
0.11
0.12
0.15
0.16
0.175
0.16
0.135
0.08
0.045
0.015
0.0
-0.01
-0.01
-0.015
-0.01
-0.01
-0.005
-0.01
-0.01
-0.01
-0.015
-0.015
-0.015
-0.015
-0.015
-0.015
-0.01
-0.01
-0.01
-0.01
-0.005
-0.005
0.0
0.0
0.0
0.0
0.0
0.0
0.0
0.0
0.0
0.005
0.0
0.005
0.005
0.005
0.01
0.01
0.005
0.005
0.005
0.01
0.01
0.01
0.005
0.01
0.005
0.01
0.005
0.005
0.005
0.005
0.005
0.01
0.005
0.005
0.005
0.01
0.005
0.0
0.0
-0.005
-0.005
-0.04
-0.05
-0.015
0.01
0.01
0.005
0.02
0.01
0.015
0.0
0.01
0.0
0.005
0.0
0.0
-0.015
-0.01
0.025
0.13
-0.095
-0.56
-0.395
-0.28
-0.175
-0.07
-0.05
-0.02
-0.02
-0.005
-0.01
0.0
0.0
0.005
0.0
0.005
0.005
0.015
0.015
0.025
0.025
0.035
0.035
0.045
0.055
0.075
0.09
0.115
0.14
0.16
0.18
0.19
0.165
0.12
0.075
0.035
0.0
-0.005
-0.01
-0.01
-0.01
-0.015
-0.01
-0.015
-0.015
-0.015
-0.015
-0.015
-0.015
-0.015
-0.015
-0.01
-0.01
-0.01
-0.01
-0.01
-0.01
-0.005
0.0
0.0
0.0
0.0
0.0
0.0
0.0
0.0
0.0
0.005
0.0
0.0
0.0
0.005
0.0
0.0
0.0
0.0
0.0
0.0
0.0
0.0
0.0
0.0
0.0
-0.005
0.0
0.0
0.0
0.0
0.0
0.0
0.0
0.0
0.0
-0.01
0.0
-0.015
-0.005
-0.05
-0.045
-0.035
0.01
-0.01
0.005
0.0
0.01
0.0
0.005
-0.005
0.005
-0.01
0.0
-0.015
0.0
0.0
0.1
-0.01
-0.49
-0.34
-0.425
-0.215
-0.085
-0.06
-0.025
-0.03
-0.01
-0.015
0.0
-0.005
0.005
0.0
0.015
0.005
0.025
0.015
0.03
0.02
0.035
0.035
0.055
0.055
0.08
0.095
0.125
0.145
0.175
0.19
0.205
0.185
0.14
0.09
0.04
0.01
0.0
-0.01
-0.015
-0.015
-0.015
-0.015
-0.02
-0.02
-0.02
-0.025
-0.025
-0.025
-0.02
-0.025
-0.025
-0.025
-0.025
-0.02
-0.02
-0.02
-0.015
-0.01
-0.01
-0.01
-0.01
-0.005
0.0
0.0
0.0
0.0
0.0
0.0
0.0
0.0
0.0
0.0
0.0
0.0
0.0
0.0
0.005
0.005
0.005
0.005
0.0
0.005
0.0
0.005
0.005
0.005
0.005
0.0
0.005
0.005
0.005
0.0
0.005
0.0
0.005
0.0
0.005
0.005
0.005
0.005
0.0
0.0
-0.005
0.0
-0.04
-0.035
-0.01
0.005
0.0
0.0
0.005
0.0
0.0
0.0
0.0
-0.005
0.0
-0.01
-0.005
-0.025
0.04
0.115
-0.145
-0.49
-0.505
-0.24
-0.145
-0.07
-0.035
-0.025
-0.015
-0.01
-0.005
-0.005
0.0
0.005
0.005
0.01
0.015
0.02
0.025
0.025
0.035
0.035
0.045
0.05
0.07
0.09
0.115
0.14
0.16
0.18
0.2
0.205
0.18
0.13
0.08
0.035
0.01
0.0
-0.005
-0.005
-0.005
0.0
-0.005
-0.01
0.0
0.0
0.0
0.0
-0.005
0.0
0.0
0.0
0.0
0.0
0.0
0.0
0.005
0.0
0.0
0.0
0.005
0.005
0.005
0.01
0.0
0.0
0.01
0.01
0.015
0.01
0.005
0.01
0.015
0.01
0.015
0.005
0.015
0.01
0.01
0.015
0.015
0.01
0.015
0.015
0.015
0.025
0.01
0.01
0.01
0.015
0.02
0.01
0.015
0.015
0.0
0.01
0.01
0.0
0.0
0.0
-0.05
-0.035
-0.02
0.02
0.0
0.015
0.005
0.02
0.0
0.0
0.015
0.0
-0.01
0.005
-0.005
-0.02
0.045
0.135
-0.09
-0.53
-0.365
-0.315
-0.2
-0.07
-0.045
-0.015
0.0
0.005
0.0
0.005
0.015
0.03
0.025
0.03
0.025
0.035
0.05
0.055
0.05
0.06
0.065
0.08
0.1
0.135
0.145
0.17
0.175
0.21
0.225
0.23
0.215
0.155
0.09
0.035
0.005
-0.01
0.0
-0.005
-0.02
-0.015
0.0
-0.01
-0.015
-0.02
-0.01
0.005
0.0
-0.01
0.0
-0.005
-0.015
0.0
-0.005
-0.005
0.0
-0.015
-0.005
-0.005
-0.015
0.0
-0.005
0.0
-0.01
-0.02
0.0
0.0
-0.01
-0.005
-0.01
-0.01
-0.01
-0.015
-0.01
0.0
0.0
-0.01
-0.005
-0.01
-0.005
-0.01
-0.01
-0.01
-0.005
-0.015
-0.01
-0.01
-0.015
-0.025
-0.025
-0.085
-0.06
-0.045
0.0
-0.015
-0.005
-0.01
-0.005
-0.005
-0.005
-0.02
-0.005
-0.015
-0.015
-0.03
-0.02
-0.01
0.075
-0.055
-0.435
-0.355
-0.425
-0.205
-0.105
-0.08
-0.04
-0.04
-0.02
-0.025
-0.005
-0.02
-0.005
-0.005
0.005
0.0
0.005
0.005
0.015
0.015
0.025
0.025
0.045
0.05
0.07
0.085
0.115
0.135
0.16
0.175
0.185
0.16
0.115
0.06
0.02
-0.005
-0.025
-0.03
-0.03
-0.03
-0.03
-0.035
-0.035
-0.035
-0.03
-0.03
-0.03
-0.025
-0.025
-0.03
-0.025
-0.02
-0.025
-0.02
-0.02
-0.015
-0.015
-0.015
-0.01
-0.01
-0.01
-0.01
-0.005
-0.005
-0.005
0.0
0.0
0.0
0.0
0.0
0.0
0.0
0.0
0.0
0.0
0.0
0.0
0.0
0.0
0.0
0.0
0.0
0.005
0.0
0.005
0.0
0.0
0.0
0.0
0.0
0.0
0.0
0.0
0.0
-0.005
-0.025
-0.01
-0.05
-0.03
-0.01
0.015
-0.005
0.01
0.0
0.01
0.0
0.005
0.0
0.0
-0.005
0.0
-0.015
-0.01
0.015
0.125
-0.07
-0.545
-0.325
-0.315
-0.18
-0.075
-0.055
-0.025
-0.025
-0.005
-0.01
0.0
-0.005
0.005
0.0
0.015
0.005
0.015
0.01
0.02
0.015
0.03
0.03
0.045
0.05
0.075
0.085
0.115
0.13
0.155
0.17
0.185
0.16
0.12
0.07
0.03
0.0
-0.01
-0.015
-0.015
-0.02
-0.015
-0.02
-0.015
-0.02
-0.02
-0.025
-0.025
-0.025
-0.025
-0.03
-0.025
-0.02
-0.015
-0.015
-0.015
-0.015
-0.015
-0.01
-0.015
-0.01
-0.005
-0.005
-0.005
-0.005
-0.005
0.0
-0.005
0.0
0.0
0.0
0.0
0.0
0.0
0.0
0.0
0.0
0.0
0.0
0.005
0.0
0.005
0.0
0.0
0.0
0.0
0.0
0.005
0.0
0.005
0.0
0.005
0.005
0.005
0.0
0.005
0.0
0.005
-0.005
0.01
-0.01
-0.005
-0.03
-0.035
-0.02
0.025
0.005
0.01
0.0
0.015
0.005
0.01
0.0
0.01
0.0
0.0
-0.01
0.0
-0.02
-0.005
0.015
0.125
-0.065
-0.565
-0.35
-0.32
-0.185
-0.075
-0.05
-0.02
-0.02
-0.005
-0.01
0.005
0.0
0.01
0.005
0.015
0.01
0.025
0.02
0.03
0.025
0.04
0.04
0.055
0.06
0.08
0.095
0.12
0.14
0.165
0.175
0.19
0.17
0.135
0.08
0.04
0.01
0.0
-0.01
-0.01
-0.01
-0.015
-0.01
-0.01
-0.015
-0.015
-0.02
-0.015
-0.015
-0.01
-0.02
-0.015
-0.01
-0.01
-0.01
-0.01
0.0
-0.01
-0.01
-0.005
-0.005
0.0
0.0
0.0
0.0
0.0
-0.005
0.0
0.0
0.0
0.0
0.0
0.0
0.0
0.0
0.0
0.0
0.0
0.0
0.0
0.0
0.005
0.0
0.005
0.005
0.0
0.0
0.005
0.0
0.0
0.005
0.0
0.0
0.0
0.01
0.0
0.0
0.0
0.0
-0.005
0.005
0.0
-0.015
-0.01
-0.04
-0.03
0.0
0.0
0.0
0.0
0.0
0.0
0.01
-0.005
0.0
0.0
0.0
-0.01
-0.005
-0.02
-0.02
-0.04
0.055
0.085
-0.215
-0.5
-0.505
-0.205
-0.14
-0.075
-0.04
-0.02
-0.005
-0.005
0.0
0.0
0.01
0.015
0.02
0.015
0.025
0.02
0.035
0.03
0.04
0.05
0.065
0.06
0.075
0.1
0.11
0.135
0.155
0.18
0.185
0.185
0.165
0.115
0.05
0.015
0.0
-0.015
-0.015
0.0
-0.005
-0.015
-0.02
-0.02
-0.015
-0.015
-0.01
-0.015
-0.01
-0.01
-0.01
-0.015
-0.015
-0.015
-0.02
-0.01
-0.01
-0.015
-0.01
-0.01
-0.005
-0.01
-0.01
-0.005
-0.01
-0.015
-0.005
-0.01
-0.005
-0.005
-0.005
-0.01
-0.01
-0.005
-0.005
-0.01
0.0
-0.005
-0.005
-0.005
-0.005
0.0
-0.005
0.0
0.0
0.0
0.0
0.0
0.0
0.0
0.0
0.0
-0.005
0.0
-0.005
0.005
-0.015
-0.005
-0.05
-0.04
-0.03
0.015
-0.005
0.01
0.0
0.01
0.0
0.005
0.0
0.005
-0.005
0.0
-0.015
-0.005
-0.025
-0.01
-0.02
0.06
0.0
-0.385
-0.33
-0.46
-0.205
-0.105
-0.07
-0.03
-0.03
-0.005
-0.015
0.0
-0.005
0.005
0.0
0.01
0.005
0.015
0.01
0.025
0.02
0.03
0.03
0.045
0.045
0.065
0.07
0.105
0.115
0.14
0.155
0.175
0.165
0.135
0.085
0.045
0.01
-0.005
-0.015
-0.015
-0.02
-0.02
-0.02
-0.02
-0.025
-0.02
-0.025
-0.025
-0.02
-0.02
-0.02
-0.015
-0.02
-0.015
-0.015
-0.015
-0.015
-0.01
-0.01
-0.01
-0.01
-0.005
-0.005
-0.005
0.0
0.0
-0.005
0.0
0.0
0.0
0.0
0.0
0.0
0.0
0.0
0.0
0.0
0.0
0.0
0.0
0.0
0.0
0.0
0.005
0.0
0.005
0.0
0.005
0.005
0.005
0.005
0.005
0.005
0.005
0.005
0.005
0.005
0.005
0.005
0.005
0.005
0.0
0.01
0.0
-0.005
-0.02
-0.035
-0.02
0.015
0.005
0.01
0.01
0.01
0.005
0.01
0.005
0.01
0.0
0.0
0.0
0.0
-0.01
-0.01
0.035
0.13
-0.105
-0.565
-0.415
-0.265
-0.17
-0.07
-0.045
-0.02
-0.015
-0.005
0.0
0.0
0.0
0.005
0.01
0.01
0.015
0.02
0.02
0.025
0.03
0.035
0.04
0.05
0.06
0.075
0.09
0.115
0.135
0.155
0.175
0.18
0.165
0.125
0.075
0.035
0.005
-0.005
-0.01
-0.015
-0.015
-0.015
-0.015
-0.015
-0.015
-0.015
-0.02
-0.02
-0.02
-0.02
-0.015
-0.02
-0.015
-0.015
-0.01
-0.01
-0.01
-0.01
-0.005
-0.005
0.0
0.0
0.0
0.0
0.0
0.0
0.0
0.0
0.0
0.0
0.0
0.0
0.0
0.0
0.005
0.005
0.005
0.005
0.005
0.005
0.005
0.005
0.005
0.005
0.005
0.005
0.005
0.005
0.005
0.01
0.01
0.005
0.005
0.01
0.005
0.01
0.005
0.005
0.005
0.01
0.005
0.01
0.0
0.015
0.0
0.0
-0.015
-0.03
-0.02
0.025
0.005
0.01
0.005
0.015
0.005
0.015
0.0
0.01
0.0
0.005
-0.005
0.0
-0.015
0.0
0.01
0.11
-0.04
-0.55
-0.345
-0.37
-0.21
-0.075
-0.055
-0.02
-0.02
0.0
-0.005
0.005
0.0
0.01
0.005
0.02
0.015
0.025
0.02
0.03
0.03
0.04
0.04
0.055
0.06
0.08
0.095
0.12
0.14
0.16
0.18
0.195
0.185
0.15
0.095
0.05
0.015
0.0
-0.005
-0.01
-0.01
-0.01
-0.01
-0.01
-0.015
-0.015
-0.01
-0.015
-0.015
-0.015
-0.015
-0.01
-0.01
-0.01
-0.005
-0.005
-0.005
-0.005
0.0
0.0
0.0
0.0
0.0
0.0
0.0
0.0
0.0
0.0
0.0
0.0
0.0
0.0
0.0
0.0
0.005
0.0
0.005
0.005
0.005
0.005
0.005
0.005
0.01
0.01
0.01
0.01
0.01
0.01
0.01
0.01
0.01
0.01
0.015
0.015
0.015
0.01
0.01
0.01
0.01
0.015
0.01
0.015
0.01
0.02
0.005
0.015
0.0
0.0
0.005
-0.03
-0.025
0.0
0.02
0.02
0.015
0.02
0.015
0.02
0.01
0.015
0.0
0.005
0.005
0.01
-0.005
-0.005
0.04
0.14
-0.08
-0.59
-0.42
-0.26
-0.185
-0.065
-0.04
-0.015
-0.01
0.0
0.0
0.015
0.005
0.015
0.005
0.025
0.03
0.03
0.025
0.035
0.045
0.05
0.055
0.06
0.08
0.095
0.11
0.14
0.155
0.18
0.19
0.195
0.18
0.14
0.085
0.045
0.01
0.0
-0.01
-0.02
-0.01
-0.01
-0.01
-0.01
-0.01
-0.01
-0.005
-0.01
-0.01
-0.01
-0.005
-0.005
-0.01
-0.005
-0.005
0.0
0.0
0.0
-0.005
-0.005
0.0
0.005
0.005
0.0
0.0
0.0
0.005
0.0
-0.005
0.0
0.005
0.005
-0.005
0.0
0.005
0.005
0.005
0.005
0.005
0.005
0.0
0.01
0.0
0.005
0.005
0.005
0.005
0.005
0.005
0.0
0.005
0.01
0.0
0.005
0.0
0.0
0.005
0.0
0.0
-0.045
-0.05
-0.02
0.015
0.005
0.0
0.015
0.01
0.015
0.005
0.01
0.0
0.0
-0.02
-0.01
-0.02
-0.015
-0.04
0.07
0.09
-0.26
-0.57
-0.51
-0.215
-0.16
-0.075
-0.04
-0.03
-0.02
-0.015
-0.005
-0.005
0.0
0.0
0.005
0.005
0.01
0.01
0.015
0.015
0.03
0.035
0.045
0.055
0.07
0.085
0.11
0.135
0.16
0.18
0.2
0.195
0.165
0.1
0.05
0.005
-0.015
-0.025
-0.03
-0.035
-0.035
-0.035
-0.035
-0.03
-0.03
-0.03
-0.03
-0.025
-0.025
-0.02
-0.02
-0.025
-0.02
-0.02
-0.02
-0.02
-0.025
-0.015
-0.015
-0.02
-0.015
-0.015
-0.015
-0.01
-0.015
-0.01
-0.01
-0.01
-0.01
-0.005
-0.005
-0.005
-0.01
-0.005
-0.005
0.0
-0.005
0.0
-0.005
0.0
-0.005
0.0
0.0
0.0
-0.005
0.0
-0.005
0.0
0.0
0.0
-0.005
0.0
-0.005
-0.005
-0.005
-0.01
0.0
-0.01
-0.02
-0.04
-0.05
-0.02
0.005
0.005
0.0
0.005
0.0
0.005
-0.005
0.005
-0.01
0.0
-0.015
-0.005
-0.02
-0.01
0.015
0.115
-0.085
-0.57
-0.335
-0.32
-0.2
-0.08
-0.06
-0.03
-0.025
-0.005
-0.015
0.0
-0.01
0.0
0.0
0.005
0.005
0.015
0.01
0.02
0.015
0.03
0.03
0.04
0.05
0.07
0.085
0.11
0.13
0.155
0.17
0.18
0.165
0.125
0.075
0.035
0.005
-0.01
-0.02
-0.015
-0.02
-0.02
-0.015
-0.015
-0.02
-0.02
-0.02
-0.025
-0.025
-0.025
-0.025
-0.015
-0.015
-0.015
-0.015
-0.01
-0.01
-0.01
-0.01
-0.005
-0.005
-0.005
-0.005
-0.005
0.0
0.0
0.0
0.0
0.0
0.0
0.0
0.0
0.0
0.0
0.0
0.0
0.0
0.0
0.0
0.0
0.0
0.0
0.0
0.0
0.0
0.0
0.0
0.0
0.0
0.0
0.0
0.0
0.0
0.0
0.005
-0.005
0.0
-0.005
-0.01
0.0
-0.005
-0.015
-0.035
-0.05
-0.015
0.005
0.0
-0.005
0.01
0.0
0.005
-0.005
0.005
-0.01
0.005
-0.015
0.0
-0.02
-0.005
-0.025
0.055
0.04
-0.35
-0.355
-0.505
-0.225
-0.1
-0.07
-0.03
-0.03
-0.005
-0.015
0.0
-0.005
0.005
0.0
0.015
0.01
0.02
0.015
0.025
0.02
0.04
0.035
0.05
0.05
0.075
0.085
0.11
0.13
0.16
0.175
0.195
0.19
0.16
0.11
0.06
0.025
0.0
-0.005
-0.01
-0.015
-0.01
-0.01
-0.01
-0.01
-0.015
-0.01
-0.01
-0.01
-0.01
-0.01
-0.01
-0.01
-0.005
-0.005
-0.005
0.0
0.0
0.0
0.0
0.0
0.0
0.0
0.0
0.005
0.005
0.005
0.005
0.005
0.005
0.005
0.01
0.01
0.005
0.01
0.015
0.015
0.01
0.01
0.01
0.01
0.015
0.02
0.02
0.015
0.015
0.015
0.015
0.015
0.015
0.015
0.02
0.015
0.02
0.01
0.02
0.015
0.015
0.01
0.01
0.01
0.005
0.0
-0.02
-0.02
0.005
0.015
0.015
0.025
0.03
0.015
0.02
0.005
0.02
0.005
0.01
0.0
0.005
-0.005
0.0
0.045
0.135
-0.075
-0.565
-0.365
-0.29
-0.19
-0.06
-0.04
-0.01
-0.005
0.0
0.0
0.015
0.01
0.015
0.015
0.02
0.025
0.04
0.035
0.04
0.03
0.05
0.06
0.07
0.09
0.1
0.11
0.135
0.155
0.19
0.2
0.215
0.19
0.14
0.075
0.035
0.005
-0.005
-0.01
-0.005
0.0
-0.01
-0.01
-0.02
-0.015
-0.005
-0.01
0.0
-0.005
-0.01
-0.005
-0.01
0.0
0.0
0.0
-0.005
-0.005
0.0
0.0
0.0
0.0
0.0
0.0
0.01
0.005
0.0
0.005
0.0
0.0
0.015
0.015
0.005
0.0
0.015
0.015
0.01
0.01
0.02
0.01
0.01
0.015
0.01
0.01
0.02
0.015
0.025
0.02
0.015
0.005
0.015
0.01
0.015
0.005
0.01
0.01
0.005
0.0
-0.04
-0.04
-0.005
0.01
0.005
0.005
0.025
0.0
0.01
0.0
0.01
0.0
0.005
-0.01
0.0
-0.02
-0.01
-0.015
0.085
0.0
-0.39
-0.38
-0.47
-0.205
-0.105
-0.065
-0.025
-0.02
-0.005
-0.005
0.005
0.0
0.015
0.01
0.025
0.015
0.02
0.02
0.03
0.03
0.04
0.04
0.06
0.065
0.08
0.095
0.125
0.145
0.17
0.19
0.205
0.19
0.145
0.09
0.04
0.005
-0.015
-0.02
-0.02
-0.025
-0.025
-0.03
-0.025
-0.025
-0.025
-0.025
-0.02
-0.02
-0.015
-0.015
-0.015
-0.01
-0.01
-0.015
-0.015
-0.01
-0.01
-0.01
-0.005
-0.01
-0.005
-0.005
0.0
0.0
0.0
0.0
0.0
0.0
0.0
0.0
0.0
0.0
0.0
0.0
0.005
0.005
0.005
0.005
0.01
0.005
0.005
0.005
0.005
0.005
0.0
0.005
0.005
0.01
0.01
0.01
0.005
0.01
-0.005
0.01
-0.01
0.0
-0.04
-0.03
-0.02
0.025
0.005
0.015
0.005
0.015
0.01
0.02
0.0
0.01
0.0
0.01
-0.005
0.0
-0.015
0.055
0.065
-0.285
-0.365
-0.49
-0.21
-0.11
-0.07
-0.03
-0.025
-0.005
-0.015
0.0
-0.005
0.005
0.0
0.01
0.005
0.015
0.01
0.025
0.02
0.03
0.035
0.045
0.05
0.07
0.085
0.11
0.125
0.155
0.17
0.19
0.18
0.15
0.1
0.055
0.015
0.0
-0.015
-0.015
-0.02
-0.015
-0.015
-0.015
-0.02
-0.015
-0.015
-0.02
-0.02
-0.02
-0.02
-0.02
-0.02
-0.015
-0.015
-0.015
-0.01
-0.01
-0.005
-0.01
-0.005
-0.005
-0.005
0.0
0.0
0.0
0.0
0.0
0.0
0.0
0.0
0.0
0.0
0.0
0.0
0.0
0.0
0.0
0.0
0.0
0.0
0.0
0.005
0.005
0.005
0.0
0.0
0.0
0.0
0.0
0.0
0.005
-0.005
0.0
-0.015
0.0
-0.05
-0.035
-0.02
0.015
0.0
0.005
0.0
0.005
0.0
0.005
-0.005
0.0
-0.005
0.0
-0.015
-0.005
-0.025
0.045
0.08
-0.245
-0.41
-0.52
-0.225
-0.12
-0.075
-0.035
-0.03
-0.01
-0.015
0.0
0.0
0.005
0.0
0.01
0.005
0.015
0.015
0.03
0.025
0.035
0.035
0.05
0.055
0.075
0.09
0.12
0.135
0.17
0.185
0.21
0.2
0.165
0.11
0.06
0.02
0.0
-0.005
-0.01
-0.01
-0.01
-0.005
-0.005
-0.01
-0.005
-0.01
-0.01
-0.01
-0.01
-0.01
-0.01
-0.005
-0.005
-0.005
-0.005
0.0
0.0
0.0
0.0
0.005
0.005
0.005
0.005
0.01
0.01
0.005
0.015
0.01
0.01
0.01
0.015
0.01
0.015
0.015
0.015
0.01
0.015
0.015
0.02
0.015
0.015
0.01
0.015
0.015
0.02
0.015
0.025
0.02
0.02
0.01
0.005
0.01
0.01
0.005
-0.005
-0.03
-0.01
0.025
0.02
0.01
0.02
0.015
0.025
0.015
0.025
0.015
0.01
0.0
0.005
0.0
0.005
-0.015
0.06
0.095
-0.2
-0.445
-0.48
-0.205
-0.125
-0.06
-0.025
-0.015
0.005
-0.005
0.005
0.01
0.015
0.025
0.04
0.015
0.035
0.04
0.04
0.035
0.045
0.06
0.075
0.075
0.095
0.105
0.13
0.165
0.185
0.205
0.215
0.21
0.165
0.1
0.065
0.025
0.0
-0.005
0.0
0.0
-0.005
0.0
-0.005
-0.005
0.005
-0.005
0.0
0.005
0.0
-0.005
0.0
0.01
0.0
0.01
0.01
0.0
0.0
0.0
0.015
0.01
0.01
0.01
0.01
0.01
0.02
0.005
0.01
0.015
0.02
0.015
0.015
0.02
0.01
0.015
0.025
0.01
0.01
0.01
0.02
0.01
0.015
0.015
0.01
0.01
0.015
0.015
0.005
0.015
0.015
0.0
-0.045
-0.04
-0.03
0.015
0.005
0.01
0.02
0.01
0.01
0.0
0.01
0.01
0.0
0.0
0.0
-0.005
-0.015
-0.02
-0.03
0.05
0.105
-0.2
-0.545
-0.445
-0.22
-0.18
-0.07
-0.045
-0.03
-0.01
-0.01
0.0
0.0
0.0
0.005
0.01
0.01
0.015
0.015
0.02
0.025
0.035
0.04
0.05
0.06
0.075
0.095
0.12
0.15
0.17
0.195
0.21
0.195
0.15
0.09
0.035
0.0
-0.02
-0.025
-0.025
-0.03
-0.03
-0.03
-0.03
-0.03
-0.03
-0.03
-0.025
-0.02
-0.02
-0.02
-0.02
-0.015
-0.02
-0.015
-0.02
-0.015
-0.015
-0.015
-0.015
-0.015
-0.01
-0.01
-0.01
-0.01
-0.01
-0.01
-0.005
-0.005
0.0
0.0
-0.005
-0.005
0.0
0.0
-0.005
0.0
0.0
0.0
-0.005
0.0
0.0
0.0
0.0
-0.005
0.0
0.0
0.0
-0.005
-0.005
0.0
-0.01
-0.02
-0.035
-0.05
-0.025
0.0
0.005
0.0
0.005
0.0
0.005
0.0
0.0
0.0
0.0
-0.005
0.0
-0.01
-0.015
-0.025
0.025
0.1
-0.165
-0.455
-0.43
-0.23
-0.145
-0.075
-0.04
-0.025
-0.01
-0.005
0.0
0.0
0.005
0.005
0.01
0.01
0.015
0.015
0.02
0.025
0.03
0.035
0.045
0.05
0.065
0.085
0.11
0.135
0.155
0.18
0.2
0.19
0.155
0.1
0.055
0.02
0.0
-0.005
-0.01
-0.01
-0.01
-0.005
-0.005
-0.01
-0.015
-0.015
-0.015
-0.02
-0.02
-0.02
-0.015
-0.015
-0.015
-0.01
-0.01
-0.01
-0.01
-0.005
-0.005
-0.005
0.0
0.0
0.0
0.0
0.0
0.0
0.0
0.0
0.0
0.0
0.0
0.0
0.0
0.0
0.0
0.0
0.0
0.0
0.0
0.0
0.0
0.0
0.0
0.0
0.0
0.0
0.0
0.0
0.0
0.0
0.0
0.0
0.0
0.0
0.0
0.0
-0.01
0.0
-0.015
0.0
-0.05
-0.04
-0.02
0.015
0.0
0.005
0.0
0.01
0.0
0.005
-0.005
0.0
-0.01
0.0
-0.015
-0.005
-0.025
-0.015
0.0
0.09
-0.075
-0.54
-0.295
-0.35
-0.205
-0.085
-0.065
-0.03
-0.03
-0.01
-0.02
0.0
-0.01
0.005
0.0
0.01
0.0
0.015
0.01
0.02
0.015
0.03
0.03
0.045
0.05
0.075
0.09
0.12
0.14
0.165
0.185
0.19
0.165
0.115
0.06
0.02
-0.005
-0.015
-0.025
-0.025
-0.025
-0.02
-0.025
-0.025
-0.025
-0.02
-0.025
-0.025
-0.03
-0.025
-0.03
-0.025
-0.025
-0.025
-0.02
-0.015
-0.02
-0.015
-0.015
-0.015
-0.015
-0.005
-0.01
-0.01
-0.005
0.0
0.0
0.0
0.0
0.0
-0.005
-0.005
-0.005
0.0
0.005
-0.005
0.0
0.0
0.0
0.0
0.005
0.005
0.005
0.0
0.0
0.005
0.0
0.0
0.01
0.01
0.01
0.01
0.0
0.0
0.005
0.005
0.005
0.0
0.005
0.015
0.0
0.01
0.0
0.0
-0.04
-0.03
-0.01
0.025
0.0
0.025
0.015
0.015
0.005
0.02
0.0
0.02
0.0
0.01
-0.005
0.0
-0.015
-0.005
-0.02
0.06
0.0
-0.36
-0.315
-0.455
-0.2
-0.1
-0.06
-0.015
-0.015
0.0
0.005
0.015
0.005
0.02
0.005
0.03
0.02
0.03
0.03
0.05
0.035
0.05
0.05
0.06
0.075
0.1
0.11
0.135
0.15
0.175
0.2
0.215
0.19
0.14
0.08
0.045
0.01
-0.005
-0.01
-0.005
-0.01
-0.01
-0.01
-0.01
-0.01
-0.01
-0.01
-0.015
-0.015
-0.005
-0.01
-0.015
-0.01
-0.01
-0.005
-0.005
-0.005
-0.015
-0.01
-0.005
-0.01
-0.01
-0.01
-0.005
-0.005
0.0
-0.005
-0.005
-0.01
-0.01
-0.005
0.0
-0.005
0.0
-0.005
0.0
0.0
-0.005
-0.005
0.0
0.0
0.0
0.0
0.005
0.0
0.005
0.0
0.0
0.0
0.0
-0.005
0.005
0.0
0.005
0.0
0.0
0.0
-0.005
0.0
-0.04
-0.05
-0.03
0.005
0.0
0.0
0.005
0.0
0.01
0.005
0.01
0.0
0.0
-0.005
0.0
-0.015
-0.005
-0.015
-0.015
0.025
0.1
-0.155
-0.52
-0.315
-0.25
-0.18
-0.07
-0.045
-0.02
-0.015
-0.005
-0.005
0.005
0.0
0.005
0.005
0.01
0.015
0.02
0.015
0.025
0.025
0.035
0.035
0.05
0.06
0.075
0.09
0.12
0.14
0.16
0.175
0.18
0.15
0.1
0.05
0.015
-0.005
-0.015
-0.02
-0.02
-0.02
-0.02
-0.02
-0.02
-0.025
-0.025
-0.025
-0.02
-0.025
-0.025
-0.02
-0.02
-0.015
-0.02
-0.015
-0.015
-0.01
-0.01
-0.01
-0.01
-0.005
-0.005
-0.005
-0.005
0.0
-0.005
0.0
0.0
0.0
0.0
0.0
0.0
0.0
0.0
0.0
0.0
0.005
0.0
0.0
0.005
0.005
0.0
0.005
0.0
0.005
0.005
0.01
0.005
0.005
0.0
0.005
0.005
0.01
0.005
0.01
0.005
0.01
0.005
0.01
0.005
0.0
0.0
0.0
-0.005
-0.035
-0.04
-0.01
0.015
0.01
0.0
0.02
0.0
0.015
0.0
0.01
0.0
0.005
-0.01
0.0
-0.015
-0.005
0.015
0.115
-0.085
-0.56
-0.315
-0.31
-0.185
-0.075
-0.05
-0.02
-0.02
-0.005
-0.005
0.005
0.0
0.01
0.0
0.01
0.005
0.02
0.015
0.03
0.025
0.035
0.035
0.05
0.055
0.075
0.09
0.12
0.14
0.165
0.18
0.185
0.165
0.125
0.075
0.035
0.005
-0.005
-0.01
-0.01
-0.01
-0.01
-0.01
-0.01
-0.01
-0.01
-0.015
-0.015
-0.015
-0.015
-0.015
-0.015
-0.01
-0.01
-0.01
-0.01
-0.005
-0.005
-0.005
-0.005
0.0
0.0
0.0
0.0
0.005
0.0
0.0
0.0
0.005
0.005
0.005
0.005
0.005
0.005
0.005
0.005
0.01
0.01
0.01
0.01
0.01
0.01
0.015
0.01
0.015
0.01
0.01
0.01
0.015
0.01
0.015
0.01
0.015
0.01
0.015
0.01
0.01
0.005
0.01
0.005
0.01
0.005
0.01
0.005
0.005
0.0
-0.005
0.0
-0.035
-0.03
0.0
0.01
0.005
0.0
0.01
0.005
0.015
0.005
0.01
-0.005
0.005
0.0
0.005
-0.01
-0.005
0.035
0.13
-0.11
-0.565
-0.355
-0.265
-0.17
-0.06
-0.045
-0.015
-0.015
-0.005
0.0
0.0
0.0
0.01
0.01
0.02
0.015
0.02
0.025
0.025
0.03
0.045
0.045
0.055
0.06
0.08
0.1
0.13
0.145
0.165
0.185
0.19
0.16
0.12
0.07
0.025
0.005
-0.01
-0.02
-0.02
-0.015
-0.015
-0.015
-0.005
-0.02
-0.02
-0.01
-0.005
-0.025
-0.02
-0.025
-0.01
-0.015
-0.015
-0.015
-0.02
-0.015
-0.005
-0.01
-0.005
-0.01
-0.005
0.0
0.0
0.0
0.0
0.0
-0.01
0.0
0.005
0.0
0.005
0.005
0.0
0.0
0.0
0.01
0.005
0.005
0.005
0.0
0.0
0.005
0.01
0.005
0.0
0.01
0.005
0.0
0.005
0.0
0.01
0.01
0.0
0.005
0.015
0.01
0.02
0.005
0.005
0.0
0.005
0.01
0.01
0.0
0.01
-0.005
-0.04
-0.04
-0.02
0.0
0.01
0.0
0.02
0.005
0.015
0.0
0.005
0.0
0.0
-0.01
0.0
-0.02
0.0
-0.005
0.095
-0.04
-0.445
-0.345
-0.44
-0.21
-0.1
-0.065
-0.02
-0.025
-0.005
-0.015
0.005
-0.005
0.01
0.0
0.01
0.005
0.02
0.01
0.025
0.02
0.035
0.035
0.05
0.055
0.07
0.085
0.11
0.135
0.15
0.17
0.185
0.175
0.125
0.075
0.03
0.0
-0.02
-0.03
-0.03
-0.035
-0.03
-0.035
-0.03
-0.03
-0.03
-0.03
-0.025
-0.02
-0.025
-0.02
-0.02
-0.015
-0.02
-0.015
-0.015
-0.015
-0.015
-0.01
-0.01
-0.01
-0.005
-0.005
-0.005
0.0
-0.005
0.0
0.0
0.0
0.0
0.0
0.0
0.0
0.0
0.0
0.0
0.0
0.0
0.0
0.0
0.005
0.0
0.005
0.005
0.005
0.01
0.005
0.005
0.005
0.005
0.005
0.01
0.005
0.01
0.0
0.01
0.005
0.01
0.005
0.01
0.0
0.01
0.0
0.005
0.0
0.0
0.005
0.0
-0.01
-0.02
-0.045
-0.01
0.015
0.015
0.0
0.02
0.005
0.02
0.005
0.02
0.0
0.015
0.0
0.01
-0.01
0.0
0.01
0.105
-0.06
-0.54
-0.28
-0.375
-0.205
-0.075
-0.06
-0.025
-0.025
0.0
-0.01
0.005
-0.005
0.005
0.0
0.015
0.005
0.02
0.01
0.025
0.02
0.03
0.03
0.045
0.045
0.065
0.085
0.11
0.13
0.145
0.16
0.18
0.17
0.135
0.085
0.045
0.01
0.0
-0.015
-0.015
-0.01
-0.015
-0.01
-0.015
-0.015
-0.015
-0.02
-0.02
-0.015
-0.02
-0.015
-0.015
-0.015
-0.015
-0.01
-0.01
-0.01
-0.01
-0.005
-0.01
-0.005
0.0
-0.005
-0.005
-0.005
0.0
0.0
-0.005
0.0
0.0
0.0
0.0
0.0
0.0
0.0
0.0
0.0
0.0
0.0
0.0
0.005
0.0
0.005
0.0
0.005
0.005
0.005
0.0
0.005
0.0
0.005
0.0
0.005
0.005
0.01
0.005
0.01
0.005
0.01
0.005
0.01
0.005
0.01
0.0
0.01
0.0
0.01
0.005
0.0
0.005
0.0
-0.01
-0.025
-0.045
-0.01
0.015
0.015
0.005
0.02
0.005
0.02
0.0
0.02
0.0
0.015
0.0
0.005
-0.01
0.0
0.025
0.13
-0.04
-0.565
-0.33
-0.355
-0.195
-0.07
-0.05
-0.01
-0.015
0.005
0.0
0.015
0.005
0.015
0.01
0.02
0.015
0.03
0.025
0.035
0.035
0.045
0.04
0.055
0.06
0.085
0.095
0.125
0.14
0.165
0.175
0.19
0.18
0.145
0.095
0.055
0.02
0.0
-0.005
-0.01
-0.01
-0.01
-0.01
-0.015
-0.01
-0.01
-0.01
-0.01
-0.005
-0.005
-0.005
0.0
-0.005
-0.005
-0.005
0.0
0.0
0.0
0.0
0.0
0.005
0.0
0.0
0.005
0.01
0.005
0.01
0.01
0.01
0.005
0.005
0.005
0.005
0.01
0.015
0.01
0.01
0.01
0.01
0.015
0.005
0.015
0.015
0.02
0.015
0.015
0.005
0.015
0.015
0.015
0.01
0.02
0.01
0.015
0.01
0.02
0.01
0.015
0.01
0.015
0.005
0.01
0.01
0.015
0.0
0.005
0.015
0.005
-0.005
-0.005
-0.045
-0.01
0.005
0.01
0.0
0.01
0.005
0.02
0.0
0.01
0.0
0.005
-0.005
0.0
-0.005
0.0
0.03
0.115
-0.07
-0.545
-0.355
-0.385
-0.21
-0.075
-0.045
-0.02
-0.02
0.0
-0.01
0.01
0.005
0.02
0.01
0.02
0.015
0.045
0.035
0.03
0.045
0.055
0.045
0.07
0.075
0.095
0.1
0.135
0.15
0.175
0.195
0.21
0.175
0.145
0.095
0.05
0.015
0.0
-0.01
-0.005
-0.005
-0.02
-0.02
-0.01
-0.015
-0.02
-0.015
-0.015
-0.015
-0.01
-0.01
-0.01
-0.01
-0.01
-0.015
-0.015
-0.01
-0.005
-0.01
-0.005
-0.01
-0.01
-0.005
-0.005
-0.01
-0.005
-0.005
-0.005
-0.005
-0.005
-0.005
-0.01
-0.005
-0.01
-0.01
-0.005
-0.01
-0.01
-0.005
-0.005
-0.01
-0.005
-0.005
-0.005
-0.005
0.0
-0.005
0.0
-0.005
0.0
-0.005
-0.005
-0.005
-0.005
-0.005
0.0
0.0
0.0
-0.005
-0.01
0.0
-0.005
-0.015
-0.03
-0.055
-0.035
0.01
0.0
0.0
0.005
0.0
0.005
0.0
0.0
-0.005
-0.005
-0.01
-0.01
-0.02
-0.02
0.04
0.12
-0.16
-0.575
-0.435
-0.245
-0.18
-0.085
-0.05
-0.03
-0.025
-0.015
-0.01
-0.005
0.0
-0.005
0.0
0.005
0.005
0.015
0.015
0.025
0.025
0.035
0.04
0.045
0.06
0.075
0.09
0.115
0.14
0.16
0.18
0.18
0.16
0.115
0.065
0.025
0.0
-0.01
-0.02
-0.02
-0.02
-0.015
-0.015
-0.02
-0.02
-0.02
-0.02
-0.02
-0.02
-0.02
-0.02
