signal
-0.07
-0.06
-0.065
-0.055
-0.06
-0.05
-0.06
-0.05
-0.06
-0.055
-0.07
-0.075
-0.095
-0.1
-0.125
-0.135
-0.15
-0.145
-0.14
-0.105
-0.055
0.01
0.07
0.115
0.125
0.11
0.085
0.055
0.04
0.025
0.015
0.005
0.005
0.0
0.005
0.005
0.0
0.0
0.0
0.0
0.0
0.0
0.0
0.0
-0.005
-0.005
-0.005
-0.01
-0.01
-0.01
-0.005
-0.015
-0.01
-0.015
-0.015
-0.015
-0.015
-0.02
-0.02
-0.02
-0.025
-0.025
-0.02
-0.015
-0.02
-0.015
-0.02
-0.02
-0.025
-0.02
-0.02
-0.02
-0.025
-0.02
-0.025
-0.02
-0.02
-0.015
-0.02
-0.015
-0.025
-0.015
-0.025
-0.01
0.005
0.065
0.135
0.17
0.14
0.12
0.045
0.01
0.0
0.0
-0.025
-0.02
-0.05
-0.145
-0.145
-0.105
0.825
1.25
0.71
-0.155
-0.425
-0.155
-0.055
-0.06
-0.07
-0.06
-0.065
-0.055
-0.065
-0.055
-0.065
-0.055
-0.06
-0.055
-0.06
-0.06
-0.07
-0.075
-0.095
-0.105
-0.125
-0.135
-0.15
-0.16
-0.155
-0.135
-0.085
-0.02
0.04
0.09
0.115
0.115
0.09
0.065
0.04
0.02
0.015
0.005
0.005
0.0
0.0
0.0
0.0
0.0
0.0
0.0
0.0
0.0
0.0
-0.005
-0.005
-0.01
-0.005
-0.01
-0.01
-0.015
-0.015
-0.015
-0.02
-0.02
-0.02
-0.025
-0.025
-0.03
-0.03
-0.03
-0.025
-0.025
-0.03
-0.025
-0.03
-0.03
-0.03
-0.03
-0.03
-0.035
-0.03
-0.03
-0.035
-0.03
-0.035
-0.03
-0.035
-0.025
-0.03
-0.025
-0.03
-0.025
-0.035
-0.02
0.01
0.08
0.12
0.17
0.11
0.095
0.0
0.0
-0.015
-0.02
-0.04
-0.035
-0.075
-0.19
-0.235
0.225
1.05
1.07
0.48
-0.44
-0.355
-0.08
-0.09
-0.075
-0.08
-0.065
-0.075
-0.065
-0.075
-0.06
-0.065
-0.06
-0.065
-0.06
-0.07
-0.06
-0.08
-0.085
-0.105
-0.115
-0.135
-0.14
-0.155
-0.16
-0.15
-0.115
-0.065
0.0
0.06
0.105
0.125
0.11
0.085
0.055
0.035
0.02
0.01
0.005
0.0
0.0
0.0
0.0
0.0
0.0
-0.005
0.0
-0.005
-0.005
-0.005
-0.005
-0.01
-0.015
-0.01
-0.015
-0.015
-0.015
-0.015
-0.02
-0.02
-0.02
-0.02
-0.02
-0.025
-0.025
-0.025
-0.025
-0.025
-0.025
-0.025
-0.025
-0.025
-0.025
-0.02
-0.025
-0.025
-0.03
-0.02
-0.03
-0.025
-0.03
-0.025
-0.03
-0.025
-0.035
-0.025
-0.035
-0.02
-0.035
-0.025
-0.035
-0.02
0.0
0.07
0.13
0.18
0.12
0.11
0.015
0.005
-0.005
-0.005
-0.03
-0.02
-0.065
-0.175
-0.195
0.04
0.935
1.155
0.6
-0.34
-0.405
-0.11
-0.08
-0.07
-0.075
-0.06
-0.075
-0.06
-0.07
-0.05
-0.065
-0.06
-0.065
-0.055
-0.065
-0.06
-0.075
-0.075
-0.095
-0.105
-0.125
-0.13
-0.16
-0.155
-0.155
-0.125
-0.075
-0.015
0.04
0.085
0.105
0.11
0.08
0.05
0.035
0.025
0.015
0.01
0.0
0.005
0.0
0.005
0.0
0.0
0.0
0.0
0.005
-0.005
0.0
0.0
0.0
0.0
0.0
0.0
0.0
0.0
-0.005
-0.01
-0.02
-0.01
-0.02
-0.015
-0.01
-0.015
-0.015
-0.015
-0.015
-0.02
-0.02
-0.025
-0.025
-0.025
-0.025
-0.025
-0.03
-0.015
-0.02
-0.025
-0.025
-0.015
-0.02
-0.015
-0.03
-0.015
-0.025
0.0
0.015
0.105
0.115
0.19
0.125
0.1
0.015
0.005
-0.015
-0.005
-0.035
-0.03
-0.08
-0.165
-0.245
0.28
1.045
0.94
0.49
-0.42
-0.305
-0.045
-0.08
-0.055
-0.07
-0.05
-0.06
-0.065
-0.065
-0.055
-0.07
-0.05
-0.07
-0.055
-0.06
-0.06
-0.08
-0.08
-0.095
-0.105
-0.115
-0.12
-0.14
-0.135
-0.13
-0.095
-0.045
0.01
0.06
0.095
0.1
0.09
0.065
0.04
0.025
0.02
0.01
0.005
0.005
0.01
0.005
0.005
0.0
0.01
0.005
0.005
0.005
0.01
0.0
0.005
0.0
0.005
0.0
0.0
0.0
0.0
0.0
-0.005
-0.005
-0.01
-0.005
-0.005
-0.01
-0.01
-0.01
-0.01
-0.01
-0.01
-0.01
-0.01
-0.01
-0.005
-0.01
-0.01
-0.01
-0.015
-0.015
-0.01
-0.015
-0.01
-0.01
-0.01
-0.01
-0.01
-0.005
0.04
0.105
0.14
0.195
0.13
0.11
0.02
0.015
0.005
0.0
-0.015
-0.015
-0.05
-0.145
-0.205
0.335
1.125
1.075
0.435
-0.43
-0.28
-0.035
-0.06
-0.05
-0.05
-0.045
-0.05
-0.045
-0.05
-0.04
-0.045
-0.035
-0.04
-0.035
-0.045
-0.045
-0.055
-0.065
-0.085
-0.095
-0.115
-0.125
-0.14
-0.14
-0.13
-0.095
-0.03
0.03
0.085
0.12
0.135
0.125
0.09
0.07
0.05
0.035
0.025
0.02
0.02
0.02
0.015
0.02
0.015
0.015
0.02
0.015
0.015
0.015
0.015
0.01
0.01
0.01
0.01
0.01
0.005
0.0
0.005
0.0
0.0
0.0
-0.005
-0.005
-0.005
-0.01
-0.005
-0.01
-0.01
-0.015
-0.01
-0.01
-0.01
-0.015
-0.01
-0.015
-0.01
-0.015
-0.01
-0.02
-0.01
-0.015
-0.01
-0.015
-0.01
-0.02
-0.005
-0.015
0.0
0.015
0.065
0.14
0.165
0.15
0.125
0.05
0.02
0.01
0.005
-0.015
-0.015
-0.04
-0.11
-0.135
-0.165
0.755
1.265
0.745
-0.07
-0.435
-0.17
-0.05
-0.055
-0.065
-0.055
-0.06
-0.055
-0.065
-0.05
-0.055
-0.05
-0.05
-0.05
-0.055
-0.05
-0.065
-0.065
-0.085
-0.095
-0.115
-0.13
-0.145
-0.15
-0.15
-0.13
-0.09
-0.025
0.03
0.09
0.12
0.12
0.09
0.065
0.045
0.025
0.015
0.005
0.005
0.005
0.005
0.005
0.0
0.0
0.0
0.005
0.0
0.0
0.0
0.0
0.0
0.0
0.0
0.0
-0.005
-0.005
-0.005
-0.005
-0.015
-0.015
-0.015
-0.015
-0.015
-0.015
-0.02
-0.02
-0.02
-0.02
-0.025
-0.02
-0.02
-0.02
-0.02
-0.02
-0.02
-0.02
-0.025
-0.025
-0.03
-0.03
-0.025
-0.025
-0.025
-0.025
-0.03
-0.025
-0.03
-0.02
-0.01
0.03
0.11
0.13
0.165
0.115
0.075
0.01
0.0
-0.005
-0.02
-0.03
-0.035
-0.085
-0.165
-0.255
0.5
1.18
0.91
0.245
-0.485
-0.275
-0.06
-0.09
-0.08
-0.075
-0.07
-0.075
-0.075
-0.075
-0.07
-0.07
-0.07
-0.07
-0.07
-0.075
-0.08
-0.09
-0.1
-0.12
-0.13
-0.145
-0.16
-0.17
-0.165
-0.155
-0.12
-0.06
0.0
0.06
0.095
0.105
0.09
0.065
0.04
0.02
0.01
0.0
0.0
-0.005
-0.005
-0.005
-0.005
-0.005
-0.01
-0.005
-0.005
-0.005
-0.01
-0.01
-0.01
-0.01
-0.01
-0.015
-0.015
-0.015
-0.015
-0.015
-0.02
-0.02
-0.025
-0.02
-0.02
-0.025
-0.025
-0.02
-0.025
-0.025
-0.025
-0.03
-0.03
-0.025
-0.03
-0.03
-0.03
-0.03
-0.035
-0.03
-0.03
-0.025
-0.03
-0.03
-0.035
-0.03
-0.035
-0.025
-0.03
-0.025
-0.03
-0.025
-0.015
0.03
0.105
0.135
0.16
0.11
0.07
0.01
0.0
-0.01
-0.02
-0.025
-0.035
-0.085
-0.16
-0.25
0.545
1.19
0.865
0.18
-0.475
-0.255
-0.05
-0.08
-0.07
-0.07
-0.065
-0.07
-0.065
-0.065
-0.06
-0.06
-0.065
-0.065
-0.065
-0.07
-0.075
-0.085
-0.09
-0.105
-0.12
-0.135
-0.145
-0.16
-0.16
-0.145
-0.105
-0.05
0.015
0.065
0.105
0.11
0.1
0.07
0.045
0.02
0.015
0.01
0.0
0.0
0.0
0.005
0.0
0.0
0.0
0.0
0.0
0.0
0.0
0.0
-0.005
-0.005
-0.005
-0.005
-0.005
-0.005
-0.005
-0.005
-0.01
-0.015
-0.02
-0.015
-0.015
-0.02
-0.02
-0.015
-0.02
-0.025
-0.02
-0.02
-0.02
-0.025
-0.025
-0.025
-0.02
-0.025
-0.02
-0.025
-0.015
-0.02
-0.015
-0.025
-0.015
-0.025
-0.01
-0.02
-0.005
0.02
0.09
0.125
0.19
0.125
0.115
0.01
0.015
-0.005
-0.005
-0.025
-0.02
-0.065
-0.175
-0.225
0.155
0.96
1.015
0.565
-0.39
-0.345
-0.07
-0.07
-0.055
-0.065
-0.045
-0.06
-0.055
-0.065
-0.04
-0.05
-0.045
-0.06
-0.045
-0.055
-0.045
-0.07
-0.07
-0.08
-0.085
-0.105
-0.11
-0.13
-0.125
-0.12
-0.09
-0.055
0.01
0.07
0.1
0.11
0.105
0.075
0.06
0.045
0.035
0.025
0.025
0.025
0.015
0.02
0.02
0.02
0.02
0.02
0.025
0.02
0.015
0.01
0.0
0.01
0.015
0.015
0.01
0.01
0.005
0.005
0.0
0.0
0.005
0.005
-0.005
0.0
0.0
-0.005
-0.015
-0.005
-0.015
-0.005
-0.005
-0.005
-0.015
-0.01
-0.005
-0.005
-0.015
0.0
-0.01
0.0
-0.005
-0.005
-0.01
0.0
0.025
0.09
0.15
0.205
0.15
0.13
0.035
0.01
0.0
0.005
-0.025
-0.02
-0.06
-0.155
-0.19
0.06
0.88
1.12
0.67
-0.265
-0.31
-0.07
-0.055
-0.045
-0.06
-0.05
-0.06
-0.05
-0.065
-0.05
-0.06
-0.045
-0.055
-0.045
-0.055
-0.04
-0.06
-0.045
-0.07
-0.07
-0.08
-0.08
-0.09
-0.095
-0.08
-0.045
-0.01
0.045
0.095
0.13
0.135
0.13
0.105
0.085
0.065
0.05
0.045
0.045
0.04
0.035
0.035
0.04
0.04
0.045
0.045
0.035
0.035
0.035
0.035
0.03
0.03
0.03
0.025
0.025
0.025
0.02
0.015
0.015
0.015
0.015
0.005
0.01
0.0
0.005
0.005
0.005
0.0
0.005
0.0
0.005
0.005
0.005
0.0
0.005
0.0
0.01
0.0
0.005
0.0
0.005
0.005
0.01
0.005
0.005
0.015
0.07
0.145
0.17
0.21
0.145
0.11
0.04
0.03
0.02
0.005
0.0
-0.01
-0.045
-0.115
-0.21
0.485
1.21
0.985
0.29
-0.41
-0.21
-0.015
-0.045
-0.04
-0.04
-0.04
-0.04
-0.045
-0.045
-0.035
-0.035
-0.035
-0.04
-0.03
-0.035
-0.04
-0.05
-0.06
-0.075
-0.085
-0.105
-0.11
-0.13
-0.13
-0.12
-0.085
-0.025
0.035
0.09
0.13
0.14
0.13
0.1
0.075
0.06
0.04
0.035
0.03
0.025
0.03
0.025
0.03
0.025
0.025
0.025
0.025
0.02
0.02
0.02
0.02
0.015
0.01
0.01
0.005
0.005
0.005
0.005
0.005
0.0
0.0
0.0
0.0
-0.005
-0.005
-0.005
-0.005
-0.005
0.0
0.0
0.0
0.0
0.0
0.0
0.0
0.0
0.0
-0.005
-0.005
-0.005
0.0
-0.005
-0.005
-0.005
-0.005
-0.005
-0.01
0.0
0.035
0.115
0.15
0.19
0.13
0.11
0.025
0.02
0.0
0.0
-0.025
-0.02
-0.06
-0.16
-0.24
0.365
1.13
1.025
0.39
-0.46
-0.295
-0.05
-0.08
-0.065
-0.07
-0.065
-0.07
-0.065
-0.07
-0.06
-0.07
-0.06
-0.07
-0.065
-0.075
-0.07
-0.085
-0.095
-0.11
-0.115
-0.135
-0.145
-0.16
-0.165
-0.16
-0.125
-0.075
0.0
0.05
0.09
0.11
0.095
0.07
0.045
0.025
0.015
0.005
0.005
0.0
0.0
-0.005
0.0
-0.005
0.0
-0.005
-0.005
0.0
-0.005
-0.005
-0.005
-0.01
-0.01
-0.01
-0.01
-0.015
-0.015
-0.015
-0.015
-0.02
-0.02
-0.025
-0.02
-0.02
-0.025
-0.025
-0.025
-0.025
-0.025
-0.025
-0.025
-0.025
-0.025
-0.03
-0.03
-0.035
-0.03
-0.035
-0.03
-0.04
-0.035
-0.04
-0.035
-0.04
-0.035
-0.04
-0.03
-0.04
-0.035
-0.02
0.025
0.11
0.13
0.14
0.105
0.045
0.0
-0.01
-0.015
-0.04
-0.04
-0.055
-0.11
-0.16
-0.245
0.61
1.21
0.805
0.08
-0.475
-0.235
-0.07
-0.09
-0.09
-0.09
-0.085
-0.085
-0.09
-0.085
-0.085
-0.085
-0.085
-0.085
-0.085
-0.09
-0.09
-0.1
-0.115
-0.13
-0.145
-0.16
-0.17
-0.18
-0.185
-0.165
-0.13
-0.065
0.0
0.05
0.09
0.095
0.08
0.05
0.03
0.015
0.0
-0.005
-0.005
-0.015
-0.015
-0.015
-0.015
-0.02
-0.015
-0.02
-0.025
-0.025
-0.025
-0.025
-0.03
-0.03
-0.025
-0.03
-0.035
-0.035
-0.04
-0.04
-0.04
-0.04
-0.04
-0.04
-0.04
-0.045
-0.045
-0.045
-0.045
-0.045
-0.045
-0.05
-0.04
-0.05
-0.04
-0.05
-0.04
-0.04
-0.045
-0.045
-0.04
-0.05
-0.04
-0.05
-0.035
-0.05
-0.035
-0.04
-0.03
-0.015
0.03
0.11
0.135
0.12
0.1
0.025
0.0
-0.01
-0.02
-0.04
-0.04
-0.06
-0.16
-0.165
-0.165
0.72
1.165
0.7
-0.085
-0.45
-0.19
-0.075
-0.085
-0.085
-0.075
-0.085
-0.075
-0.09
-0.075
-0.08
-0.07
-0.075
-0.07
-0.08
-0.075
-0.085
-0.09
-0.1
-0.11
-0.13
-0.14
-0.16
-0.16
-0.165
-0.155
-0.11
-0.055
0.005
0.055
0.09
0.085
0.065
0.055
0.025
0.02
0.01
0.0
0.0
0.0
0.005
0.0
0.0
0.0
0.0
-0.005
0.0
-0.01
-0.015
-0.01
-0.01
-0.015
-0.02
-0.02
-0.02
-0.02
-0.02
-0.025
-0.025
-0.03
-0.03
-0.025
-0.03
-0.02
-0.035
-0.03
-0.025
-0.035
-0.03
-0.03
-0.03
-0.035
-0.035
-0.035
-0.035
-0.04
-0.035
-0.035
-0.02
-0.035
-0.03
-0.03
-0.01
0.025
0.085
0.12
0.185
0.125
0.1
0.01
0.0
-0.015
-0.02
-0.04
-0.03
-0.085
-0.155
-0.26
0.31
1.07
0.925
0.475
-0.385
-0.265
-0.055
-0.08
-0.055
-0.075
-0.06
-0.075
-0.065
-0.07
-0.065
-0.065
-0.065
-0.065
-0.055
-0.07
-0.06
-0.075
-0.07
-0.085
-0.09
-0.105
-0.11
-0.115
-0.115
-0.1
-0.07
-0.025
0.035
0.08
0.11
0.12
0.095
0.07
0.05
0.035
0.02
0.015
0.01
0.005
0.005
0.0
0.005
0.0
0.0
0.0
0.0
0.0
-0.005
-0.005
-0.01
-0.01
-0.015
-0.015
-0.015
-0.02
-0.02
-0.015
-0.02
-0.02
-0.02
-0.02
-0.025
-0.025
-0.025
-0.025
-0.02
-0.02
-0.025
-0.02
-0.02
-0.015
-0.015
-0.015
-0.01
-0.01
-0.015
-0.01
0.0
0.045
0.12
0.145
0.185
0.12
0.09
0.015
0.01
0.0
-0.015
-0.025
-0.03
-0.07
-0.145
-0.245
0.47
1.195
0.95
0.28
-0.435
-0.24
-0.035
-0.07
-0.065
-0.07
-0.06
-0.07
-0.065
-0.065
-0.06
-0.06
-0.055
-0.055
-0.05
-0.055
-0.06
-0.07
-0.075
-0.09
-0.105
-0.12
-0.135
-0.145
-0.145
-0.135
-0.095
-0.045
0.02
0.07
0.11
0.115
0.095
0.065
0.045
0.03
0.015
0.005
0.0
0.0
0.0
0.0
0.0
0.0
0.0
0.0
0.0
0.0
0.0
0.0
0.0
0.0
0.0
-0.005
-0.005
-0.005
-0.01
-0.01
-0.015
-0.015
-0.015
-0.015
-0.02
-0.015
-0.015
-0.015
-0.015
-0.02
-0.015
-0.015
-0.02
-0.015
-0.02
-0.015
-0.015
-0.015
-0.015
-0.02
-0.015
-0.015
-0.015
-0.01
0.015
0.055
0.135
0.175
0.16
0.13
0.075
0.015
0.005
-0.005
-0.02
-0.035
-0.04
-0.085
-0.16
-0.265
0.51
1.195
0.9
0.22
-0.47
-0.255
-0.05
-0.085
-0.075
-0.075
-0.07
-0.075
-0.075
-0.075
-0.065
-0.065
-0.065
-0.065
-0.065
-0.07
-0.07
-0.08
-0.09
-0.105
-0.115
-0.13
-0.14
-0.155
-0.155
-0.145
-0.11
-0.055
0.005
0.065
0.1
0.105
0.09
0.065
0.045
0.03
0.02
0.005
0.0
0.005
0.0
0.005
0.005
0.0
0.005
0.0
0.0
0.0
0.0
0.0
0.0
0.0
0.0
-0.005
-0.005
-0.005
-0.01
-0.005
-0.015
-0.015
-0.015
-0.015
-0.02
-0.02
-0.025
-0.02
-0.025
-0.025
-0.025
-0.025
-0.03
-0.025
-0.03
-0.025
-0.025
-0.03
-0.03
-0.025
-0.03
-0.025
-0.03
-0.03
-0.035
-0.03
0.0
0.04
0.115
0.155
0.14
0.12
0.06
0.005
-0.005
-0.015
-0.03
-0.04
-0.055
-0.105
-0.16
-0.255
0.585
1.21
0.825
0.125
-0.485
-0.25
-0.065
-0.095
-0.09
-0.085
-0.085
-0.085
-0.085
-0.085
-0.08
-0.075
-0.07
-0.07
-0.07
-0.07
-0.075
-0.08
-0.095
-0.11
-0.12
-0.14
-0.15
-0.16
-0.16
-0.15
-0.115
-0.055
0.005
0.06
0.09
0.095
0.08
0.055
0.04
0.025
0.01
0.01
0.005
0.005
0.0
0.005
0.0
0.005
0.005
0.01
0.005
0.0
0.0
0.0
0.0
0.0
0.0
-0.005
-0.005
-0.005
-0.005
-0.005
-0.005
-0.005
-0.01
-0.005
-0.015
-0.01
-0.02
-0.015
-0.015
-0.015
-0.01
-0.01
-0.015
-0.01
-0.015
-0.015
-0.015
-0.015
-0.01
-0.01
-0.02
-0.01
-0.015
-0.005
0.02
0.06
0.135
0.185
0.15
0.14
0.08
0.02
0.005
0.0
-0.015
-0.02
-0.04
-0.105
-0.145
-0.215
0.69
1.24
0.785
0.035
-0.455
-0.21
-0.05
-0.075
-0.07
-0.065
-0.065
-0.06
-0.065
-0.065
-0.06
-0.055
-0.055
-0.055
-0.055
-0.06
-0.06
-0.07
-0.085
-0.1
-0.11
-0.125
-0.14
-0.15
-0.15
-0.13
-0.095
-0.04
0.025
0.08
0.1
0.1
0.08
0.06
0.04
0.025
0.02
0.015
0.005
0.005
0.005
0.0
0.005
0.0
0.0
0.0
0.0
0.0
0.0
0.0
0.0
-0.005
-0.005
0.0
-0.01
-0.01
-0.005
-0.015
-0.005
-0.015
-0.015
-0.02
-0.015
-0.02
-0.015
-0.03
-0.02
-0.015
-0.02
-0.02
-0.025
-0.02
-0.015
-0.025
-0.015
-0.015
0.0
0.03
0.065
0.14
0.195
0.145
0.14
0.065
0.01
0.0
-0.01
-0.025
-0.025
-0.055
-0.135
-0.145
-0.185
0.69
1.17
0.73
-0.015
-0.42
-0.17
-0.055
-0.06
-0.065
-0.065
-0.07
-0.06
-0.07
-0.06
-0.075
-0.065
-0.06
-0.055
-0.055
-0.065
-0.055
-0.07
-0.075
-0.095
-0.105
-0.11
-0.12
-0.135
-0.145
-0.11
-0.08
-0.025
0.035
0.07
0.09
0.08
0.065
0.04
0.03
0.01
0.01
0.005
0.0
0.0
0.005
0.0
0.0
0.0
0.0
0.0
-0.005
-0.005
-0.005
-0.005
-0.005
-0.015
-0.015
-0.005
-0.015
-0.01
-0.005
-0.01
-0.005
-0.02
-0.02
-0.02
-0.015
-0.015
-0.03
-0.02
-0.025
-0.025
-0.025
-0.02
-0.02
-0.02
-0.03
-0.015
0.02
0.055
0.13
0.185
0.155
0.135
0.085
0.005
0.0
-0.015
-0.03
-0.035
-0.05
-0.11
-0.13
-0.25
0.58
1.22
0.825
0.15
-0.385
-0.18
-0.04
-0.075
-0.07
-0.07
-0.07
-0.07
-0.07
-0.075
-0.07
-0.065
-0.06
-0.065
-0.06
-0.06
-0.065
-0.07
-0.075
-0.085
-0.105
-0.115
-0.125
-0.13
-0.13
-0.115
-0.08
-0.025
0.025
0.07
0.095
0.085
0.07
0.045
0.025
0.01
0.0
-0.005
-0.005
-0.005
-0.005
0.0
0.0
0.0
0.0
0.0
-0.005
-0.005
-0.01
-0.005
-0.01
-0.01
-0.01
-0.015
-0.015
-0.02
-0.025
-0.025
-0.025
-0.025
-0.03
-0.03
-0.03
-0.03
-0.03
-0.03
-0.03
-0.03
-0.035
-0.035
-0.035
-0.035
-0.035
-0.03
-0.03
-0.03
-0.03
-0.03
-0.03
-0.025
0.0
0.035
0.105
0.16
0.16
0.125
0.09
0.005
0.0
-0.015
-0.025
-0.035
-0.045
-0.085
-0.17
-0.265
0.455
1.19
0.97
0.245
-0.475
-0.275
-0.055
-0.095
-0.085
-0.085
-0.08
-0.085
-0.08
-0.08
-0.075
-0.075
-0.07
-0.075
-0.07
-0.08
-0.08
-0.095
-0.1
-0.115
-0.125
-0.14
-0.155
-0.165
-0.17
-0.155
-0.12
-0.065
0.0
0.045
0.085
0.09
0.08
0.05
0.035
0.015
0.005
0.0
-0.005
-0.005
-0.005
0.0
-0.005
0.0
0.0
0.0
0.0
0.0
0.0
0.0
-0.005
-0.005
-0.005
-0.005
-0.005
-0.005
-0.01
-0.015
-0.015
-0.015
-0.015
-0.015
-0.02
-0.015
-0.02
-0.02
-0.025
-0.025
-0.025
-0.025
-0.03
-0.025
-0.025
-0.03
-0.03
-0.025
-0.025
-0.025
-0.03
-0.025
-0.03
-0.025
-0.03
-0.03
-0.03
-0.025
-0.035
-0.025
-0.035
-0.02
0.005
0.085
0.13
0.175
0.11
0.1
0.0
0.0
-0.015
-0.02
-0.045
-0.035
-0.075
-0.175
-0.215
0.13
1.0
1.125
0.51
-0.43
-0.37
-0.095
-0.1
-0.085
-0.09
-0.075
-0.085
-0.075
-0.085
-0.07
-0.08
-0.07
-0.08
-0.075
-0.08
-0.08
-0.095
-0.095
-0.11
-0.12
-0.14
-0.15
-0.165
-0.165
-0.165
-0.145
-0.095
-0.035
0.02
0.07
0.09
0.085
0.07
0.045
0.03
0.02
0.005
0.0
0.0
0.0
0.005
0.005
0.005
0.005
0.005
0.005
0.005
0.0
0.005
0.0
0.0
0.0
0.005
0.0
0.0
-0.005
0.0
-0.005
-0.005
-0.005
0.0
-0.01
-0.005
-0.01
-0.005
-0.005
0.0
-0.005
-0.005
-0.01
-0.005
-0.005
-0.005
-0.005
-0.005
0.0
-0.005
0.0
0.0
0.0
0.0
0.0
0.005
0.0
0.005
0.0
0.0
-0.005
0.005
0.02
0.06
0.145
0.165
0.185
0.14
0.1
0.035
0.025
0.02
0.005
0.0
-0.01
-0.06
-0.125
-0.22
0.555
1.195
0.875
0.245
-0.44
-0.23
-0.02
-0.045
-0.035
-0.04
-0.035
-0.035
-0.035
-0.03
-0.03
-0.035
-0.03
-0.035
-0.035
-0.045
-0.05
-0.06
-0.07
-0.085
-0.095
-0.115
-0.13
-0.14
-0.135
-0.125
-0.105
-0.055
0.005
0.06
0.1
0.105
0.095
0.07
0.065
0.04
0.03
0.025
0.02
0.02
0.005
0.015
0.02
0.01
0.005
0.005
-0.005
-0.005
0.0
-0.005
-0.005
-0.015
-0.01
-0.01
-0.015
-0.015
-0.025
-0.02
-0.02
-0.025
-0.02
-0.03
-0.03
-0.03
-0.035
-0.03
-0.03
-0.035
-0.035
-0.04
-0.035
-0.04
-0.025
-0.035
-0.025
-0.04
-0.03
-0.03
-0.04
-0.035
-0.025
-0.03
-0.025
-0.04
-0.03
-0.035
-0.025
-0.005
0.045
0.115
0.145
0.135
0.11
0.03
0.0
-0.02
-0.02
-0.045
-0.05
-0.065
-0.15
-0.16
-0.18
0.675
1.16
0.72
-0.04
-0.4
-0.16
-0.055
-0.08
-0.09
-0.075
-0.08
-0.065
-0.08
-0.07
-0.075
-0.08
-0.075
-0.075
-0.075
-0.065
-0.085
-0.09
-0.085
-0.1
-0.105
-0.12
-0.125
-0.13
-0.13
-0.105
-0.065
-0.025
0.035
0.065
0.09
0.085
0.075
0.05
0.025
0.02
0.005
0.005
0.005
0.01
0.0
0.0
0.005
0.005
0.0
0.0
0.0
0.0
-0.005
0.0
0.0
-0.005
-0.005
-0.01
-0.005
-0.01
-0.01
-0.01
-0.015
-0.015
-0.005
-0.015
-0.01
-0.015
-0.01
-0.015
-0.015
-0.02
-0.01
-0.02
-0.015
-0.02
-0.015
-0.02
-0.01
-0.015
-0.01
-0.02
-0.015
-0.025
-0.01
-0.025
-0.015
-0.025
-0.01
0.005
0.055
0.13
0.175
0.145
0.115
0.035
0.005
-0.01
-0.01
-0.035
-0.03
-0.06
-0.125
-0.135
-0.12
0.805
1.28
0.7
-0.175
-0.375
-0.13
-0.065
-0.07
-0.08
-0.07
-0.08
-0.07
-0.08
-0.075
-0.08
-0.07
-0.085
-0.075
-0.085
-0.08
-0.095
-0.095
-0.11
-0.12
-0.135
-0.145
-0.16
-0.16
-0.16
-0.135
-0.1
-0.04
0.015
0.065
0.09
0.095
0.075
0.055
0.03
0.02
0.005
0.0
0.0
0.0
0.0
0.0
0.0
0.0
0.0
0.0
0.0
0.005
0.005
0.005
0.0
0.0
0.0
0.0
-0.005
0.0
-0.005
-0.005
-0.005
-0.005
-0.005
-0.005
-0.005
-0.005
-0.01
-0.005
-0.01
-0.01
-0.015
-0.015
-0.01
-0.015
-0.025
-0.02
-0.025
-0.02
-0.025
-0.03
-0.025
-0.035
-0.03
-0.035
-0.03
-0.035
-0.03
-0.03
-0.03
-0.035
-0.03
-0.035
-0.025
0.01
0.085
0.12
0.17
0.105
0.09
0.0
-0.005
-0.025
-0.025
-0.05
-0.04
-0.08
-0.185
-0.24
0.235
1.035
1.045
0.45
-0.46
-0.35
-0.08
-0.1
-0.08
-0.085
-0.075
-0.08
-0.07
-0.085
-0.075
-0.08
-0.07
-0.075
-0.07
-0.08
-0.075
-0.09
-0.095
-0.115
-0.12
-0.14
-0.15
-0.165
-0.175
-0.17
-0.14
-0.095
-0.03
0.025
0.07
0.09
0.08
0.065
0.04
0.02
0.005
0.0
-0.005
-0.005
-0.005
-0.005
-0.005
-0.005
-0.005
-0.005
-0.005
-0.01
-0.01
-0.01
-0.015
-0.015
-0.015
-0.005
-0.005
-0.005
-0.005
-0.005
-0.01
-0.01
-0.015
-0.015
-0.02
-0.015
-0.02
-0.02
-0.025
-0.025
-0.02
-0.025
-0.025
-0.025
-0.02
-0.02
-0.025
-0.03
-0.025
-0.03
-0.03
-0.03
-0.025
-0.03
-0.025
-0.03
-0.02
-0.025
-0.02
-0.025
-0.015
-0.025
-0.015
0.0
0.055
0.13
0.155
0.14
0.11
0.04
0.01
0.0
-0.01
-0.025
-0.025
-0.05
-0.125
-0.145
-0.17
0.745
1.225
0.725
-0.08
-0.44
-0.18
-0.06
-0.075
-0.08
-0.07
-0.075
-0.065
-0.075
-0.065
-0.07
-0.065
-0.06
-0.06
-0.065
-0.065
-0.07
-0.08
-0.095
-0.105
-0.12
-0.135
-0.15
-0.155
-0.16
-0.14
-0.1
-0.045
0.02
0.07
0.105
0.115
0.095
0.07
0.05
0.035
0.02
0.015
0.01
0.01
0.01
0.01
0.015
0.01
0.01
0.005
0.005
0.005
0.0
0.0
0.0
0.0
0.0
0.0
-0.005
-0.01
-0.01
-0.01
-0.02
-0.02
-0.015
-0.01
-0.01
-0.015
-0.015
-0.01
-0.02
-0.015
-0.015
-0.015
-0.015
-0.015
-0.015
-0.02
-0.02
-0.02
-0.025
-0.02
-0.025
-0.02
-0.02
-0.015
-0.025
-0.02
-0.02
-0.02
-0.025
-0.005
0.03
0.1
0.13
0.185
0.125
0.11
0.01
0.01
-0.005
-0.005
-0.03
-0.02
-0.065
-0.16
-0.245
0.27
1.04
0.955
0.485
-0.425
-0.33
-0.065
-0.08
-0.06
-0.065
-0.055
-0.07
-0.055
-0.065
-0.055
-0.07
-0.05
-0.06
-0.06
-0.065
-0.07
-0.085
-0.08
-0.095
-0.105
-0.125
-0.135
-0.14
-0.15
-0.15
-0.125
-0.085
-0.02
0.035
0.075
0.09
0.085
0.065
0.045
0.025
0.01
0.01
0.0
0.0
0.005
0.005
0.0
0.0
0.0
0.0
0.0
0.0
0.0
-0.005
0.0
-0.005
-0.01
-0.01
-0.01
-0.01
-0.01
-0.01
-0.015
-0.01
-0.01
-0.015
-0.02
-0.015
-0.01
-0.02
-0.015
-0.03
-0.03
-0.02
-0.025
-0.035
-0.035
-0.035
-0.03
-0.035
-0.03
-0.03
-0.03
-0.03
-0.03
-0.035
-0.035
-0.03
-0.03
-0.03
-0.025
0.0
0.045
0.125
0.155
0.15
0.115
0.04
0.0
-0.005
-0.005
-0.04
-0.03
-0.065
-0.145
-0.14
-0.18
0.66
1.18
0.765
0.035
-0.37
-0.165
-0.045
-0.065
-0.065
-0.06
-0.07
-0.065
-0.07
-0.065
-0.06
-0.055
-0.06
-0.06
-0.065
-0.065
-0.07
-0.075
-0.08
-0.09
-0.1
-0.115
-0.13
-0.135
-0.135
-0.125
-0.085
-0.04
0.02
0.065
0.095
0.1
0.08
0.06
0.04
0.025
0.02
0.015
0.01
0.01
0.01
0.01
0.015
0.015
0.015
0.015
0.01
0.005
0.005
0.0
0.0
0.0
0.0
0.0
0.0
-0.005
-0.005
-0.005
-0.01
-0.015
-0.015
-0.015
-0.015
-0.02
-0.015
-0.025
-0.02
-0.025
-0.025
-0.02
-0.025
-0.025
-0.025
-0.02
-0.025
-0.02
-0.025
-0.02
-0.025
-0.02
-0.025
-0.015
-0.02
-0.02
-0.02
-0.015
-0.02
-0.01
0.015
0.085
0.13
0.185
0.125
0.11
0.015
0.0
0.0
-0.005
-0.03
-0.02
-0.06
-0.155
-0.165
0.06
0.97
1.22
0.59
-0.355
-0.355
-0.085
-0.07
-0.055
-0.065
-0.045
-0.06
-0.05
-0.06
-0.045
-0.05
-0.045
-0.055
-0.045
-0.06
-0.055
-0.07
-0.07
-0.085
-0.1
-0.125
-0.13
-0.145
-0.15
-0.15
-0.125
-0.08
-0.02
0.035
0.085
0.105
0.1
0.08
0.055
0.035
0.015
0.01
0.0
0.0
0.0
0.0
0.0
0.0
0.0
0.0
0.0
0.0
0.0
0.0
0.0
0.0
-0.01
-0.01
-0.01
-0.01
-0.015
-0.01
-0.01
-0.015
-0.015
-0.02
-0.02
-0.02
-0.02
-0.02
-0.02
-0.02
-0.015
-0.015
-0.02
-0.02
-0.015
-0.015
-0.02
-0.02
-0.02
-0.02
-0.025
-0.025
-0.025
-0.02
-0.02
-0.02
-0.02
-0.01
0.03
0.11
0.135
0.185
0.12
0.1
0.015
0.01
-0.005
-0.005
-0.025
-0.025
-0.065
-0.165
-0.235
0.32
1.115
1.065
0.43
-0.445
-0.315
-0.055
-0.08
-0.065
-0.065
-0.055
-0.065
-0.055
-0.065
-0.06
-0.065
-0.055
-0.06
-0.055
-0.065
-0.065
-0.08
-0.085
-0.1
-0.11
-0.13
-0.14
-0.155
-0.155
-0.155
-0.12
-0.07
0.0
0.05
0.095
0.105
0.1
0.07
0.055
0.035
0.02
0.01
0.01
0.005
0.01
0.005
0.01
0.01
0.01
0.005
0.005
0.005
0.005
0.0
0.0
0.0
0.0
0.0
0.005
0.0
0.0
0.0
0.0
0.0
0.0
-0.005
-0.005
-0.005
-0.005
-0.01
-0.005
-0.01
-0.01
-0.015
-0.01
-0.01
-0.01
-0.015
-0.015
-0.015
-0.01
-0.02
-0.01
-0.015
-0.01
-0.015
-0.015
-0.02
-0.01
-0.015
-0.01
0.0
0.04
0.12
0.145
0.165
0.12
0.08
0.01
0.005
-0.005
-0.02
-0.02
-0.025
-0.085
-0.155
-0.255
0.5
1.16
0.86
0.255
-0.47
-0.26
-0.045
-0.075
-0.065
-0.065
-0.055
-0.06
-0.055
-0.055
-0.055
-0.055
-0.055
-0.055
-0.055
-0.06
-0.055
-0.08
-0.085
-0.1
-0.105
-0.125
-0.13
-0.155
-0.15
-0.14
-0.115
-0.07
-0.005
0.045
0.085
0.105
0.08
0.07
0.045
0.035
0.015
0.01
0.005
0.0
0.005
0.0
0.005
0.01
0.0
0.005
0.0
0.0
0.0
0.0
-0.005
-0.005
-0.005
-0.015
-0.02
-0.005
-0.005
-0.01
-0.015
-0.02
-0.015
-0.02
-0.015
-0.025
-0.02
-0.02
-0.02
-0.02
-0.03
-0.025
-0.025
-0.025
-0.03
-0.035
-0.025
-0.03
-0.025
-0.025
-0.03
-0.03
-0.025
-0.03
-0.01
0.02
0.105
0.135
0.16
0.115
0.085
-0.005
-0.005
-0.015
-0.015
-0.045
-0.05
-0.095
-0.155
-0.27
0.38
1.105
0.875
0.385
-0.415
-0.265
-0.045
-0.08
-0.075
-0.08
-0.065
-0.075
-0.065
-0.075
-0.07
-0.065
-0.065
-0.075
-0.07
-0.07
-0.07
-0.075
-0.08
-0.095
-0.1
-0.12
-0.12
-0.12
-0.125
-0.11
-0.085
-0.035
0.015
0.055
0.095
0.09
0.075
0.05
0.03
0.02
0.015
0.01
0.005
0.005
0.005
0.015
0.01
0.01
0.01
0.005
0.0
0.005
0.0
0.0
0.0
0.0
-0.005
0.0
-0.01
-0.01
-0.01
-0.01
-0.015
-0.015
-0.015
-0.02
-0.015
-0.02
-0.025
-0.02
-0.025
-0.02
-0.02
-0.02
-0.025
-0.025
-0.025
-0.02
-0.03
-0.02
-0.025
-0.02
-0.03
-0.02
-0.025
-0.01
0.02
0.09
0.125
0.19
0.125
0.11
0.01
0.005
-0.005
-0.01
-0.035
-0.025
-0.06
-0.145
-0.19
0.14
1.0
1.16
0.55
-0.37
-0.32
-0.06
-0.075
-0.055
-0.07
-0.055
-0.07
-0.06
-0.07
-0.055
-0.065
-0.055
-0.065
-0.055
-0.065
-0.065
-0.075
-0.075
-0.1
-0.105
-0.125
-0.13
-0.15
-0.15
-0.15
-0.115
-0.075
-0.01
0.04
0.085
0.1
0.1
0.07
0.055
0.03
0.02
0.01
0.005
0.0
0.005
0.0
0.01
0.0
0.005
0.005
0.01
0.005
0.005
0.01
0.005
0.0
0.0
0.0
0.0
0.0
0.0
-0.005
-0.005
-0.01
-0.005
-0.01
-0.01
-0.02
-0.01
-0.015
-0.015
-0.015
-0.02
-0.02
-0.02
-0.02
-0.02
-0.025
-0.02
-0.025
-0.02
-0.025
-0.02
-0.025
-0.02
-0.03
-0.02
-0.03
-0.02
-0.03
-0.02
-0.025
-0.02
-0.03
-0.015
0.005
0.085
0.13
0.185
0.125
0.11
0.02
0.01
-0.005
0.0
-0.03
-0.02
-0.055
-0.155
-0.175
0.03
0.935
1.21
0.605
-0.335
-0.38
-0.09
-0.065
-0.055
-0.065
-0.055
-0.06
-0.05
-0.055
-0.05
-0.055
-0.045
-0.05
-0.045
-0.055
-0.05
-0.07
-0.07
-0.09
-0.1
-0.125
-0.13
-0.15
-0.155
-0.16
-0.135
-0.095
-0.035
0.025
0.07
0.095
0.1
0.075
0.055
0.03
0.02
0.005
0.005
0.0
0.0
0.0
0.005
0.0
0.005
0.005
0.005
0.0
0.005
0.0
0.0
0.0
0.0
0.0
0.0
-0.005
-0.005
-0.005
-0.005
-0.005
-0.005
-0.01
-0.005
-0.01
-0.01
-0.015
-0.01
-0.02
-0.01
-0.015
-0.01
-0.015
-0.015
-0.015
-0.01
-0.02
-0.015
-0.02
-0.015
-0.015
-0.005
-0.015
-0.01
-0.02
-0.01
-0.02
-0.01
-0.02
-0.01
-0.02
-0.005
0.01
0.08
0.135
0.18
0.12
0.115
0.02
0.005
-0.005
-0.005
-0.035
-0.02
-0.055
-0.15
-0.17
-0.04
0.89
1.23
0.64
-0.28
-0.405
-0.12
-0.07
-0.065
-0.075
-0.055
-0.07
-0.06
-0.07
-0.055
-0.065
-0.055
-0.06
-0.05
-0.06
-0.06
-0.075
-0.075
-0.1
-0.1
-0.12
-0.13
-0.145
-0.145
-0.15
-0.125
-0.09
-0.03
0.02
0.075
0.1
0.105
0.08
0.06
0.035
0.025
0.01
0.005
0.0
0.005
0.005
0.005
0.0
0.0
0.005
0.0
0.0
0.0
0.0
0.0
-0.005
-0.005
-0.005
-0.005
-0.005
-0.01
-0.015
-0.015
-0.015
-0.015
-0.015
-0.015
-0.025
-0.02
-0.025
-0.02
-0.03
-0.025
-0.03
-0.02
-0.025
-0.025
-0.025
-0.02
-0.03
-0.025
-0.025
-0.02
-0.03
-0.015
-0.03
-0.015
-0.025
-0.015
-0.03
-0.005
0.015
0.065
0.13
0.175
0.13
0.12
0.04
0.0
-0.01
-0.01
-0.035
-0.035
-0.055
-0.145
-0.15
-0.155
0.72
1.18
0.7
-0.09
-0.445
-0.175
-0.06
-0.075
-0.07
-0.065
-0.07
-0.065
-0.07
-0.06
-0.065
-0.055
-0.055
-0.05
-0.065
-0.06
-0.07
-0.07
-0.09
-0.095
-0.11
-0.12
-0.14
-0.14
-0.15
-0.125
-0.095
-0.045
0.015
0.07
0.09
0.1
0.08
0.06
0.04
0.03
0.02
0.01
0.005
0.01
0.01
0.01
0.01
0.015
0.0
0.015
0.005
0.0
0.005
0.0
0.0
0.0
-0.005
-0.005
-0.005
-0.005
-0.015
0.0
-0.01
-0.02
-0.015
-0.02
-0.025
-0.015
-0.015
-0.015
-0.02
-0.025
-0.02
-0.025
-0.02
-0.03
-0.02
-0.02
-0.025
-0.035
-0.02
-0.03
-0.025
-0.025
-0.03
-0.04
-0.025
-0.025
-0.005
0.025
0.085
0.125
0.185
0.125
0.11
0.015
0.0
-0.02
-0.025
-0.045
-0.04
-0.08
-0.16
-0.24
0.205
1.005
1.005
0.555
-0.37
-0.305
-0.065
-0.075
-0.06
-0.08
-0.06
-0.08
-0.065
-0.075
-0.065
-0.07
-0.06
-0.07
-0.065
-0.07
-0.06
-0.075
-0.07
-0.085
-0.085
-0.105
-0.105
-0.115
-0.115
-0.11
-0.085
-0.04
0.01
0.055
0.09
0.1
0.085
0.065
0.04
0.025
0.015
0.015
0.0
0.0
0.0
0.0
0.005
0.005
0.0
0.0
0.0
0.0
0.0
0.0
-0.01
-0.005
-0.015
-0.01
-0.015
-0.015
-0.02
-0.02
-0.025
-0.02
-0.03
-0.02
-0.025
-0.025
-0.035
-0.03
-0.03
-0.03
-0.035
-0.035
-0.04
-0.03
-0.035
-0.03
-0.04
-0.03
-0.045
-0.035
-0.045
-0.035
-0.045
-0.03
0.0
0.045
0.115
0.17
0.135
0.11
0.045
0.0
-0.015
-0.025
-0.05
-0.045
-0.065
-0.115
-0.15
-0.24
0.655
1.255
0.795
0.005
-0.43
-0.19
-0.065
-0.08
-0.08
-0.07
-0.07
-0.07
-0.075
-0.065
-0.07
-0.06
-0.065
-0.055
-0.065
-0.06
-0.07
-0.07
-0.085
-0.095
-0.11
-0.125
-0.14
-0.145
-0.15
-0.13
-0.095
-0.035
0.02
0.07
0.095
0.095
0.08
0.055
0.03
0.015
0.0
0.0
-0.005
0.0
0.0
0.0
0.0
0.0
-0.01
-0.005
-0.005
-0.01
-0.01
-0.01
-0.01
-0.01
-0.015
-0.01
-0.015
-0.02
-0.02
-0.025
-0.025
-0.025
-0.025
-0.03
-0.03
-0.025
-0.03
-0.025
-0.03
-0.025
-0.03
-0.025
-0.03
-0.025
-0.025
-0.025
-0.03
-0.025
-0.03
-0.025
-0.03
-0.025
-0.03
-0.03
-0.035
-0.025
-0.025
0.0
0.035
0.115
0.16
0.16
0.125
0.095
0.01
0.0
-0.01
-0.015
-0.035
-0.035
-0.07
-0.165
-0.26
0.385
1.14
1.0
0.34
-0.475
-0.305
-0.055
-0.09
-0.07
-0.08
-0.065
-0.075
-0.065
-0.07
-0.06
-0.07
-0.06
-0.065
-0.06
-0.075
-0.065
-0.08
-0.085
-0.105
-0.11
-0.13
-0.14
-0.155
-0.155
-0.155
-0.12
-0.07
0.0
0.045
0.09
0.1
0.09
0.07
0.045
0.03
0.02
0.0
0.0
0.0
0.005
0.0
0.005
0.005
0.005
0.0
0.005
0.0
0.005
0.0
0.0
0.0
0.0
0.0
0.0
0.0
0.0
0.0
0.0
0.0
0.0
-0.005
-0.01
-0.01
-0.01
-0.01
-0.01
-0.015
-0.015
-0.015
-0.015
-0.015
-0.015
-0.015
-0.015
-0.015
-0.015
-0.015
-0.01
-0.015
-0.01
-0.015
-0.01
-0.015
-0.015
-0.015
-0.015
-0.02
-0.015
-0.02
-0.015
-0.015
0.0
0.035
0.12
0.14
0.175
0.115
0.08
0.01
0.005
-0.005
-0.01
-0.025
-0.025
-0.065
-0.16
-0.25
0.395
1.135
1.0
0.37
-0.46
-0.3
-0.04
-0.07
-0.055
-0.065
-0.055
-0.06
-0.055
-0.06
-0.055
-0.055
-0.045
-0.05
-0.045
-0.055
-0.055
-0.07
-0.075
-0.09
-0.1
-0.12
-0.13
-0.14
-0.145
-0.14
-0.11
-0.065
0.0
0.055
0.095
0.11
0.105
0.08
0.06
0.04
0.03
0.015
0.015
0.01
0.005
0.005
0.01
0.005
0.01
0.005
0.005
0.005
0.0
0.0
0.0
0.0
0.0
0.0
0.0
0.0
0.0
-0.005
-0.005
-0.005
-0.005
-0.01
-0.01
-0.015
-0.015
-0.01
-0.01
-0.015
-0.015
-0.02
-0.02
-0.02
-0.02
-0.025
-0.02
-0.02
-0.02
-0.02
-0.025
-0.025
-0.025
-0.025
-0.03
-0.03
-0.03
-0.025
-0.03
-0.025
-0.03
-0.03
-0.03
-0.025
-0.03
-0.025
-0.025
-0.015
0.005
0.06
0.135
0.17
0.125
0.105
0.03
0.005
0.0
-0.01
-0.03
-0.025
-0.045
-0.13
-0.14
-0.13
0.8
1.25
0.72
-0.125
-0.42
-0.16
-0.05
-0.06
-0.065
-0.055
-0.06
-0.055
-0.055
-0.05
-0.06
-0.045
-0.055
-0.05
-0.055
-0.06
-0.07
-0.075
-0.085
-0.095
-0.11
-0.135
-0.14
-0.15
-0.15
-0.13
-0.095
-0.045
0.01
0.06
0.1
0.105
0.095
0.07
0.05
0.04
0.03
0.025
0.02
0.015
0.015
0.015
0.02
0.02
0.025
0.015
0.015
0.015
0.02
0.015
0.015
0.01
0.015
0.01
0.005
0.01
0.005
0.0
0.0
0.0
0.0
0.0
-0.005
-0.01
0.0
-0.01
-0.005
-0.005
-0.01
-0.01
-0.01
-0.005
0.0
-0.015
-0.015
-0.01
-0.015
-0.01
-0.01
-0.005
-0.005
-0.01
-0.015
-0.01
-0.02
-0.015
-0.01
0.0
-0.01
0.0
-0.015
-0.005
-0.015
0.0
0.025
0.08
0.14
0.195
0.15
0.125
0.04
0.015
0.005
0.0
-0.02
-0.02
-0.04
-0.145
-0.145
-0.1
0.77
1.185
0.705
-0.13
-0.41
-0.15
-0.055
-0.065
-0.065
-0.06
-0.065
-0.055
-0.065
-0.055
-0.06
-0.055
-0.055
-0.045
-0.06
-0.055
-0.07
-0.075
-0.085
-0.095
-0.105
-0.115
-0.13
-0.14
-0.14
-0.125
-0.105
-0.045
0.005
0.06
0.095
0.09
0.085
0.065
0.045
0.03
0.025
0.01
0.01
0.01
0.015
0.015
0.02
0.02
0.015
0.01
0.01
0.0
0.0
0.0
0.0
0.0
0.0
-0.005
-0.005
-0.005
0.0
-0.005
-0.005
-0.005
-0.005
-0.01
-0.005
-0.005
-0.015
-0.015
-0.015
-0.02
-0.02
-0.015
-0.025
-0.025
-0.02
-0.015
-0.02
-0.015
-0.02
-0.02
-0.025
-0.02
-0.02
-0.02
-0.02
-0.02
-0.025
-0.02
-0.03
-0.03
-0.03
-0.025
-0.03
-0.03
-0.03
-0.025
-0.03
-0.015
0.01
0.075
0.125
0.18
0.12
0.105
0.01
0.0
-0.01
-0.015
-0.035
-0.025
-0.06
-0.16
-0.175
0.005
0.925
1.215
0.61
-0.325
-0.395
-0.115
-0.08
-0.07
-0.08
-0.07
-0.08
-0.07
-0.08
-0.065
-0.075
-0.065
-0.07
-0.06
-0.07
-0.06
-0.08
-0.08
-0.095
-0.105
-0.12
-0.13
-0.145
-0.15
-0.15
-0.13
-0.09
-0.025
0.03
0.085
0.11
0.115
0.095
0.07
0.05
0.035
0.02
0.015
0.01
0.01
0.01
0.01
0.01
0.01
0.01
0.005
0.01
0.01
0.005
0.005
0.005
0.0
0.0
0.0
0.0
0.0
0.0
0.0
0.0
-0.005
-0.01
-0.01
-0.015
-0.015
-0.015
-0.015
-0.015
-0.015
-0.015
-0.02
-0.02
-0.02
-0.025
-0.025
-0.025
-0.025
-0.03
-0.03
-0.03
-0.035
-0.03
-0.03
-0.025
-0.03
-0.025
-0.03
-0.025
-0.03
-0.025
-0.035
-0.025
-0.03
-0.02
-0.03
-0.025
-0.035
-0.02
-0.03
-0.02
0.005
0.08
0.12
0.175
0.115
0.105
0.01
0.005
-0.005
-0.01
-0.035
-0.025
-0.06
-0.17
-0.18
0.03
0.945
1.215
0.615
-0.32
-0.4
-0.11
-0.07
-0.065
-0.07
-0.055
-0.065
-0.055
-0.065
-0.055
-0.065
-0.05
-0.06
-0.05
-0.065
-0.06
-0.075
-0.075
-0.1
-0.11
-0.13
-0.14
-0.155
-0.16
-0.16
-0.135
-0.095
-0.035
0.02
0.075
0.1
0.11
0.09
0.07
0.05
0.03
0.02
0.015
0.01
0.005
0.01
0.01
0.01
0.01
0.01
0.01
0.01
0.015
0.01
0.01
0.005
0.005
0.005
0.0
0.0
0.0
0.0
0.0
0.0
0.0
0.0
0.0
-0.005
0.0
-0.005
0.0
0.0
-0.005
-0.005
-0.005
-0.01
-0.005
-0.005
-0.015
-0.01
-0.015
-0.015
-0.015
-0.015
-0.015
-0.015
-0.015
-0.01
-0.015
-0.005
-0.015
-0.01
-0.01
-0.005
-0.015
-0.01
-0.01
-0.005
-0.015
0.0
0.025
0.09
0.145
0.19
0.14
0.13
0.035
0.02
0.005
0.005
-0.015
-0.005
-0.05
-0.155
-0.165
0.01
0.91
1.185
0.65
-0.28
-0.4
-0.11
-0.065
-0.055
-0.06
-0.05
-0.06
-0.045
-0.065
-0.045
-0.055
-0.05
-0.05
-0.05
-0.065
-0.06
-0.07
-0.075
-0.095
-0.095
-0.115
-0.12
-0.145
-0.15
-0.15
-0.135
-0.095
-0.035
0.01
0.06
0.095
0.095
0.085
0.055
0.04
0.025
0.025
0.005
0.005
0.01
0.01
0.005
0.0
0.01
0.01
0.0
0.005
0.01
0.005
0.005
0.0
0.0
0.0
0.0
0.0
-0.005
0.0
-0.005
-0.005
-0.005
-0.005
-0.01
-0.02
-0.015
-0.01
-0.015
-0.015
-0.015
-0.02
-0.02
-0.01
-0.01
-0.01
-0.02
-0.015
-0.015
-0.015
-0.025
-0.015
-0.015
-0.01
-0.025
-0.01
-0.02
-0.015
-0.02
-0.015
-0.02
-0.015
-0.025
-0.005
0.015
0.09
0.12
0.185
0.13
0.12
0.02
0.005
-0.005
-0.005
-0.03
-0.02
-0.055
-0.155
-0.19
0.11
0.93
1.095
0.65
-0.29
-0.33
-0.07
-0.055
-0.05
-0.055
-0.045
-0.055
-0.045
-0.06
-0.035
-0.05
-0.035
-0.045
-0.03
-0.045
-0.035
-0.05
-0.05
-0.07
-0.07
-0.095
-0.1
-0.115
-0.11
-0.12
-0.1
-0.055
0.0
0.06
0.105
0.13
0.135
0.11
0.095
0.08
0.07
0.06
0.055
0.05
0.05
0.05
0.05
0.05
0.05
0.055
0.05
0.05
0.045
0.04
0.04
0.04
0.035
0.035
0.035
0.03
0.03
0.03
0.03
0.03
0.025
0.02
0.025
0.02
0.02
0.025
0.015
0.015
0.01
0.01
0.005
0.0
-0.005
-0.005
-0.01
-0.01
-0.015
-0.01
-0.015
-0.01
-0.015
-0.02
-0.02
-0.015
-0.02
-0.015
-0.02
-0.02
-0.025
-0.015
-0.025
-0.015
-0.025
-0.01
0.0
0.05
0.12
0.16
0.145
0.105
0.045
0.005
0.0
-0.005
-0.03
-0.03
-0.05
-0.12
-0.14
-0.175
0.75
1.29
0.755
-0.08
-0.435
-0.175
-0.055
-0.07
-0.07
-0.06
-0.07
-0.065
-0.07
-0.065
-0.065
-0.065
-0.065
-0.065
-0.065
-0.065
-0.07
-0.08
-0.09
-0.1
-0.12
-0.13
-0.145
-0.15
-0.155
-0.14
-0.1
-0.045
0.015
0.07
0.105
0.125
0.11
0.085
0.055
0.04
0.025
0.015
0.005
0.005
0.005
0.005
0.005
0.005
0.005
0.0
0.0
0.0
0.0
0.0
0.0
-0.005
-0.005
-0.005
-0.005
-0.005
-0.005
-0.01
-0.005
-0.005
-0.01
-0.01
-0.015
-0.015
-0.02
-0.015
-0.015
-0.02
-0.02
-0.02
-0.025
-0.02
-0.025
-0.025
-0.025
-0.03
-0.03
-0.03
-0.03
-0.03
-0.03
-0.035
-0.035
-0.035
-0.035
-0.035
-0.035
-0.035
-0.035
-0.035
-0.035
-0.035
-0.035
-0.035
-0.035
-0.035
-0.03
-0.03
-0.015
0.025
0.1
0.125
0.165
0.11
0.075
0.005
0.0
-0.015
-0.025
-0.035
-0.04
-0.085
-0.17
-0.255
0.445
1.175
0.965
0.325
-0.47
-0.29
-0.05
-0.08
-0.065
-0.07
-0.055
-0.06
-0.055
-0.06
-0.055
-0.06
-0.05
-0.05
-0.05
-0.06
-0.065
-0.08
-0.08
-0.1
-0.115
-0.13
-0.145
-0.155
-0.16
-0.155
-0.12
-0.07
-0.005
0.045
0.095
0.115
0.115
0.095
0.07
0.05
0.04
0.025
0.02
0.01
0.01
0.005
0.01
0.01
0.01
0.005
0.005
0.01
0.01
0.01
0.005
0.005
0.005
0.005
0.005
0.005
0.0
0.0
0.0
-0.005
0.0
-0.005
-0.01
-0.01
-0.01
-0.01
-0.015
-0.01
-0.01
-0.01
-0.01
-0.01
-0.015
-0.01
-0.01
-0.01
-0.01
-0.015
-0.015
-0.01
-0.02
-0.015
-0.015
-0.015
-0.015
-0.015
-0.015
-0.015
-0.015
-0.015
-0.015
-0.02
-0.025
-0.015
0.0
0.05
0.13
0.155
0.155
0.125
0.07
0.015
0.01
0.0
-0.01
-0.02
-0.03
-0.095
-0.145
-0.225
0.625
1.235
0.84
0.135
-0.465
-0.235
-0.045
-0.075
-0.065
-0.055
-0.055
-0.05
-0.055
-0.05
-0.045
-0.045
-0.045
-0.045
-0.045
-0.05
-0.055
-0.06
-0.07
-0.09
-0.1
-0.12
-0.13
-0.14
-0.14
-0.135
-0.11
-0.05
0.01
0.07
0.115
0.13
0.125
0.095
0.07
0.05
0.04
0.03
0.025
0.02
0.015
0.02
0.02
0.015
0.015
0.015
0.015
0.015
0.01
0.005
0.01
0.005
0.005
0.005
0.0
0.0
0.0
0.0
0.0
0.0
0.0
-0.005
-0.005
-0.01
-0.005
-0.005
-0.01
-0.01
-0.01
-0.01
-0.015
-0.015
-0.01
-0.01
-0.02
-0.015
-0.025
-0.02
-0.025
-0.02
-0.025
-0.02
-0.025
-0.01
-0.025
-0.02
-0.025
-0.015
-0.025
0.005
0.035
0.1
0.14
0.175
0.13
0.095
0.01
0.0
-0.015
-0.015
-0.04
-0.03
-0.075
-0.18
-0.245
0.22
1.005
0.995
0.525
-0.415
-0.345
-0.08
-0.085
-0.06
-0.07
-0.055
-0.075
-0.065
-0.065
-0.06
-0.065
-0.055
-0.06
-0.06
-0.075
-0.065
-0.085
-0.075
-0.105
-0.105
-0.12
-0.125
-0.14
-0.145
-0.15
-0.12
-0.085
-0.02
0.03
0.065
0.095
0.085
0.065
0.05
0.03
0.02
0.005
0.0
0.0
0.0
0.0
0.0
0.0
0.0
0.005
0.01
0.0
0.0
0.0
0.0
-0.005
-0.005
-0.005
-0.005
-0.005
-0.005
-0.015
-0.015
-0.01
-0.02
-0.02
-0.025
-0.015
-0.015
-0.025
-0.03
-0.025
-0.02
-0.02
-0.025
-0.02
-0.02
-0.025
-0.025
-0.02
-0.02
-0.03
-0.03
-0.02
-0.025
-0.02
-0.025
-0.02
-0.03
-0.015
0.01
0.045
0.12
0.175
0.155
0.125
0.08
0.015
0.0
-0.015
-0.02
-0.035
-0.04
-0.115
-0.125
-0.245
0.52
1.17
0.82
0.235
-0.395
-0.205
-0.04
-0.075
-0.065
-0.07
-0.07
-0.065
-0.065
-0.07
-0.065
-0.06
-0.065
-0.065
-0.06
-0.06
-0.06
-0.065
-0.075
-0.09
-0.1
-0.11
-0.12
-0.13
-0.135
-0.125
-0.09
-0.04
0.01
0.055
0.09
0.1
0.085
0.065
0.045
0.03
0.025
0.01
0.01
0.005
0.0
0.005
0.005
0.015
0.005
0.0
0.0
0.0
0.0
0.0
-0.005
-0.005
-0.01
-0.005
-0.015
-0.015
-0.01
-0.01
-0.015
-0.015
-0.015
-0.02
-0.02
-0.02
-0.025
-0.02
-0.02
-0.025
-0.025
-0.025
-0.025
-0.02
-0.025
-0.025
-0.03
-0.025
-0.025
-0.025
-0.03
-0.02
-0.03
-0.02
-0.03
-0.02
-0.035
-0.025
-0.03
-0.025
-0.03
-0.015
0.01
0.065
0.13
0.175
0.125
0.11
0.025
0.005
-0.005
-0.005
-0.03
-0.03
-0.06
-0.125
-0.14
-0.15
0.79
1.29
0.725
-0.145
-0.415
-0.155
-0.065
-0.07
-0.08
-0.07
-0.08
-0.07
-0.08
-0.075
-0.08
-0.07
-0.075
-0.075
-0.085
-0.08
-0.095
-0.1
-0.11
-0.12
-0.135
-0.15
-0.17
-0.17
-0.18
-0.16
-0.12
-0.06
0.0
0.05
0.085
0.1
0.085
0.06
0.035
0.02
0.0
0.005
0.0
0.0
0.0
0.0
0.0
0.0
0.005
0.0
0.0
0.0
0.0
0.0
0.0
0.0
0.0
-0.005
-0.005
-0.005
-0.01
-0.01
-0.01
-0.015
-0.01
-0.015
-0.015
-0.015
-0.02
-0.02
-0.02
-0.02
-0.02
-0.02
-0.025
-0.02
-0.025
-0.025
-0.03
-0.03
-0.035
-0.03
-0.03
-0.03
-0.035
-0.025
-0.035
-0.025
-0.03
-0.02
-0.03
0.0
0.025
0.095
0.135
0.185
0.125
0.11
0.02
0.005
-0.01
-0.01
-0.035
-0.025
-0.06
-0.17
-0.21
0.145
1.02
1.155
0.54
-0.4
-0.36
-0.075
-0.08
-0.06
-0.065
-0.05
-0.06
-0.05
-0.065
-0.05
-0.06
-0.045
-0.055
-0.05
-0.06
-0.06
-0.08
-0.08
-0.1
-0.11
-0.13
-0.14
-0.155
-0.16
-0.16
-0.135
-0.09
-0.025
0.03
0.085
0.11
0.105
0.085
0.06
0.04
0.025
0.015
0.005
0.005
0.005
0.0
0.005
0.0
0.005
0.0
0.005
0.0
0.0
0.0
0.0
0.0
0.0
0.0
0.0
0.0
0.0
0.0
0.0
0.0
-0.005
-0.005
-0.005
-0.005
-0.01
-0.01
-0.01
-0.01
-0.01
-0.005
-0.015
-0.01
-0.01
-0.01
-0.015
-0.01
-0.01
-0.01
-0.015
-0.015
-0.015
-0.015
-0.015
-0.015
-0.015
-0.01
-0.015
-0.01
-0.015
-0.01
0.01
0.06
0.135
0.16
0.15
0.12
0.05
-0.02
-0.015
-0.015
-0.015
-0.02
-0.015
-0.015
-0.01
-0.02
-0.03
-0.03
-0.025
-0.03
-0.04
-0.045
-0.05
-0.05
-0.06
-0.045
-0.055
-0.055
-0.065
-0.06
-0.06
-0.065
-0.085
-0.065
-0.075
-0.065
-0.08
-0.07
-0.085
-0.06
-0.035
0.04
0.125
0.195
0.125
0.115
-0.03
-0.05
-0.075
-0.075
-0.09
-0.095
-0.135
-0.19
-0.17
0.14
1.08
1.23
0.74
-0.12
-0.195
-0.055
-0.08
-0.075
-0.095
-0.08
-0.095
-0.08
-0.1
-0.075
-0.09
-0.075
-0.08
-0.06
-0.07
-0.05
-0.055
-0.04
-0.04
-0.025
-0.025
-0.01
0.0
0.025
0.055
0.095
0.135
0.18
0.2
0.19
0.155
0.105
0.06
0.03
0.01
0.0
-0.005
-0.005
0.0
0.0
0.005
0.005
0.005
0.01
0.01
0.005
0.01
0.005
0.0
0.0
0.0
0.0
-0.005
-0.005
-0.01
-0.015
-0.02
-0.02
-0.025
-0.025
-0.035
-0.03
-0.035
-0.03
-0.04
-0.035
-0.04
-0.04
-0.045
-0.035
-0.045
-0.035
-0.05
-0.04
-0.01
0.045
0.14
0.175
0.13
0.11
0.01
-0.03
-0.045
-0.05
-0.07
-0.075
-0.1
-0.165
-0.125
-0.11
0.835
1.16
0.74
0.125
-0.355
-0.145
-0.06
-0.07
-0.07
-0.065
-0.07
-0.065
-0.07
-0.065
-0.065
-0.055
-0.055
-0.045
-0.045
-0.035
-0.03
-0.025
-0.02
-0.01
-0.005
0.0
0.015
0.04
0.065
0.1
0.145
0.19
0.21
0.21
0.18
0.12
0.075
0.045
0.01
0.0
0.0
0.0
0.0
0.005
0.01
0.01
0.01
0.015
0.015
0.01
0.01
0.0
0.0
0.0
0.0
0.0
0.0
-0.005
-0.005
-0.015
-0.01
-0.02
-0.02
-0.02
-0.02
-0.025
-0.025
-0.025
-0.025
-0.03
-0.03
-0.04
-0.03
-0.035
-0.035
-0.04
-0.035
-0.04
-0.04
-0.045
-0.04
-0.05
-0.025
0.0
0.085
0.13
0.175
0.11
0.08
-0.015
-0.025
-0.045
-0.045
-0.07
-0.06
-0.105
-0.185
-0.19
0.24
1.035
0.96
0.56
-0.24
-0.33
-0.07
-0.065
-0.06
-0.075
-0.06
-0.07
-0.06
-0.065
-0.05
-0.06
-0.045
-0.05
-0.035
-0.04
-0.03
-0.03
-0.015
-0.02
-0.005
-0.005
0.01
0.02
0.05
0.07
0.11
0.155
0.195
0.21
0.195
0.155
0.105
0.065
0.035
0.015
0.005
0.005
0.005
0.005
0.015
0.015
0.015
0.02
0.015
0.01
0.01
0.005
0.0
0.0
0.0
0.0
0.0
-0.005
-0.01
-0.015
-0.015
-0.02
-0.02
-0.025
-0.025
-0.03
-0.03
-0.035
-0.03
-0.035
-0.03
-0.035
-0.04
-0.045
-0.035
-0.045
-0.04
-0.05
-0.04
-0.05
-0.04
-0.05
-0.045
-0.055
-0.04
-0.01
0.06
0.13
0.17
0.115
0.09
-0.005
-0.03
-0.045
-0.045
-0.075
-0.065
-0.1
-0.195
-0.17
0.08
0.96
1.025
0.585
-0.125
-0.38
-0.105
-0.065
-0.07
-0.08
-0.07
-0.075
-0.065
-0.08
-0.065
-0.07
-0.055
-0.055
-0.045
-0.045
-0.035
-0.035
-0.025
-0.025
-0.01
-0.005
0.005
0.02
0.045
0.065
0.105
0.145
0.19
0.21
0.205
0.165
0.115
0.075
0.04
0.02
0.01
0.01
0.01
0.01
0.015
0.02
0.02
0.02
0.02
0.02
0.02
0.015
0.02
0.01
0.005
0.005
0.0
0.0
0.0
-0.005
-0.01
-0.005
-0.005
-0.015
-0.015
-0.015
-0.02
-0.015
-0.02
-0.02
-0.025
-0.02
-0.025
-0.03
-0.03
-0.03
-0.035
-0.03
-0.03
-0.025
-0.045
-0.04
-0.045
-0.04
-0.05
-0.04
-0.045
-0.035
0.0
0.065
0.12
0.18
0.13
0.1
-0.01
-0.02
-0.045
-0.04
-0.065
-0.06
-0.1
-0.18
-0.195
0.235
1.05
1.005
0.575
-0.22
-0.31
-0.07
-0.065
-0.065
-0.075
-0.055
-0.075
-0.06
-0.07
-0.055
-0.06
-0.055
-0.055
-0.045
-0.04
-0.04
-0.04
-0.015
-0.025
-0.015
0.0
0.005
0.015
0.035
0.065
0.095
0.125
0.17
0.17
0.17
0.135
0.08
0.045
0.015
0.0
-0.005
-0.005
-0.005
-0.005
0.0
-0.005
0.0
0.0
0.0
0.0
0.0
-0.01
-0.005
-0.01
-0.015
-0.015
-0.015
-0.02
-0.025
-0.025
-0.04
-0.035
-0.04
-0.045
-0.05
-0.045
-0.05
-0.05
-0.06
-0.055
-0.06
-0.055
-0.065
-0.055
-0.065
-0.06
-0.07
-0.06
-0.07
-0.06
-0.07
-0.06
-0.065
-0.055
-0.035
0.015
0.1
0.145
0.15
0.1
0.015
-0.03
-0.045
-0.055
-0.075
-0.075
-0.11
-0.165
-0.125
-0.12
0.84
1.215
0.745
0.08
-0.37
-0.135
-0.06
-0.075
-0.08
-0.075
-0.08
-0.075
-0.08
-0.075
-0.075
-0.065
-0.065
-0.055
-0.05
-0.04
-0.04
-0.03
-0.025
-0.02
-0.01
0.0
0.01
0.035
0.06
0.095
0.135
0.18
0.21
0.21
0.17
0.125
0.075
0.04
0.015
0.0
0.0
-0.005
0.0
0.005
0.005
0.01
0.015
0.015
0.015
0.015
0.015
0.015
0.01
0.01
0.005
0.005
0.005
0.005
0.0
0.0
-0.005
-0.01
-0.01
-0.015
-0.015
-0.015
-0.02
-0.02
-0.03
-0.025
-0.03
-0.025
-0.03
-0.035
-0.035
-0.035
-0.04
-0.035
-0.035
-0.04
-0.04
-0.045
-0.04
-0.05
-0.045
-0.05
-0.05
-0.05
-0.05
-0.055
-0.04
-0.005
0.075
0.115
0.17
0.095
0.07
-0.03
-0.035
-0.055
-0.065
-0.08
-0.08
-0.12
-0.17
-0.22
0.425
1.11
0.925
0.445
-0.4
-0.3
-0.06
-0.08
-0.075
-0.08
-0.07
-0.08
-0.07
-0.075
-0.07
-0.07
-0.06
-0.06
-0.045
-0.05
-0.04
-0.04
-0.03
-0.025
-0.01
-0.005
0.005
0.02
0.05
0.075
0.12
0.16
0.2
0.215
0.2
0.155
0.11
0.06
0.03
0.015
0.005
0.0
0.0
0.005
0.01
0.015
0.02
0.02
0.02
0.02
0.02
0.015
0.015
0.01
0.01
0.005
0.005
0.0
0.0
0.0
0.0
-0.005
-0.01
-0.015
-0.015
-0.015
-0.015
-0.015
-0.02
-0.02
-0.025
-0.025
-0.025
-0.025
-0.025
-0.025
-0.03
-0.025
-0.03
-0.03
-0.035
-0.035
-0.04
-0.035
-0.04
-0.04
-0.045
-0.04
-0.05
-0.04
-0.05
-0.045
-0.055
-0.05
-0.055
-0.05
-0.06
-0.05
-0.065
-0.055
-0.035
0.015
0.11
0.13
0.135
0.09
0.01
-0.035
-0.045
-0.05
-0.075
-0.075
-0.1
-0.18
-0.15
-0.15
0.775
1.12
0.695
0.14
-0.435
-0.195
-0.07
-0.085
-0.085
-0.08
-0.08
-0.075
-0.08
-0.075
-0.075
-0.065
-0.065
-0.055
-0.055
-0.05
-0.045
-0.035
-0.03
-0.025
-0.015
-0.005
0.01
0.025
0.05
0.085
0.125
0.17
0.205
0.21
0.19
0.145
0.095
0.055
0.025
0.01
0.0
0.0
0.0
0.005
0.01
0.01
0.015
0.015
0.02
0.015
0.02
0.015
0.015
0.01
0.01
0.01
0.005
0.0
0.0
0.0
0.0
-0.005
-0.005
-0.005
-0.005
-0.01
-0.015
-0.015
-0.015
-0.015
-0.02
-0.02
-0.025
-0.025
-0.025
-0.025
-0.025
-0.025
-0.03
-0.03
-0.035
-0.03
-0.035
-0.035
-0.035
-0.035
-0.04
-0.035
-0.04
-0.04
-0.045
-0.04
-0.045
-0.045
-0.05
-0.05
-0.055
-0.055
-0.055
-0.055
-0.055
-0.055
-0.045
-0.045
0.025
0.07
0.08
0.03
0.01
-0.055
-0.05
-0.06
-0.07
-0.075
-0.085
-0.14
-0.16
-0.22
0.57
1.12
0.82
0.355
-0.435
-0.27
-0.055
-0.075
-0.07
-0.07
-0.065
-0.065
-0.06
-0.065
-0.055
-0.06
-0.055
-0.055
-0.04
-0.045
-0.035
-0.035
-0.025
-0.025
-0.015
-0.005
0.005
0.015
0.04
0.07
0.115
0.16
0.2
0.21
0.195
0.155
0.11
0.065
0.03
0.01
0.0
0.0
0.0
0.0
0.005
0.01
0.015
0.02
0.015
0.02
0.02
0.02
0.015
0.01
0.01
0.01
0.005
0.005
0.0
0.0
0.0
0.0
0.0
0.0
-0.005
-0.005
-0.005
-0.01
-0.01
-0.01
-0.01
-0.015
-0.015
-0.02
-0.015
-0.02
-0.025
-0.025
-0.025
-0.02
-0.025
-0.025
-0.025
-0.03
-0.03
-0.03
-0.03
-0.035
-0.035
-0.04
-0.035
-0.04
-0.04
-0.04
-0.04
-0.045
-0.045
-0.05
-0.045
-0.05
-0.05
-0.055
-0.05
-0.06
-0.055
-0.05
-0.04
0.03
0.075
0.07
0.025
0.0
-0.05
-0.055
-0.06
-0.07
-0.075
-0.09
-0.155
-0.145
-0.185
0.685
1.125
0.75
0.245
-0.44
-0.225
-0.05
-0.075
-0.065
-0.065
-0.065
-0.065
-0.065
-0.06
-0.06
-0.06
-0.055
-0.05
-0.045
-0.045
-0.035
-0.035
-0.025
-0.02
-0.015
-0.005
0.005
0.02
0.05
0.08
0.12
0.165
0.205
0.215
0.195
0.16
0.11
0.06
0.025
0.0
0.0
-0.005
-0.005
0.0
0.0
0.0
0.005
0.005
0.01
0.01
0.01
0.01
0.01
0.005
0.005
0.005
0.005
0.0
0.0
0.0
0.0
0.0
-0.005
-0.005
-0.01
-0.01
-0.01
-0.015
-0.015
-0.02
-0.02
-0.02
-0.02
-0.025
-0.025
-0.025
-0.025
-0.025
-0.02
-0.03
-0.03
-0.03
-0.03
-0.03
-0.03
-0.035
-0.03
-0.035
-0.035
-0.04
-0.04
-0.04
-0.04
-0.045
-0.05
-0.045
-0.05
-0.05
-0.055
-0.055
-0.055
-0.055
-0.055
-0.06
-0.06
-0.045
-0.05
0.01
0.065
0.08
0.035
0.01
-0.06
-0.04
-0.065
-0.065
-0.08
-0.08
-0.13
-0.175
-0.23
0.455
1.1
0.875
0.415
-0.415
-0.305
-0.055
-0.075
-0.065
-0.065
-0.06
-0.065
-0.06
-0.065
-0.055
-0.06
-0.055
-0.055
-0.045
-0.045
-0.035
-0.035
-0.025
-0.025
-0.015
-0.01
0.005
0.02
0.045
0.075
0.115
0.165
0.205
0.22
0.215
0.175
0.125
0.075
0.04
0.015
0.0
-0.005
0.0
0.0
0.005
0.005
0.005
0.01
0.01
0.015
0.01
0.01
0.015
0.01
0.01
0.01
0.005
0.005
0.005
0.0
0.0
0.0
-0.005
-0.005
-0.01
-0.015
-0.015
-0.015
-0.015
-0.015
-0.02
-0.02
-0.02
-0.02
-0.02
-0.02
-0.025
-0.025
-0.025
-0.025
-0.03
-0.025
-0.03
-0.03
-0.035
-0.035
-0.035
-0.03
-0.04
-0.035
-0.04
-0.04
-0.045
-0.04
-0.05
-0.045
-0.05
-0.05
-0.055
-0.05
-0.06
-0.055
-0.06
-0.055
-0.065
-0.05
-0.055
-0.025
0.045
0.08
0.05
0.015
-0.03
-0.045
-0.07
-0.065
-0.085
-0.075
-0.11
-0.2
-0.165
-0.025
0.905
1.09
0.61
-0.055
-0.42
-0.14
-0.065
-0.07
-0.075
-0.065
-0.075
-0.065
-0.07
-0.065
-0.065
-0.055
-0.055
-0.045
-0.05
-0.04
-0.04
-0.035
-0.03
-0.02
-0.02
-0.005
0.005
0.03
0.05
0.09
0.14
0.185
0.215
0.22
0.195
0.15
0.1
0.055
0.025
0.0
-0.005
-0.005
-0.005
-0.005
0.0
0.005
0.005
0.01
0.01
0.01
0.01
0.01
0.01
0.01
0.005
0.005
0.0
0.0
0.0
0.0
-0.005
-0.005
-0.015
-0.01
-0.01
-0.01
-0.015
-0.015
-0.015
-0.015
-0.02
-0.02
-0.02
-0.02
-0.025
-0.025
-0.025
-0.03
-0.03
-0.03
-0.03
-0.03
-0.035
-0.03
-0.035
-0.03
-0.035
-0.035
-0.04
-0.035
-0.045
-0.04
-0.05
-0.04
-0.05
-0.045
-0.055
-0.045
-0.06
-0.055
-0.06
-0.055
-0.065
-0.055
-0.07
-0.055
-0.06
-0.035
0.04
0.075
0.05
0.02
-0.025
-0.045
-0.065
-0.06
-0.08
-0.08
-0.11
-0.2
-0.155
-0.05
0.89
1.105
0.625
-0.02
-0.425
-0.15
-0.065
-0.08
-0.075
-0.065
-0.07
-0.065
-0.07
-0.06
-0.065
-0.06
-0.06
-0.055
-0.05
-0.045
-0.045
-0.035
-0.03
-0.025
-0.02
-0.005
0.005
0.025
0.05
0.09
0.13
0.18
0.215
0.22
0.2
0.155
0.105
0.06
0.025
0.005
-0.005
-0.005
-0.005
0.0
0.0
0.005
0.005
0.01
0.01
0.015
0.015
0.01
0.015
0.01
0.01
0.005
0.005
0.005
0.0
0.0
0.0
0.0
0.0
-0.005
-0.01
-0.005
-0.005
-0.01
-0.01
-0.01
-0.015
-0.02
-0.02
-0.02
-0.02
-0.02
-0.025
-0.025
-0.025
-0.025
-0.03
-0.025
-0.03
-0.03
-0.03
-0.035
-0.035
-0.04
-0.035
-0.035
-0.04
-0.04
-0.045
-0.05
-0.045
-0.05
-0.05
-0.05
-0.055
-0.05
-0.055
-0.05
-0.055
-0.06
-0.05
-0.01
0.065
0.085
0.14
0.06
0.02
-0.05
-0.055
-0.075
-0.08
-0.085
-0.095
-0.145
-0.19
-0.255
0.445
1.075
0.845
0.425
-0.4
-0.305
-0.07
-0.09
-0.085
-0.09
-0.08
-0.085
-0.08
-0.085
-0.075
-0.08
-0.07
-0.075
-0.06
-0.065
-0.05
-0.055
-0.04
-0.04
-0.03
-0.025
-0.01
0.0
0.03
0.055
0.1
0.145
0.195
0.21
0.205
0.165
0.12
0.075
0.035
0.01
0.0
-0.005
-0.005
-0.005
0.0
0.0
0.0
0.005
0.005
0.005
0.005
0.005
0.005
0.005
0.0
0.005
0.0
0.0
0.0
0.0
0.0
-0.005
-0.005
-0.01
-0.01
-0.01
-0.02
-0.02
-0.025
-0.025
-0.025
-0.03
-0.025
-0.03
-0.03
-0.035
-0.035
-0.035
-0.035
-0.04
-0.04
-0.045
-0.04
-0.045
-0.045
-0.045
-0.04
-0.05
-0.04
-0.05
-0.045
-0.055
-0.045
-0.055
-0.045
-0.055
-0.05
-0.06
-0.05
-0.06
-0.05
-0.065
-0.055
-0.065
-0.05
-0.055
0.005
0.06
0.085
0.095
0.01
-0.03
-0.04
-0.075
-0.065
-0.085
-0.08
-0.115
-0.205
-0.16
0.0
0.935
1.105
0.605
-0.085
-0.42
-0.135
-0.07
-0.075
-0.08
-0.065
-0.075
-0.07
-0.075
-0.07
-0.07
-0.06
-0.06
-0.055
-0.055
-0.04
-0.045
-0.04
-0.035
-0.025
-0.02
-0.01
0.0
0.025
0.05
0.085
0.13
0.18
0.215
0.22
0.2
0.155
0.105
0.05
0.02
0.0
-0.01
-0.015
-0.01
-0.005
0.0
0.0
0.0
0.005
0.0
0.005
0.0
0.0
0.0
0.0
0.0
-0.005
0.0
0.0
0.0
-0.005
-0.005
-0.01
-0.01
-0.01
-0.01
-0.01
-0.015
-0.015
-0.015
-0.02
-0.02
-0.02
-0.02
-0.025
-0.025
-0.025
-0.025
-0.03
-0.03
-0.03
-0.03
-0.035
-0.035
-0.035
-0.035
-0.04
-0.035
-0.045
-0.04
-0.045
-0.045
-0.05
-0.04
-0.05
-0.045
-0.055
-0.05
-0.055
-0.05
-0.06
-0.055
-0.065
-0.055
-0.07
-0.05
-0.06
-0.03
0.045
0.08
0.05
0.02
-0.03
-0.045
-0.07
-0.06
-0.08
-0.075
-0.11
-0.2
-0.155
-0.025
0.915
1.11
0.615
-0.06
-0.425
-0.145
-0.07
-0.08
-0.08
-0.07
-0.075
-0.065
-0.075
-0.07
-0.075
-0.065
-0.065
-0.05
-0.055
-0.045
-0.05
-0.035
-0.04
-0.03
-0.025
-0.01
0.0
0.02
0.045
0.085
0.135
0.18
0.21
0.225
0.205
0.16
0.105
0.06
0.025
0.005
-0.005
-0.005
-0.005
0.0
0.0
0.0
0.005
0.01
0.01
0.01
0.01
0.01
0.01
0.005
0.005
0.005
0.0
0.0
0.0
0.0
-0.005
-0.005
-0.005
-0.01
-0.01
-0.01
-0.015
-0.015
-0.02
-0.02
-0.025
-0.02
-0.025
-0.025
-0.025
-0.03
-0.03
-0.035
-0.035
-0.035
-0.04
-0.04
-0.04
-0.04
-0.04
-0.05
-0.045
-0.05
-0.045
-0.05
-0.05
-0.055
-0.055
-0.06
-0.055
-0.065
-0.055
-0.065
-0.06
-0.07
-0.065
-0.075
-0.065
-0.075
-0.06
-0.05
0.01
0.05
0.07
0.06
0.0
-0.065
-0.05
-0.08
-0.08
-0.1
-0.095
-0.135
-0.22
-0.23
0.25
1.045
0.97
0.49
-0.345
-0.375
-0.09
-0.095
-0.085
-0.095
-0.085
-0.09
-0.08
-0.09
-0.075
-0.085
-0.07
-0.075
-0.06
-0.06
-0.055
-0.055
-0.045
-0.045
-0.035
-0.03
-0.01
0.0
0.025
0.05
0.09
0.135
0.185
0.205
0.21
0.18
0.13
0.08
0.035
0.005
-0.01
-0.02
-0.02
-0.02
-0.015
-0.01
-0.01
-0.005
-0.005
0.0
0.0
-0.005
-0.005
-0.005
-0.005
-0.005
-0.005
-0.01
-0.01
-0.01
-0.015
-0.015
-0.02
-0.025
-0.02
-0.025
-0.03
-0.03
-0.03
-0.035
-0.03
-0.035
-0.035
-0.04
-0.035
-0.045
-0.045
-0.045
-0.045
-0.045
-0.045
-0.055
-0.05
-0.055
-0.05
-0.055
-0.055
-0.06
-0.05
-0.055
-0.055
-0.06
-0.055
-0.065
-0.055
-0.065
-0.06
-0.065
-0.06
-0.07
-0.065
-0.05
0.0
0.08
0.105
0.135
0.075
0.015
-0.045
-0.06
-0.07
-0.085
-0.09
-0.11
-0.175
-0.16
-0.19
0.705
1.115
0.72
0.2
-0.46
-0.24
-0.075
-0.095
-0.095
-0.085
-0.09
-0.085
-0.085
-0.08
-0.08
-0.075
-0.07
-0.065
-0.06
-0.06
-0.05
-0.045
-0.04
-0.035
-0.03
-0.015
0.0
0.015
0.045
0.08
0.12
0.17
0.21
0.23
0.215
0.17
0.115
0.07
0.03
0.005
-0.005
-0.01
-0.01
-0.01
-0.005
0.0
0.0
0.0
0.0
0.0
0.0
0.0
0.0
0.0
0.0
-0.005
-0.01
-0.005
-0.01
-0.01
-0.01
-0.015
-0.015
-0.02
-0.025
-0.025
-0.025
-0.025
-0.035
-0.03
-0.035
-0.035
-0.035
-0.035
-0.04
-0.04
-0.04
-0.04
-0.045
-0.045
-0.05
-0.05
-0.05
-0.055
-0.055
-0.05
-0.055
-0.055
-0.055
-0.055
-0.06
-0.06
-0.065
-0.06
-0.06
-0.06
-0.06
-0.065
-0.065
-0.065
-0.05
-0.01
0.07
0.1
0.16
0.085
0.05
-0.045
-0.05
-0.06
-0.07
-0.085
-0.09
-0.145
-0.185
-0.24
0.485
1.105
0.865
0.4
-0.425
-0.305
-0.07
-0.09
-0.08
-0.085
-0.075
-0.085
-0.08
-0.08
-0.075
-0.075
-0.06
-0.065
-0.055
-0.055
-0.04
-0.045
-0.03
-0.03
-0.015
-0.015
0.0
0.02
0.045
0.07
0.115
0.16
0.205
0.23
0.215
0.18
0.135
0.08
0.04
0.01
0.0
0.0
0.0
0.0
-0.005
0.005
0.005
0.0
0.01
0.01
0.005
0.0
0.005
0.01
0.0
0.0
-0.005
-0.005
-0.005
-0.01
-0.01
-0.01
-0.02
-0.02
-0.025
-0.025
-0.02
-0.03
-0.025
-0.035
-0.035
-0.035
-0.04
-0.05
-0.04
-0.045
-0.045
-0.05
-0.04
-0.055
-0.045
-0.065
-0.05
-0.055
-0.055
-0.055
-0.055
-0.065
-0.065
-0.065
-0.065
-0.065
-0.065
-0.07
-0.06
-0.07
-0.065
-0.045
0.0
0.085
0.115
0.135
0.085
0.01
-0.05
-0.06
-0.07
-0.085
-0.09
-0.115
-0.195
-0.165
-0.175
0.725
1.13
0.715
0.19
-0.405
-0.19
-0.075
-0.095
-0.095
-0.09
-0.09
-0.09
-0.09
-0.085
-0.08
-0.08
-0.075
-0.07
-0.065
-0.06
-0.055
-0.05
-0.04
-0.04
-0.03
-0.015
0.0
0.01
0.035
0.07
0.11
0.16
0.2
0.21
0.195
0.155
0.1
0.06
0.025
0.0
-0.005
-0.01
-0.01
-0.01
-0.005
0.0
0.0
0.0
0.0
0.0
0.0
0.005
0.0
0.0
0.0
0.0
0.0
-0.005
-0.005
-0.005
-0.015
-0.015
-0.02
-0.02
-0.025
-0.025
-0.03
-0.025
-0.03
-0.03
-0.035
-0.03
-0.035
-0.04
-0.04
-0.04
-0.045
-0.045
-0.045
-0.045
-0.045
-0.05
-0.05
-0.05
-0.05
-0.055
-0.055
-0.055
-0.055
-0.06
-0.05
-0.06
-0.05
-0.06
-0.055
-0.065
-0.06
-0.065
-0.06
-0.03
0.045
0.105
0.155
0.105
0.075
-0.03
-0.04
-0.055
-0.065
-0.09
-0.085
-0.125
-0.215
-0.185
0.06
0.98
1.09
0.58
-0.185
-0.4
-0.12
-0.08
-0.085
-0.09
-0.08
-0.085
-0.08
-0.09
-0.08
-0.08
-0.065
-0.07
-0.055
-0.06
-0.05
-0.05
-0.04
-0.045
-0.03
-0.03
-0.015
0.0
0.02
0.045
0.085
0.13
0.18
0.21
0.22
0.195
0.15
0.095
0.05
0.015
0.0
-0.005
-0.015
-0.01
-0.01
-0.01
0.0
0.0
0.0
0.0
0.0
0.0
0.0
0.0
-0.005
-0.005
-0.005
-0.005
-0.01
-0.015
-0.015
-0.015
-0.02
-0.02
-0.025
-0.03
-0.025
-0.03
-0.035
-0.03
-0.03
-0.035
-0.035
-0.035
-0.035
-0.04
-0.04
-0.04
-0.04
-0.04
-0.045
-0.045
-0.05
-0.05
-0.05
-0.05
-0.05
-0.055
-0.055
-0.06
-0.055
-0.06
-0.055
-0.06
-0.055
-0.065
-0.06
-0.065
-0.05
-0.015
0.06
0.1
0.16
0.085
0.06
-0.04
-0.05
-0.065
-0.07
-0.09
-0.09
-0.135
-0.205
-0.235
0.345
1.095
0.95
0.465
-0.385
-0.35
-0.08
-0.09
-0.085
-0.09
-0.08
-0.09
-0.08
-0.085
-0.075
-0.08
-0.065
-0.07
-0.055
-0.06
-0.045
-0.045
-0.04
-0.035
-0.025
-0.025
-0.005
0.005
0.03
0.055
0.1
0.145
0.195
0.215
0.215
0.185
0.135
0.085
0.04
0.01
-0.005
-0.01
-0.01
-0.01
-0.005
0.0
0.0
0.0
0.0
0.0
0.0
0.0
0.0
0.0
-0.005
-0.005
-0.005
-0.01
-0.01
-0.01
-0.015
-0.015
-0.025
-0.025
-0.025
-0.025
-0.03
-0.03
-0.03
-0.035
-0.035
-0.035
-0.04
-0.04
-0.04
-0.04
-0.045
-0.045
-0.05
-0.045
-0.05
-0.05
-0.05
-0.05
-0.055
-0.055
-0.06
-0.055
-0.06
-0.055
-0.06
-0.065
-0.065
-0.065
-0.07
-0.07
-0.07
-0.07
-0.05
-0.005
0.08
0.105
0.145
0.08
0.025
-0.045
-0.055
-0.065
-0.08
-0.09
-0.105
-0.165
-0.165
-0.22
0.615
1.12
0.78
0.295
-0.46
-0.275
-0.075
-0.1
-0.095
-0.09
-0.09
-0.09
-0.09
-0.09
-0.085
-0.08
-0.075
-0.07
-0.065
-0.06
-0.055
-0.05
-0.04
-0.04
-0.025
-0.02
-0.01
0.01
0.035
0.065
0.115
0.16
0.2
0.22
0.21
0.17
0.12
0.07
0.03
0.0
-0.005
-0.015
-0.015
-0.01
-0.01
-0.005
0.0
0.0
0.0
0.0
0.0
0.0
0.0
0.0
-0.005
-0.005
-0.01
-0.01
-0.015
-0.015
-0.02
-0.02
-0.03
-0.03
-0.03
-0.035
-0.035
-0.04
-0.04
-0.04
-0.045
-0.045
-0.045
-0.045
-0.05
-0.05
-0.055
-0.05
-0.055
-0.055
-0.055
-0.055
-0.06
-0.055
-0.06
-0.055
-0.065
-0.06
-0.07
-0.06
-0.07
-0.065
-0.07
-0.065
-0.07
-0.065
-0.025
0.045
0.1
0.155
0.085
0.06
-0.04
-0.05
-0.07
-0.075
-0.095
-0.09
-0.135
-0.215
-0.225
0.205
1.035
0.99
0.515
-0.305
-0.38
-0.1
-0.09
-0.09
-0.105
-0.09
-0.1
-0.085
-0.1
-0.08
-0.085
-0.075
-0.075
-0.06
-0.065
-0.05
-0.055
-0.045
-0.045
-0.025
-0.025
-0.01
0.0
0.025
0.05
0.09
0.135
0.175
0.205
0.21
0.175
0.135
0.075
0.03
0.005
-0.01
-0.015
-0.015
-0.01
-0.01
0.0
-0.005
-0.01
-0.005
0.005
0.0
0.0
0.0
-0.005
-0.005
-0.01
-0.01
-0.01
-0.01
-0.015
-0.02
-0.02
-0.02
-0.025
-0.03
-0.03
-0.03
-0.035
-0.035
-0.04
-0.035
-0.045
-0.045
-0.045
-0.05
-0.045
-0.055
-0.055
-0.045
-0.05
-0.05
-0.06
-0.06
-0.055
-0.055
-0.07
-0.065
-0.055
-0.065
-0.07
-0.065
-0.075
-0.06
-0.02
0.045
0.1
0.16
0.095
0.065
-0.04
-0.055
-0.075
-0.075
-0.095
-0.09
-0.14
-0.2
-0.25
0.355
1.09
0.965
0.535
-0.3
-0.265
-0.07
-0.085
-0.08
-0.1
-0.085
-0.09
-0.08
-0.09
-0.075
-0.08
-0.07
-0.075
-0.055
-0.06
-0.045
-0.045
-0.035
-0.03
-0.02
-0.015
0.0
0.01
0.035
0.06
0.1
0.145
0.185
0.205
0.2
0.165
0.12
0.07
0.035
0.01
0.0
0.0
0.0
0.0
0.0
0.0
0.005
0.01
0.01
0.01
0.015
0.015
0.01
0.005
0.005
0.005
0.0
0.0
0.0
0.0
-0.01
-0.01
-0.015
-0.025
-0.03
-0.03
-0.035
-0.035
-0.04
-0.045
-0.045
-0.05
-0.05
-0.055
-0.055
-0.06
-0.055
-0.07
-0.065
-0.075
-0.07
-0.075
-0.075
-0.085
-0.08
-0.09
-0.085
-0.1
-0.095
-0.105
-0.105
-0.115
-0.11
-0.125
-0.12
-0.09
-0.02
0.03
0.085
0.025
0.0
-0.12
-0.135
-0.155
-0.165
-0.195
-0.19
-0.235
-0.325
-0.3
-0.07
0.85
0.98
0.45
-0.33
-0.54
-0.26
-0.23
-0.235
-0.245
-0.235
-0.245
-0.24
-0.245
-0.245
-0.245
-0.235
-0.24
-0.23
-0.235
-0.22
-0.225
-0.215
-0.215
-0.205
-0.2
-0.185
-0.175
-0.15
-0.125
-0.085
-0.035
0.005
0.04
0.045
0.025
-0.015
-0.07
-0.115
-0.145
-0.17
-0.175
-0.175
-0.17
-0.165
-0.16
-0.155
-0.15
-0.145
-0.14
-0.14
-0.13
-0.135
-0.13
-0.13
-0.13
-0.13
-0.13
-0.13
-0.13
-0.13
-0.135
-0.13
-0.13
-0.13
-0.13
-0.13
-0.13
-0.13
-0.125
-0.13
-0.125
-0.125
-0.125
-0.125
-0.12
-0.12
-0.12
-0.12
-0.12
-0.115
-0.12
-0.115
-0.115
-0.115
-0.115
-0.11
-0.115
-0.11
-0.115
-0.11
-0.115
-0.105
-0.115
-0.105
-0.115
-0.1
-0.11
-0.1
-0.07
0.005
0.075
0.125
0.075
0.045
-0.055
-0.07
-0.085
-0.085
-0.105
-0.1
-0.135
-0.235
-0.195
0.035
0.96
1.065
0.575
-0.155
-0.41
-0.135
-0.085
-0.095
-0.095
-0.085
-0.095
-0.085
-0.09
-0.075
-0.08
-0.065
-0.07
-0.06
-0.06
-0.045
-0.045
-0.035
-0.035
-0.02
-0.02
0.0
0.01
0.03
0.055
0.095
0.145
0.19
0.22
0.23
0.21
0.165
0.115
0.07
0.04
0.02
0.01
0.01
0.01
0.015
0.015
0.02
0.025
0.025
0.03
0.03
0.03
0.03
0.025
0.025
0.02
0.02
0.025
0.02
0.02
0.015
0.015
0.015
0.01
0.005
0.005
0.005
0.005
0.005
0.0
0.005
0.0
0.0
0.0
0.0
-0.005
0.0
-0.005
0.0
-0.005
-0.005
-0.005
-0.005
-0.005
-0.005
-0.005
-0.01
-0.01
-0.01
-0.01
-0.015
-0.015
-0.015
-0.015
-0.02
-0.015
-0.02
-0.005
0.03
0.125
0.145
0.2
0.125
0.085
0.0
-0.005
-0.02
-0.03
-0.04
-0.05
-0.1
-0.145
-0.2
0.5
1.135
0.905
0.455
-0.385
-0.275
-0.03
-0.05
-0.045
-0.05
-0.04
-0.045
-0.04
-0.045
-0.03
-0.035
-0.03
-0.03
-0.02
-0.015
-0.01
-0.01
0.0
0.005
0.01
0.015
0.035
0.05
0.075
0.1
0.145
0.19
0.23
0.245
0.245
0.21
0.16
0.115
0.07
0.04
0.025
0.02
0.03
0.025
0.025
0.025
0.035
0.035
0.03
0.03
0.03
0.04
0.025
0.03
0.025
0.02
0.015
0.015
0.02
0.01
0.0
0.01
0.0
0.0
0.0
-0.005
-0.005
-0.01
-0.015
-0.005
-0.01
-0.01
-0.025
-0.015
-0.02
-0.025
-0.035
-0.025
-0.025
-0.03
-0.03
-0.03
-0.03
-0.045
-0.04
-0.04
-0.025
-0.045
-0.03
-0.045
-0.04
-0.055
-0.035
0.015
0.09
0.13
0.18
0.125
0.08
-0.02
-0.015
-0.045
-0.055
-0.065
-0.065
-0.12
-0.165
-0.225
0.45
1.15
0.955
0.54
-0.285
-0.225
-0.04
-0.065
-0.065
-0.075
-0.065
-0.085
-0.065
-0.075
-0.065
-0.08
-0.065
-0.06
-0.06
-0.055
-0.045
-0.05
-0.035
-0.035
-0.025
-0.015
0.0
0.005
0.035
0.05
0.09
0.13
0.17
0.18
0.175
0.135
0.095
0.05
0.015
0.0
-0.015
-0.015
-0.015
-0.01
-0.005
-0.01
0.0
0.005
0.0
0.0
0.005
0.0
0.0
0.0
0.005
0.0
0.0
-0.005
-0.005
-0.01
-0.015
-0.02
-0.015
-0.025
-0.025
-0.03
-0.03
-0.035
-0.035
-0.04
-0.035
-0.045
-0.045
-0.045
-0.045
-0.055
-0.05
-0.055
-0.05
-0.055
-0.05
-0.055
-0.05
-0.06
-0.055
-0.06
-0.055
-0.035
0.015
0.095
0.135
0.14
0.085
0.01
-0.035
-0.045
-0.055
-0.075
-0.075
-0.1
-0.16
-0.13
-0.155
0.755
1.165
0.765
0.155
-0.42
-0.19
-0.065
-0.08
-0.08
-0.075
-0.075
-0.07
-0.075
-0.07
-0.065
-0.06
-0.055
-0.045
-0.045
-0.04
-0.035
-0.03
-0.025
-0.015
-0.01
0.0
0.01
0.03
0.06
0.09
0.135
0.185
0.225
0.235
0.215
0.16
0.11
0.06
0.03
0.0
-0.005
-0.01
-0.01
-0.01
0.0
0.0
0.005
0.005
0.01
0.01
0.005
0.005
0.0
0.0
0.0
0.0
0.0
-0.005
-0.005
-0.01
-0.015
-0.02
-0.025
-0.025
-0.03
-0.03
-0.03
-0.03
-0.035
-0.035
-0.04
-0.04
-0.045
-0.04
-0.05
-0.045
-0.055
-0.05
-0.055
-0.055
-0.055
-0.055
-0.06
-0.06
-0.065
-0.06
-0.035
0.005
0.095
0.115
0.14
0.075
0.01
-0.045
-0.055
-0.065
-0.085
-0.09
-0.1
-0.165
-0.155
-0.21
0.65
1.115
0.76
0.27
-0.45
-0.255
-0.07
-0.095
-0.085
-0.085
-0.08
-0.08
-0.08
-0.08
-0.075
-0.07
-0.065
-0.06
-0.055
-0.05
-0.045
-0.045
-0.035
-0.03
-0.02
-0.015
0.0
0.015
0.04
0.07
0.115
0.17
0.205
0.215
0.2
0.155
0.105
0.06
0.025
0.0
0.0
-0.01
-0.005
-0.005
0.0
0.0
0.005
0.005
0.005
0.005
0.005
0.0
0.0
0.0
-0.005
-0.005
-0.01
-0.015
-0.015
-0.015
-0.02
-0.025
-0.025
-0.03
-0.03
-0.03
-0.035
-0.04
-0.035
-0.04
-0.035
-0.04
-0.04
-0.05
-0.045
-0.05
-0.05
-0.055
-0.05
-0.055
-0.05
-0.06
-0.055
-0.065
-0.055
-0.06
-0.055
-0.06
-0.05
-0.025
0.045
0.12
0.16
0.12
0.09
-0.01
-0.035
-0.05
-0.045
-0.07
-0.07
-0.095
-0.19
-0.15
0.005
0.94
1.1
0.625
-0.045
-0.395
-0.125
-0.06
-0.065
-0.065
-0.055
-0.06
-0.05
-0.06
-0.05
-0.05
-0.04
-0.045
-0.03
-0.03
-0.015
-0.02
-0.01
-0.005
0.0
0.0
0.015
0.03
0.05
0.075
0.11
0.15
0.2
0.225
0.23
0.2
0.155
0.1
0.06
0.03
0.015
0.01
0.005
0.0
0.01
0.015
0.015
0.005
0.02
0.02
0.01
0.015
0.015
0.01
0.005
0.01
0.0
0.0
0.0
-0.005
-0.01
-0.025
-0.015
-0.02
-0.025
-0.025
-0.025
-0.035
-0.035
-0.03
-0.045
-0.045
-0.03
-0.045
-0.04
-0.045
-0.05
-0.05
-0.045
-0.06
-0.05
-0.055
-0.045
-0.055
-0.045
-0.005
0.055
0.1
0.17
0.12
0.09
-0.035
-0.035
-0.05
-0.07
-0.09
-0.08
-0.12
-0.195
-0.215
0.205
1.04
1.035
0.6
-0.205
-0.265
-0.06
-0.08
-0.08
-0.095
-0.08
-0.095
-0.075
-0.085
-0.075
-0.075
-0.07
-0.09
-0.065
-0.065
-0.06
-0.06
-0.045
-0.04
-0.04
-0.03
-0.015
-0.005
0.01
0.025
0.08
0.115
0.155
0.165
0.15
0.11
0.065
0.03
-0.005
-0.02
-0.03
-0.045
-0.04
-0.035
-0.035
-0.03
-0.035
-0.03
-0.025
-0.03
-0.025
-0.025
-0.02
-0.025
-0.025
-0.025
-0.035
-0.035
-0.03
-0.04
-0.035
-0.04
-0.045
-0.045
-0.05
-0.05
-0.05
-0.055
-0.05
-0.055
-0.055
-0.06
-0.055
-0.065
-0.06
-0.065
-0.065
-0.07
-0.065
-0.07
-0.065
-0.07
-0.07
-0.04
0.0
0.09
0.12
0.14
0.075
0.005
-0.05
-0.055
-0.07
-0.09
-0.09
-0.1
-0.155
-0.15
-0.225
0.585
1.155
0.86
0.31
-0.415
-0.24
-0.07
-0.095
-0.09
-0.095
-0.09
-0.09
-0.09
-0.09
-0.085
-0.08
-0.07
-0.07
-0.065
-0.06
-0.05
-0.045
-0.04
-0.03
-0.025
-0.015
0.0
0.015
0.04
0.07
0.12
0.165
0.2
0.205
0.19
0.14
0.09
0.045
0.01
-0.01
-0.02
-0.02
-0.02
-0.015
-0.01
-0.005
-0.005
-0.005
-0.005
-0.005
-0.005
-0.005
-0.005
-0.015
-0.015
-0.02
-0.02
-0.02
-0.025
-0.03
-0.03
-0.035
-0.035
-0.045
-0.04
-0.05
-0.05
-0.05
-0.045
-0.055
-0.055
-0.06
-0.055
-0.065
-0.06
-0.07
-0.065
-0.07
-0.065
-0.075
-0.065
-0.075
-0.065
-0.075
-0.065
-0.035
0.015
0.095
0.13
0.11
0.07
-0.01
-0.05
-0.06
-0.07
-0.09
-0.09
-0.115
-0.185
-0.15
-0.14
0.795
1.095
0.67
0.1
-0.44
-0.205
-0.08
-0.1
-0.1
-0.09
-0.095
-0.09
-0.09
-0.085
-0.09
-0.08
-0.08
-0.075
-0.07
-0.065
-0.06
-0.055
-0.05
-0.045
-0.035
-0.025
-0.01
0.005
0.03
0.065
0.105
0.15
0.18
0.185
0.155
0.115
0.06
0.015
-0.01
-0.025
-0.035
-0.04
-0.04
-0.035
-0.035
-0.03
-0.025
-0.025
-0.025
-0.025
-0.035
-0.03
-0.04
-0.04
-0.045
-0.045
-0.05
-0.055
-0.06
-0.065
-0.065
-0.07
-0.07
-0.075
-0.08
-0.08
-0.08
-0.08
-0.08
-0.09
-0.08
-0.09
-0.09
-0.095
-0.09
-0.105
-0.095
-0.1
-0.095
-0.11
-0.095
-0.105
-0.1
-0.11
-0.1
-0.055
0.0
0.06
0.125
0.055
0.025
-0.08
-0.09
-0.105
-0.11
-0.135
-0.125
-0.17
-0.255
-0.26
0.1
0.965
0.955
0.515
-0.265
-0.405
-0.15
-0.135
-0.145
-0.155
-0.14
-0.155
-0.145
-0.16
-0.15
-0.16
-0.155
-0.145
-0.145
-0.16
-0.14
-0.15
-0.14
-0.145
-0.155
-0.145
-0.135
-0.13
-0.11
-0.105
-0.065
-0.035
0.0
0.0
0.0
-0.05
-0.11
-0.145
-0.195
-0.225
-0.235
-0.25
-0.265
-0.26
-0.27
-0.265
-0.27
-0.285
-0.275
-0.29
-0.305
-0.295
-0.305
-0.315
-0.32
-0.325
-0.335
-0.34
-0.34
-0.355
-0.355
-0.36
-0.355
-0.37
-0.365
-0.375
-0.365
-0.365
-0.365
-0.37
-0.365
-0.365
-0.375
-0.385
-0.36
-0.38
-0.35
-0.325
-0.275
-0.175
-0.14
-0.135
-0.165
-0.265
-0.31
-0.315
-0.33
-0.33
-0.35
-0.365
-0.435
-0.38
-0.355
0.62
1.035
0.585
-0.065
-0.5
-0.325
-0.27
-0.275
-0.28
-0.265
-0.265
-0.26
-0.265
-0.25
-0.255
-0.24
-0.235
-0.21
-0.21
-0.2
-0.195
-0.185
-0.175
-0.165
-0.15
-0.135
-0.115
-0.095
-0.065
-0.035
0.01
0.045
0.08
0.075
0.04
0.0
-0.035
-0.065
-0.085
-0.095
-0.09
-0.095
-0.09
-0.085
-0.075
-0.075
-0.065
-0.065
-0.06
-0.065
-0.055
-0.06
-0.055
-0.055
-0.06
-0.065
-0.055
-0.06
-0.06
-0.065
-0.065
-0.07
-0.07
-0.075
-0.075
-0.075
-0.075
-0.075
-0.08
-0.075
-0.075
-0.07
-0.075
-0.07
-0.07
-0.05
-0.01
0.08
0.12
0.17
0.095
0.065
-0.035
-0.035
-0.055
-0.06
-0.08
-0.075
-0.12
-0.16
-0.205
0.39
1.18
1.04
0.505
-0.355
-0.265
-0.05
-0.07
-0.055
-0.065
-0.05
-0.06
-0.045
-0.06
-0.04
-0.05
-0.03
-0.03
-0.02
-0.02
-0.005
-0.005
0.005
0.005
0.02
0.025
0.045
0.065
0.095
0.12
0.17
0.21
0.25
0.255
0.24
0.19
0.14
0.095
0.07
0.05
0.045
0.04
0.04
0.045
0.05
0.05
0.055
0.055
0.055
0.05
0.05
0.045
0.05
0.04
0.045
0.04
0.035
0.035
0.035
0.03
0.03
0.025
0.025
0.025
0.025
0.015
0.02
0.015
0.02
0.02
0.02
0.015
0.015
0.015
0.01
0.01
0.015
0.01
0.015
0.045
0.08
0.175
0.2
0.235
0.165
0.12
0.04
0.035
0.02
0.005
0.0
-0.005
-0.055
-0.085
-0.145
0.58
1.19
0.945
0.495
-0.33
-0.21
0.01
-0.005
0.0
0.0
0.005
-0.005
0.0
0.0
0.005
0.005
0.015
0.01
0.025
0.025
0.04
0.04
0.045
0.045
0.06
0.06
0.075
0.095
0.12
0.15
0.185
0.235
0.26
0.265
0.245
0.195
0.15
0.11
0.08
0.065
0.065
0.055
0.05
0.06
0.065
0.065
0.065
0.06
0.065
0.06
0.05
0.055
0.06
0.055
0.045
0.045
0.04
0.03
0.035
0.025
0.025
0.02
0.03
0.02
0.01
0.005
0.005
0.015
0.01
0.0
0.0
0.0
0.005
0.0
0.0
-0.005
0.0
-0.015
-0.01
-0.01
0.0
0.025
0.065
0.15
0.185
0.2
0.155
0.065
0.0
0.005
0.0
-0.02
-0.025
-0.055
-0.125
-0.09
-0.125
0.79
1.215
0.81
0.3
-0.31
-0.11
-0.005
-0.035
-0.04
-0.03
-0.025
-0.035
-0.035
-0.03
-0.04
-0.03
-0.03
-0.02
-0.015
-0.015
-0.01
-0.005
0.005
0.0
0.01
0.025
0.035
0.055
0.065
0.105
0.135
0.17
0.205
0.19
0.165
0.115
0.085
0.04
0.02
0.015
0.01
0.0
0.005
0.015
0.01
0.005
0.015
0.01
0.01
0.01
0.005
0.005
0.0
0.0
0.0
-0.005
-0.01
-0.01
-0.02
-0.02
-0.025
-0.025
-0.03
-0.025
-0.03
-0.035
-0.035
-0.04
-0.035
-0.04
-0.045
-0.035
-0.04
-0.04
-0.045
-0.045
-0.04
-0.05
-0.05
-0.05
-0.03
0.005
0.09
0.135
0.205
0.125
0.095
-0.015
-0.025
-0.045
-0.045
-0.065
-0.06
-0.11
-0.15
-0.185
0.355
1.155
1.08
0.55
-0.305
-0.245
-0.04
-0.065
-0.055
-0.07
-0.06
-0.065
-0.055
-0.06
-0.05
-0.06
-0.05
-0.05
-0.035
-0.04
-0.025
-0.025
-0.015
-0.015
0.0
0.0
0.015
0.03
0.06
0.085
0.13
0.175
0.21
0.22
0.2
0.155
0.105
0.065
0.04
0.02
0.01
0.005
0.01
0.015
0.015
0.02
0.025
0.025
0.025
0.025
0.03
0.025
0.02
0.02
0.015
0.015
0.015
0.01
0.01
0.005
0.005
0.005
0.0
0.0
-0.005
-0.005
-0.005
-0.01
-0.005
-0.01
-0.015
-0.02
-0.015
-0.025
-0.02
-0.025
-0.02
-0.03
-0.025
-0.03
-0.025
-0.035
-0.03
-0.04
-0.035
-0.045
-0.035
-0.04
-0.035
-0.045
-0.035
-0.005
0.05
0.135
0.165
0.13
0.1
0.0
-0.025
-0.04
-0.045
-0.065
-0.065
-0.095
-0.17
-0.13
-0.06
0.89
1.125
0.665
0.015
-0.395
-0.14
-0.06
-0.065
-0.07
-0.065
-0.07
-0.065
-0.07
-0.065
-0.06
-0.05
-0.05
-0.04
-0.045
-0.03
-0.035
-0.02
-0.015
-0.015
-0.005
0.005
0.02
0.04
0.065
0.1
0.14
0.185
0.215
0.21
0.185
0.135
0.09
0.055
0.03
0.015
0.01
0.01
0.01
0.015
0.02
0.025
0.025
0.025
0.025
0.025
0.025
0.02
0.02
0.015
0.015
0.01
0.015
0.01
0.01
0.005
0.005
0.005
0.0
0.0
-0.005
-0.005
-0.01
-0.01
-0.01
-0.015
-0.015
-0.015
-0.015
-0.02
-0.02
-0.02
-0.025
-0.025
-0.02
-0.025
-0.025
-0.025
-0.025
-0.03
-0.03
-0.03
-0.03
-0.035
-0.03
-0.035
-0.03
-0.04
-0.035
-0.045
-0.04
-0.045
-0.04
-0.02
0.02
0.125
0.14
0.16
0.105
0.035
-0.02
-0.03
-0.04
-0.055
-0.065
-0.08
-0.15
-0.135
-0.18
0.685
1.115
0.76
0.285
-0.42
-0.22
-0.045
-0.07
-0.06
-0.06
-0.06
-0.06
-0.055
-0.055
-0.05
-0.045
-0.04
-0.035
-0.03
-0.03
-0.02
-0.02
-0.01
-0.01
0.0
0.01
0.025
0.04
0.06
0.09
0.13
0.18
0.21
0.225
0.205
0.16
0.12
0.075
0.045
0.03
0.025
0.015
0.02
0.03
0.03
0.035
0.035
0.035
0.035
0.035
0.03
0.025
0.025
0.025
0.03
0.015
0.02
0.015
0.01
0.01
0.005
0.0
0.0
0.005
0.0
-0.005
0.0
-0.005
-0.005
-0.005
-0.015
-0.015
-0.015
-0.01
-0.015
-0.025
-0.02
-0.02
-0.02
-0.025
-0.02
-0.025
-0.025
-0.02
-0.03
-0.035
-0.03
-0.03
-0.035
-0.025
-0.035
-0.03
-0.035
-0.035
-0.035
-0.035
-0.04
-0.03
0.0
0.09
0.125
0.19
0.13
0.09
-0.015
-0.025
-0.03
-0.035
-0.065
-0.06
-0.11
-0.17
-0.225
0.335
1.095
0.965
0.555
-0.265
-0.265
-0.05
-0.055
-0.065
-0.065
-0.06
-0.065
-0.05
-0.08
-0.05
-0.065
-0.045
-0.045
-0.04
-0.04
-0.035
-0.035
-0.02
-0.015
-0.015
-0.02
0.005
0.015
0.035
0.05
0.095
0.14
0.17
0.175
0.17
0.14
0.095
0.055
0.025
0.0
0.0
-0.005
-0.01
-0.005
0.0
0.0
0.005
0.005
0.0
0.005
0.005
0.0
0.0
0.0
0.0
0.0
-0.005
-0.005
-0.005
-0.01
-0.01
-0.01
-0.015
-0.02
-0.015
-0.02
-0.025
-0.025
-0.025
-0.03
-0.03
-0.025
-0.035
-0.03
-0.035
-0.035
-0.04
-0.035
-0.04
-0.04
-0.04
-0.04
-0.045
-0.045
-0.045
-0.04
-0.05
-0.045
-0.05
-0.045
-0.05
-0.045
-0.055
-0.05
-0.06
-0.055
-0.065
-0.055
-0.04
0.01
0.105
0.135
0.145
0.095
0.02
-0.03
-0.045
-0.05
-0.075
-0.075
-0.1
-0.16
-0.135
-0.17
0.735
1.155
0.765
0.18
-0.415
-0.19
-0.065
-0.085
-0.08
-0.08
-0.08
-0.08
-0.08
-0.075
-0.07
-0.065
-0.06
-0.055
-0.05
-0.045
-0.04
-0.035
-0.025
-0.025
-0.015
0.0
0.01
0.02
0.045
0.08
0.125
0.17
0.205
0.215
0.195
0.155
0.105
0.06
0.03
0.005
0.0
-0.005
0.0
0.0
0.005
0.005
0.01
0.015
0.015
0.015
0.01
0.015
0.01
0.005
0.005
0.005
0.005
0.0
0.0
0.0
0.0
-0.005
-0.01
-0.01
-0.01
-0.01
-0.01
-0.015
-0.015
-0.02
-0.02
-0.02
-0.02
-0.02
-0.025
-0.025
-0.025
-0.025
-0.025
-0.03
-0.03
-0.03
-0.03
-0.03
-0.035
-0.03
-0.035
-0.035
-0.04
-0.04
-0.04
-0.04
-0.04
-0.04
-0.045
-0.045
-0.05
-0.04
-0.05
-0.05
-0.055
-0.05
-0.06
-0.05
-0.06
-0.05
-0.02
0.055
0.12
0.165
0.105
0.08
-0.025
-0.04
-0.055
-0.055
-0.085
-0.075
-0.115
-0.21
-0.195
0.14
1.01
1.035
0.555
-0.23
-0.38
-0.1
-0.08
-0.08
-0.085
-0.075
-0.085
-0.075
-0.085
-0.07
-0.075
-0.06
-0.065
-0.055
-0.055
-0.045
-0.045
-0.035
-0.035
-0.02
-0.02
-0.005
0.005
0.025
0.05
0.09
0.135
0.185
0.21
0.21
0.185
0.14
0.09
0.05
0.025
0.01
0.0
0.0
0.0
0.005
0.01
0.01
0.015
0.015
0.02
0.02
0.015
0.015
0.015
0.01
0.01
0.01
0.01
0.005
0.005
0.0
0.0
0.0
0.0
0.0
-0.005
-0.005
-0.005
-0.01
-0.01
-0.01
-0.01
-0.01
-0.015
-0.015
-0.015
-0.015
-0.02
-0.015
-0.02
-0.02
-0.02
-0.025
-0.025
-0.025
-0.025
-0.03
-0.025
-0.03
-0.03
-0.035
-0.035
-0.035
-0.03
-0.04
-0.04
-0.045
-0.04
-0.045
-0.04
-0.05
-0.04
-0.05
-0.04
-0.05
-0.045
-0.015
0.055
0.12
0.165
0.11
0.08
-0.025
-0.04
-0.055
-0.05
-0.075
-0.07
-0.11
-0.21
-0.18
0.12
1.0
1.03
0.555
-0.2
-0.395
-0.105
-0.08
-0.08
-0.085
-0.075
-0.08
-0.07
-0.08
-0.07
-0.07
-0.06
-0.06
-0.05
-0.055
-0.04
-0.045
-0.035
-0.035
-0.02
-0.02
-0.005
0.005
0.03
0.05
0.095
0.135
0.185
0.21
0.215
0.19
0.14
0.09
0.05
0.025
0.005
0.0
0.0
0.0
0.005
0.01
0.01
0.015
0.015
0.02
0.015
0.02
0.015
0.01
0.01
0.01
0.005
0.005
0.0
0.0
0.0
0.0
0.0
-0.005
-0.005
-0.005
-0.005
-0.01
-0.01
-0.01
-0.01
-0.01
-0.015
-0.015
-0.015
-0.02
-0.025
-0.02
-0.025
-0.025
-0.03
-0.03
-0.03
-0.03
-0.035
-0.035
-0.035
-0.035
-0.04
-0.035
-0.045
-0.04
-0.05
-0.04
-0.05
-0.05
-0.06
-0.055
-0.065
-0.055
-0.07
-0.06
-0.07
-0.06
-0.035
0.03
0.09
0.145
0.085
0.05
-0.055
-0.07
-0.09
-0.095
-0.125
-0.12
-0.165
-0.255
-0.26
0.11
0.95
0.935
0.495
-0.29
-0.445
-0.17
-0.165
-0.16
-0.175
-0.165
-0.18
-0.17
-0.18
-0.175
-0.185
-0.175
-0.18
-0.17
-0.17
-0.17
-0.17
-0.17
-0.16
-0.15
-0.15
-0.14
-0.13
-0.105
-0.08
-0.05
-0.01
0.04
0.045
0.05
0.03
0.0
-0.065
-0.095
-0.125
-0.14
-0.14
-0.15
-0.145
-0.145
-0.13
-0.13
-0.12
-0.12
-0.12
-0.12
-0.11
-0.125
-0.13
-0.115
-0.115
-0.12
-0.12
-0.125
-0.12
-0.13
-0.125
-0.12
-0.135
-0.13
-0.125
-0.13
-0.12
-0.125
-0.125
-0.13
-0.13
-0.125
-0.12
-0.12
-0.13
-0.12
-0.12
-0.125
-0.12
-0.115
-0.12
-0.115
-0.115
-0.115
-0.125
-0.11
-0.12
-0.115
-0.115
-0.11
-0.11
-0.11
-0.11
-0.115
-0.115
-0.11
-0.09
-0.045
0.035
0.07
0.12
0.06
0.01
-0.08
-0.085
-0.09
-0.105
-0.115
-0.13
-0.195
-0.17
-0.225
0.625
1.165
0.8
0.315
-0.38
-0.205
-0.075
-0.1
-0.09
-0.095
-0.09
-0.095
-0.09
-0.085
-0.075
-0.075
-0.07
-0.06
-0.055
-0.05
-0.045
-0.04
-0.03
-0.02
-0.015
-0.005
0.005
0.02
0.045
0.075
0.125
0.17
0.215
0.225
0.215
0.175
0.135
0.09
0.055
0.035
0.025
0.025
0.025
0.03
0.035
0.04
0.04
0.045
0.05
0.05
0.05
0.05
0.05
0.05
0.05
0.05
0.045
0.045
0.04
0.04
0.035
0.035
0.035
0.03
0.025
0.025
0.025
0.025
0.02
0.02
0.015
0.02
0.015
0.015
0.01
0.01
0.01
0.01
0.005
0.005
0.005
0.0
0.005
0.0
0.0
0.0
0.0
-0.005
0.0
-0.005
0.0
-0.01
0.0
-0.01
-0.005
-0.015
-0.005
-0.015
-0.01
-0.02
-0.005
0.02
0.085
0.15
0.205
0.155
0.125
0.01
0.0
-0.015
-0.015
-0.045
-0.04
-0.075
-0.17
-0.15
0.16
1.045
1.09
0.6
-0.185
-0.345
-0.065
-0.04
-0.04
-0.05
-0.04
-0.05
-0.04
-0.05
-0.035
-0.04
-0.03
-0.035
-0.02
-0.025
-0.01
-0.015
-0.005
-0.005
0.005
0.005
0.02
0.035
0.06
0.08
0.12
0.17
0.22
0.24
0.245
0.215
0.17
0.12
0.075
0.05
0.03
0.02
0.02
0.025
0.025
0.03
0.035
0.035
0.035
0.035
0.035
0.035
0.035
0.035
0.03
0.025
0.025
0.025
0.025
0.015
0.02
0.015
0.01
0.01
0.005
0.005
0.005
0.005
0.005
0.0
0.0
0.0
0.0
0.0
-0.005
-0.005
-0.01
-0.005
-0.01
-0.01
-0.015
-0.01
-0.02
-0.015
-0.02
-0.015
-0.025
-0.02
-0.025
-0.02
-0.03
-0.025
-0.035
-0.025
-0.035
-0.03
-0.035
-0.03
-0.04
-0.03
-0.04
-0.035
-0.045
-0.04
-0.02
0.025
0.115
0.145
0.16
0.1
0.03
-0.025
-0.035
-0.045
-0.065
-0.07
-0.09
-0.16
-0.135
-0.14
0.765
1.125
0.725
0.195
-0.43
-0.205
-0.055
-0.075
-0.07
-0.07
-0.07
-0.07
-0.07
-0.065
-0.065
-0.055
-0.055
-0.05
-0.045
-0.04
-0.04
-0.035
-0.025
-0.02
-0.015
-0.005
0.01
0.025
0.05
0.085
0.13
0.18
0.215
0.23
0.21
0.175
0.125
0.08
0.045
0.02
0.005
0.005
0.01
0.01
0.01
0.015
0.015
0.02
0.02
0.025
0.02
0.025
0.02
0.02
0.015
0.015
0.015
0.01
0.01
0.01
0.0
0.0
0.0
-0.005
-0.005
-0.005
-0.005
-0.01
-0.01
-0.01
-0.015
-0.02
-0.015
-0.02
-0.015
-0.02
-0.02
-0.02
-0.02
-0.025
-0.02
-0.025
-0.025
-0.03
-0.025
-0.025
-0.03
-0.03
-0.03
-0.035
-0.03
-0.04
-0.035
-0.045
-0.035
-0.045
-0.04
-0.045
-0.04
-0.055
-0.04
-0.01
0.06
0.12
0.175
0.12
0.09
-0.015
-0.03
-0.045
-0.05
-0.075
-0.07
-0.105
-0.21
-0.18
0.12
1.0
1.03
0.57
-0.18
-0.38
-0.095
-0.065
-0.065
-0.075
-0.065
-0.07
-0.06
-0.07
-0.06
-0.06
-0.05
-0.05
-0.04
-0.04
-0.03
-0.03
-0.02
-0.02
-0.01
-0.005
0.005
0.02
0.045
0.07
0.11
0.155
0.205
0.235
0.235
0.205
0.16
0.11
0.065
0.03
0.015
0.005
0.005
0.005
0.01
0.015
0.02
0.025
0.02
0.025
0.025
0.02
0.02
0.02
0.02
0.015
0.015
0.015
0.01
0.01
0.01
0.005
0.0
0.0
0.0
0.0
-0.005
-0.005
-0.01
-0.005
-0.005
-0.01
-0.01
-0.015
-0.015
-0.015
-0.02
-0.02
-0.02
-0.025
-0.025
-0.03
-0.025
-0.03
-0.03
-0.035
-0.035
-0.035
-0.035
-0.04
-0.045
-0.045
-0.045
-0.045
-0.05
-0.055
-0.05
-0.05
-0.055
-0.03
0.0
0.09
0.115
0.16
0.095
0.05
-0.04
-0.045
-0.06
-0.075
-0.085
-0.09
-0.145
-0.19
-0.24
0.46
1.08
0.845
0.42
-0.415
-0.315
-0.085
-0.105
-0.095
-0.105
-0.1
-0.11
-0.1
-0.1
-0.1
-0.11
-0.095
-0.1
-0.09
-0.09
-0.085
-0.09
-0.085
-0.08
-0.08
-0.075
-0.055
-0.05
-0.025
0.0
0.025
0.07
0.11
0.115
0.11
0.07
0.015
-0.03
-0.065
-0.1
-0.11
-0.125
-0.13
-0.125
-0.13
-0.12
-0.13
-0.125
-0.125
-0.13
-0.125
-0.145
-0.145
-0.15
-0.145
-0.145
-0.16
-0.16
-0.16
-0.17
-0.185
-0.18
-0.19
-0.19
-0.18
-0.195
-0.2
-0.195
-0.2
-0.21
-0.2
-0.21
-0.2
-0.21
-0.21
-0.205
-0.215
-0.21
-0.21
-0.21
-0.2
-0.205
-0.195
-0.21
-0.205
-0.205
-0.205
-0.215
-0.2
-0.2
-0.2
-0.2
-0.195
-0.21
-0.195
-0.16
-0.115
-0.01
0.02
0.01
-0.015
-0.11
-0.155
-0.16
-0.175
-0.185
-0.195
-0.215
-0.29
-0.245
-0.245
0.67
1.075
0.65
0.115
-0.445
-0.24
-0.14
-0.155
-0.16
-0.15
-0.15
-0.145
-0.145
-0.14
-0.135
-0.125
-0.12
-0.11
-0.105
-0.095
-0.09
-0.085
-0.075
-0.065
-0.055
-0.045
-0.03
-0.015
0.005
0.04
0.09
0.135
0.17
0.185
0.17
0.125
0.08
0.04
0.015
0.0
-0.005
-0.01
-0.005
0.0
0.0
0.0
0.005
0.01
0.01
0.01
0.015
0.01
0.01
0.01
0.01
0.01
0.005
0.005
0.005
0.005
0.0
0.0
0.0
0.0
0.0
-0.005
0.0
-0.005
-0.005
-0.005
-0.005
-0.005
-0.005
-0.01
-0.01
-0.005
-0.01
-0.005
-0.01
-0.01
-0.01
-0.005
-0.01
-0.01
-0.01
-0.01
-0.01
-0.01
-0.01
-0.01
-0.015
-0.01
-0.015
-0.01
-0.015
-0.015
-0.02
0.0
0.03
0.11
0.15
0.215
0.145
0.115
0.01
0.005
-0.01
-0.015
-0.035
-0.03
-0.07
-0.155
-0.165
0.285
1.1
1.055
