signal
0.02
-0.03
-0.01
-0.05
-0.055
-0.04
-0.01
-0.07
-0.04
-0.075
-0.02
-0.065
-0.03
-0.07
-0.01
-0.07
-0.015
-0.01
0.01
0.015
0.105
0.01
0.13
0.04
0.0
-0.12
-0.015
-0.155
-0.08
-0.095
-0.11
-0.13
-0.065
-0.095
-0.11
-0.13
-0.07
-0.15
-0.315
-0.23
0.265
1.575
0.8
0.655
0.455
0.265
0.05
-0.04
-0.025
-0.09
-0.095
-0.09
-0.07
-0.12
-0.08
-0.06
-0.125
-0.09
-0.07
-0.105
-0.12
-0.13
-0.05
-0.115
-0.05
-0.055
0.02
-0.02
0.035
0.015
0.0
-0.055
-0.025
-0.04
-0.06
-0.07
-0.07
-0.05
-0.04
-0.06
-0.06
-0.055
-0.045
-0.035
-0.095
-0.055
-0.065
-0.075
-0.06
-0.06
-0.02
0.02
0.0
0.105
0.07
0.095
-0.04
-0.045
-0.105
-0.075
-0.135
-0.09
-0.145
-0.095
-0.15
-0.09
-0.145
-0.1
-0.14
-0.105
-0.17
-0.335
-0.285
0.175
1.505
0.8
0.655
0.465
0.195
0.065
-0.055
-0.025
-0.12
-0.075
-0.105
-0.08
-0.13
-0.085
-0.12
-0.09
-0.12
-0.1
-0.13
-0.1
-0.125
-0.1
-0.09
-0.045
-0.045
0.005
0.02
0.05
0.035
0.03
-0.01
-0.01
-0.02
-0.025
-0.03
-0.02
-0.015
-0.02
-0.01
-0.005
0.0
0.0
-0.005
0.0
-0.005
0.0
-0.01
0.0
-0.01
0.0
-0.02
-0.015
-0.025
-0.02
-0.015
-0.015
-0.015
-0.015
-0.01
-0.015
-0.03
-0.015
-0.02
-0.015
-0.015
-0.03
-0.03
-0.03
-0.035
-0.025
-0.04
-0.05
-0.045
-0.065
-0.065
-0.06
-0.065
-0.07
-0.07
-0.06
-0.065
-0.085
-0.075
-0.09
-0.07
-0.09
-0.075
-0.095
-0.06
-0.08
-0.05
-0.07
-0.08
-0.065
-0.085
-0.115
-0.065
-0.115
-0.1
-0.12
-0.09
-0.11
-0.075
-0.12
-0.07
-0.115
-0.07
-0.115
-0.265
-0.285
0.175
1.59
1.045
0.76
0.435
0.225
0.065
-0.02
-0.015
-0.06
-0.045
-0.09
-0.065
-0.085
-0.075
-0.09
-0.075
-0.105
-0.085
-0.105
-0.085
-0.07
-0.04
-0.02
0.02
0.035
0.075
0.11
0.13
0.11
0.07
0.05
0.005
0.0
-0.015
-0.015
-0.02
-0.025
-0.035
-0.03
-0.02
-0.025
-0.025
-0.01
-0.025
0.0
-0.01
-0.01
-0.005
0.0
-0.01
-0.01
-0.015
-0.015
-0.025
-0.025
-0.035
-0.01
-0.02
-0.015
-0.03
-0.03
-0.03
-0.03
-0.04
-0.02
-0.045
-0.025
-0.045
-0.03
-0.045
-0.045
-0.05
-0.04
-0.04
-0.05
-0.07
-0.06
-0.07
-0.065
-0.075
-0.08
-0.07
-0.075
-0.08
-0.085
-0.075
-0.075
-0.065
-0.125
-0.065
-0.11
-0.085
-0.11
-0.11
-0.13
-0.11
-0.13
-0.105
-0.105
-0.09
-0.115
-0.08
-0.115
-0.07
-0.125
-0.305
-0.315
0.425
1.835
1.015
0.705
0.39
0.205
0.05
-0.035
-0.02
-0.07
-0.04
-0.055
-0.06
-0.085
-0.06
-0.085
-0.07
-0.085
-0.075
-0.09
-0.075
-0.065
-0.035
-0.01
0.01
0.045
0.09
0.125
0.125
0.095
0.075
0.04
0.005
0.0
-0.02
-0.01
-0.025
-0.01
-0.02
-0.01
-0.025
-0.015
-0.015
-0.005
-0.025
-0.01
-0.01
-0.01
-0.03
-0.01
-0.025
0.0
-0.02
-0.015
-0.045
-0.015
-0.03
-0.02
-0.035
-0.025
-0.035
-0.03
-0.04
-0.02
-0.03
-0.035
-0.05
-0.035
-0.04
-0.045
-0.055
-0.035
-0.055
-0.05
-0.07
-0.06
-0.055
-0.07
-0.07
-0.065
-0.065
-0.075
-0.075
-0.085
-0.085
-0.1
-0.085
-0.095
-0.06
-0.08
-0.045
-0.13
-0.065
-0.075
-0.095
-0.085
-0.105
-0.115
-0.09
-0.115
-0.09
-0.11
-0.1
-0.125
-0.08
-0.11
-0.075
-0.12
-0.315
-0.3
0.145
1.625
1.13
0.83
0.475
0.26
0.08
-0.015
-0.025
-0.065
-0.045
-0.07
-0.06
-0.085
-0.06
-0.075
-0.06
-0.09
-0.07
-0.095
-0.07
-0.07
-0.045
-0.03
0.015
0.045
0.075
0.115
0.125
0.125
0.08
0.05
0.015
0.0
-0.005
-0.005
-0.015
-0.01
-0.01
-0.015
-0.025
-0.005
-0.01
-0.005
-0.01
0.005
0.0
0.01
0.005
0.02
0.0
0.005
-0.005
0.0
-0.005
0.0
-0.01
0.0
-0.03
0.0
-0.03
-0.01
-0.03
-0.02
-0.035
-0.025
-0.055
-0.03
-0.045
-0.045
-0.055
-0.045
-0.05
-0.045
-0.055
-0.055
-0.055
-0.055
-0.06
-0.06
-0.08
-0.07
-0.085
-0.08
-0.085
-0.075
-0.08
-0.09
-0.07
-0.08
-0.065
-0.13
-0.07
-0.065
-0.115
-0.095
-0.11
-0.115
-0.11
-0.125
-0.11
-0.11
-0.1
-0.12
-0.09
-0.11
-0.09
-0.185
-0.325
-0.29
0.605
1.805
0.96
0.685
0.4
0.205
0.06
-0.015
-0.015
-0.045
-0.03
-0.065
-0.05
-0.06
-0.05
-0.06
-0.055
-0.07
-0.07
-0.075
-0.08
-0.07
-0.035
-0.02
0.0
0.03
0.075
0.115
0.095
0.1
0.065
0.025
0.0
-0.015
-0.02
-0.015
-0.02
-0.01
-0.025
-0.01
-0.025
-0.005
-0.005
0.0
-0.005
-0.005
-0.025
-0.02
-0.015
-0.005
-0.015
-0.005
-0.02
-0.01
-0.035
-0.015
-0.04
-0.025
-0.05
-0.02
-0.04
-0.04
-0.045
-0.035
-0.055
-0.045
-0.06
-0.05
-0.06
-0.055
-0.065
-0.05
-0.065
-0.06
-0.065
-0.06
-0.07
-0.065
-0.07
-0.065
-0.08
-0.07
-0.065
-0.08
-0.07
-0.075
-0.065
-0.065
-0.065
-0.065
-0.115
-0.08
-0.045
-0.09
-0.06
-0.105
-0.08
-0.095
-0.095
-0.105
-0.085
-0.095
-0.09
-0.085
-0.065
-0.09
-0.275
-0.265
-0.035
1.285
1.305
0.915
0.61
0.355
0.165
0.045
0.005
-0.015
-0.015
-0.045
-0.045
-0.045
-0.055
-0.055
-0.05
-0.065
-0.06
-0.07
-0.065
-0.065
-0.065
-0.04
-0.015
0.01
0.025
0.08
0.09
0.085
0.065
0.05
0.015
0.0
-0.015
-0.015
-0.02
0.0
-0.025
-0.01
-0.02
-0.02
-0.025
-0.02
-0.025
-0.01
-0.02
-0.01
-0.025
0.0
-0.025
0.0
-0.02
-0.02
-0.015
-0.02
-0.035
-0.015
-0.04
-0.03
-0.035
-0.015
-0.04
-0.025
-0.05
-0.03
-0.035
-0.03
-0.05
-0.04
-0.05
-0.055
-0.06
-0.055
-0.06
-0.055
-0.06
-0.075
-0.07
-0.065
-0.07
-0.08
-0.08
-0.095
-0.08
-0.08
-0.09
-0.07
-0.07
-0.075
-0.12
-0.09
-0.055
-0.115
-0.07
-0.135
-0.09
-0.12
-0.095
-0.125
-0.07
-0.105
-0.075
-0.1
-0.055
-0.17
-0.32
-0.26
0.49
1.855
0.945
0.75
0.445
0.255
0.085
-0.005
-0.005
-0.05
-0.03
-0.06
-0.04
-0.075
-0.05
-0.085
-0.065
-0.07
-0.06
-0.08
-0.055
-0.07
-0.035
-0.01
0.005
0.03
0.065
0.095
0.105
0.095
0.06
0.015
0.0
-0.01
-0.03
-0.03
-0.025
-0.005
-0.04
-0.035
-0.03
-0.03
-0.04
-0.025
-0.03
-0.025
-0.035
-0.015
-0.03
-0.03
-0.03
-0.01
-0.04
-0.03
-0.045
-0.03
-0.045
-0.04
-0.045
-0.045
-0.05
-0.04
-0.045
-0.045
-0.05
-0.045
-0.055
-0.055
-0.07
-0.065
-0.075
-0.06
-0.08
-0.08
-0.08
-0.075
-0.075
-0.08
-0.07
-0.075
-0.08
-0.08
-0.08
-0.075
-0.065
-0.065
-0.06
-0.06
-0.075
-0.1
-0.05
-0.07
-0.09
-0.08
-0.095
-0.105
-0.1
-0.105
-0.09
-0.09
-0.095
-0.085
-0.08
-0.085
-0.27
-0.275
-0.065
1.2
1.4
0.905
0.615
0.34
0.17
0.035
-0.01
-0.05
-0.05
-0.06
-0.065
-0.07
-0.065
-0.065
-0.07
-0.075
-0.07
-0.075
-0.08
-0.09
-0.07
-0.045
-0.025
-0.005
0.015
0.06
0.075
0.085
0.055
0.04
0.0
-0.015
-0.025
-0.025
-0.03
-0.025
-0.03
-0.02
-0.02
-0.01
-0.015
-0.015
-0.01
-0.005
-0.005
0.0
-0.01
0.0
-0.01
-0.005
-0.015
-0.01
-0.005
-0.01
-0.025
-0.015
-0.02
-0.01
-0.02
-0.015
-0.025
-0.02
-0.025
-0.015
-0.025
-0.02
-0.03
-0.035
-0.05
-0.04
-0.06
-0.045
-0.06
-0.06
-0.075
-0.06
-0.08
-0.07
-0.085
-0.065
-0.1
-0.07
-0.095
-0.05
-0.08
-0.065
-0.125
-0.05
-0.105
-0.085
-0.105
-0.08
-0.125
-0.095
-0.13
-0.085
-0.13
-0.075
-0.11
-0.07
-0.115
-0.31
-0.275
0.07
1.465
1.21
0.87
0.6
0.325
0.14
0.01
0.0
-0.04
-0.025
-0.07
-0.04
-0.06
-0.035
-0.085
-0.055
-0.08
-0.065
-0.08
-0.06
-0.08
-0.05
-0.04
0.0
0.02
0.07
0.075
0.12
0.11
0.095
0.06
0.03
0.0
0.0
-0.01
-0.02
-0.015
-0.005
-0.005
0.0
-0.02
-0.005
-0.005
-0.005
-0.02
-0.01
-0.005
-0.005
-0.02
-0.02
-0.01
-0.01
-0.01
-0.02
-0.025
-0.03
-0.03
-0.035
-0.035
-0.04
-0.055
-0.055
-0.05
-0.05
-0.05
-0.055
-0.05
-0.055
-0.055
-0.06
-0.06
-0.06
-0.075
-0.08
-0.085
-0.09
-0.085
-0.09
-0.09
-0.105
-0.09
-0.055
-0.02
-0.045
-0.005
-0.015
0.0
-0.03
-0.095
-0.12
-0.125
-0.14
-0.13
-0.145
-0.125
-0.13
-0.11
-0.12
-0.105
-0.27
-0.335
-0.18
0.865
1.595
0.86
0.655
0.375
0.175
0.025
-0.04
-0.045
-0.075
-0.065
-0.085
-0.08
-0.095
-0.09
-0.1
-0.1
-0.11
-0.09
-0.12
-0.105
-0.055
-0.03
-0.025
0.005
0.015
0.055
0.07
0.09
0.075
0.055
0.025
0.0
-0.015
-0.015
-0.015
-0.015
-0.015
-0.01
-0.02
-0.02
-0.025
-0.015
-0.025
-0.01
-0.02
-0.025
-0.03
-0.02
-0.035
-0.035
-0.035
-0.03
-0.05
-0.055
-0.045
-0.045
-0.05
-0.055
-0.055
-0.045
-0.07
-0.07
-0.055
-0.06
-0.07
-0.08
-0.075
-0.08
-0.08
-0.08
-0.085
-0.085
-0.08
-0.07
-0.03
-0.015
0.0
0.03
0.03
0.025
-0.035
-0.085
-0.085
-0.115
-0.115
-0.12
-0.1
-0.105
-0.12
-0.1
-0.1
-0.1
-0.29
-0.31
-0.1
1.045
1.39
0.85
0.645
0.375
0.19
0.035
-0.02
-0.035
-0.04
-0.055
-0.06
-0.06
-0.06
-0.065
-0.07
-0.075
-0.08
-0.065
-0.08
-0.08
-0.065
-0.05
-0.03
0.005
0.03
0.055
0.08
0.085
0.065
0.05
0.01
0.01
-0.015
-0.02
-0.015
-0.005
-0.03
-0.005
-0.02
-0.005
-0.015
-0.015
-0.015
-0.005
-0.015
-0.01
-0.005
-0.015
-0.025
-0.02
-0.01
-0.025
-0.04
-0.035
-0.045
-0.035
-0.05
-0.04
-0.055
-0.045
-0.06
-0.055
-0.06
-0.045
-0.06
-0.06
-0.075
-0.065
-0.065
-0.055
-0.08
-0.055
-0.04
-0.005
-0.01
0.015
0.05
0.04
0.04
0.0
-0.07
-0.08
-0.1
-0.085
-0.105
-0.095
-0.105
-0.095
-0.1
-0.075
-0.085
-0.25
-0.315
-0.12
0.965
1.495
0.855
0.665
0.385
0.195
0.03
-0.025
-0.065
-0.07
-0.08
-0.065
-0.08
-0.085
-0.1
-0.1
-0.1
-0.1
-0.105
-0.095
-0.1
-0.08
-0.07
-0.055
-0.03
0.005
0.035
0.065
0.075
0.07
0.04
0.005
-0.01
-0.01
-0.025
-0.01
-0.025
-0.01
-0.02
0.0
-0.01
-0.005
-0.025
-0.02
-0.03
-0.015
-0.03
-0.01
-0.025
-0.025
-0.03
-0.02
-0.045
-0.03
-0.055
-0.035
-0.045
-0.03
-0.045
-0.03
-0.06
-0.035
-0.06
-0.03
-0.06
-0.045
-0.075
-0.04
-0.075
-0.05
-0.075
-0.05
-0.08
-0.04
-0.05
0.01
-0.02
0.075
0.015
0.065
0.0
-0.045
-0.095
-0.055
-0.12
-0.07
-0.135
-0.075
-0.14
-0.06
-0.13
-0.065
-0.18
-0.345
-0.29
0.36
1.8
0.9
0.735
0.505
0.245
0.1
-0.035
-0.015
-0.08
-0.02
-0.09
-0.045
-0.09
-0.05
-0.105
-0.055
-0.09
-0.055
-0.095
-0.05
-0.075
-0.035
-0.045
0.005
0.005
0.06
0.06
0.1
0.07
0.075
0.015
0.01
-0.025
-0.01
-0.035
-0.01
-0.02
-0.02
-0.03
-0.015
-0.02
0.0
-0.02
-0.005
-0.02
-0.01
-0.02
-0.005
-0.03
-0.015
-0.03
-0.025
-0.03
-0.025
-0.035
-0.035
-0.05
-0.035
-0.045
-0.03
-0.05
-0.045
-0.065
-0.045
-0.06
-0.055
-0.065
-0.05
-0.065
-0.065
-0.08
-0.06
-0.08
-0.075
-0.08
-0.065
-0.06
-0.005
-0.01
0.015
0.035
0.045
0.025
-0.025
-0.08
-0.07
-0.1
-0.08
-0.1
-0.095
-0.09
-0.075
-0.08
-0.055
-0.065
-0.23
-0.295
-0.105
0.995
1.555
0.89
0.685
0.395
0.22
0.065
0.005
-0.015
-0.025
-0.04
-0.035
-0.045
-0.025
-0.045
-0.035
-0.05
-0.035
-0.05
-0.05
-0.045
-0.035
-0.03
0.005
0.0
0.03
0.055
0.085
0.085
0.095
0.04
0.01
-0.02
-0.01
-0.035
-0.03
-0.03
-0.015
-0.02
-0.015
-0.03
-0.025
-0.035
-0.015
-0.025
-0.015
-0.025
-0.015
-0.04
-0.03
-0.03
-0.025
-0.035
-0.025
-0.05
-0.04
-0.06
-0.04
-0.055
-0.05
-0.08
-0.065
-0.065
-0.065
-0.07
-0.07
-0.075
-0.075
-0.08
-0.07
-0.08
-0.075
-0.095
-0.075
-0.1
-0.08
-0.105
-0.085
-0.1
-0.065
-0.045
-0.02
0.0
0.03
0.005
0.01
-0.05
-0.09
-0.115
-0.105
-0.115
-0.105
-0.12
-0.1
-0.115
-0.095
-0.11
-0.085
-0.285
-0.315
-0.15
0.96
1.51
0.87
0.645
0.39
0.18
0.04
-0.035
-0.025
-0.075
-0.06
-0.065
-0.06
-0.08
-0.055
-0.085
-0.065
-0.075
-0.065
-0.09
-0.055
-0.065
-0.035
-0.03
0.0
0.015
0.055
0.08
0.095
0.07
0.055
0.02
0.01
-0.015
-0.005
-0.025
-0.01
-0.015
-0.005
-0.025
-0.01
-0.025
-0.005
-0.03
-0.01
-0.02
-0.015
-0.03
-0.025
-0.035
-0.02
-0.045
-0.035
-0.045
-0.025
-0.05
-0.035
-0.05
-0.035
-0.055
-0.055
-0.06
-0.055
-0.065
-0.05
-0.06
-0.055
-0.055
-0.06
-0.06
-0.055
-0.065
-0.07
-0.065
-0.065
-0.065
-0.075
-0.075
-0.05
-0.015
-0.005
0.03
0.03
0.045
0.015
-0.05
-0.09
-0.085
-0.11
-0.1
-0.11
-0.095
-0.115
-0.1
-0.12
-0.085
-0.105
-0.33
-0.28
0.02
1.395
1.195
0.85
0.6
0.34
0.155
0.02
-0.025
-0.055
-0.04
-0.055
-0.06
-0.06
-0.055
-0.07
-0.065
-0.075
-0.07
-0.075
-0.08
-0.065
-0.055
-0.045
-0.015
0.0
0.035
0.055
0.085
0.09
0.06
0.035
0.005
-0.005
-0.025
-0.01
-0.03
-0.015
-0.025
-0.02
-0.03
-0.02
-0.04
-0.01
-0.025
0.0
-0.03
-0.01
-0.03
-0.015
-0.035
-0.02
-0.035
-0.025
-0.045
-0.02
-0.04
-0.025
-0.05
-0.045
-0.045
-0.045
-0.035
-0.04
-0.065
-0.055
-0.06
-0.05
-0.055
-0.055
-0.06
-0.065
-0.055
-0.06
-0.07
-0.06
-0.07
-0.065
-0.055
-0.02
0.0
-0.005
0.035
0.025
0.035
0.0
-0.08
-0.09
-0.095
-0.115
-0.1
-0.11
-0.1
-0.11
-0.095
-0.095
-0.075
-0.225
-0.32
-0.185
0.745
1.72
0.89
0.695
0.425
0.215
0.05
-0.02
-0.04
-0.065
-0.06
-0.07
-0.07
-0.085
-0.08
-0.085
-0.085
-0.085
-0.085
-0.085
-0.09
-0.07
-0.06
-0.05
-0.01
0.015
0.065
0.075
0.09
0.075
0.05
0.025
-0.01
-0.015
-0.03
-0.03
-0.04
-0.02
-0.035
-0.035
-0.045
-0.035
-0.055
-0.035
-0.05
-0.035
-0.055
-0.045
-0.055
-0.04
-0.06
-0.045
-0.05
-0.06
-0.065
-0.055
-0.065
-0.055
-0.06
-0.05
-0.06
-0.055
-0.065
-0.055
-0.075
-0.055
-0.07
-0.06
-0.08
-0.07
-0.085
-0.07
-0.085
-0.075
-0.09
-0.08
-0.065
-0.02
-0.015
0.01
0.025
0.03
0.01
-0.015
-0.095
-0.075
-0.105
-0.095
-0.11
-0.1
-0.115
-0.1
-0.11
-0.095
-0.11
-0.275
-0.305
-0.085
1.095
1.43
0.865
0.65
0.36
0.185
0.03
-0.025
-0.06
-0.045
-0.065
-0.055
-0.065
-0.065
-0.085
-0.07
-0.085
-0.08
-0.085
-0.085
-0.08
-0.06
-0.06
-0.02
0.0
0.025
0.055
0.09
0.085
0.075
0.04
0.015
-0.005
0.0
-0.03
-0.02
-0.03
-0.015
-0.02
-0.015
-0.02
-0.02
-0.02
-0.02
-0.025
-0.005
-0.01
-0.005
-0.02
-0.01
-0.03
-0.015
-0.035
-0.035
-0.04
-0.05
-0.05
-0.035
-0.045
-0.055
-0.07
-0.055
-0.07
-0.065
-0.065
-0.06
-0.07
-0.065
-0.08
-0.07
-0.075
-0.075
-0.08
-0.07
-0.09
-0.07
-0.07
-0.025
-0.005
0.015
0.04
0.03
0.035
-0.005
-0.075
-0.085
-0.1
-0.11
-0.105
-0.105
-0.105
-0.1
-0.1
-0.09
-0.085
-0.26
-0.295
-0.115
0.995
1.52
0.885
0.67
0.38
0.2
0.045
-0.01
-0.045
-0.04
-0.05
-0.055
-0.065
-0.08
-0.065
-0.07
-0.07
-0.07
-0.085
-0.09
-0.09
-0.08
-0.055
-0.045
-0.01
0.005
0.045
0.085
0.07
0.06
0.04
0.005
-0.005
-0.03
-0.03
-0.025
-0.035
-0.02
-0.03
-0.025
-0.025
-0.025
-0.015
-0.02
-0.025
-0.02
-0.015
-0.025
-0.02
-0.015
-0.03
-0.02
-0.03
-0.035
-0.035
-0.03
-0.04
-0.055
-0.05
-0.045
-0.05
-0.055
-0.05
-0.05
-0.05
-0.045
-0.055
-0.05
-0.06
-0.06
-0.08
-0.065
-0.08
-0.065
-0.085
-0.065
-0.09
-0.07
-0.09
-0.075
-0.06
-0.01
-0.015
0.02
0.0
0.025
-0.01
-0.04
-0.1
-0.07
-0.115
-0.09
-0.12
-0.08
-0.125
-0.08
-0.115
-0.08
-0.11
-0.32
-0.28
0.07
1.455
1.145
0.83
0.58
0.32
0.15
0.005
-0.01
-0.055
-0.04
-0.085
-0.05
-0.085
-0.065
-0.08
-0.06
-0.08
-0.055
-0.075
-0.065
-0.065
-0.04
-0.04
-0.005
0.005
0.05
0.075
0.095
0.1
0.09
0.055
0.025
0.005
0.0
0.0
0.0
0.0
0.0
0.005
-0.005
0.005
0.0
0.005
0.0
0.0
0.0
-0.005
-0.01
-0.005
-0.01
-0.015
-0.02
-0.01
-0.02
-0.015
-0.02
-0.035
-0.03
-0.025
-0.015
-0.025
-0.04
-0.02
-0.03
-0.035
-0.04
-0.035
-0.045
-0.035
-0.05
-0.03
-0.06
-0.045
-0.055
-0.04
-0.07
-0.05
-0.085
-0.045
-0.08
-0.065
-0.09
-0.07
-0.105
-0.055
-0.07
0.0
-0.045
0.01
-0.025
0.02
-0.06
-0.095
-0.135
-0.09
-0.15
-0.1
-0.15
-0.09
-0.155
-0.09
-0.135
-0.075
-0.175
-0.345
-0.285
0.305
1.75
0.91
0.745
0.49
0.255
0.1
-0.035
-0.005
-0.085
-0.03
-0.09
-0.04
-0.095
-0.04
-0.095
-0.065
-0.095
-0.05
-0.1
-0.045
-0.085
-0.035
-0.045
0.015
0.015
0.07
0.08
0.135
0.095
0.1
0.045
0.035
0.005
0.01
0.0
0.0
-0.01
0.01
-0.015
-0.01
-0.015
0.0
0.0
0.0
-0.01
0.0
0.0
0.0
0.0
0.005
-0.005
0.005
-0.01
0.005
-0.02
0.0
-0.01
0.0
-0.015
-0.01
-0.015
-0.015
-0.015
-0.015
-0.03
-0.015
-0.03
-0.025
-0.05
-0.025
-0.045
-0.03
-0.05
-0.035
-0.06
-0.05
-0.055
-0.065
-0.075
-0.06
-0.075
-0.065
-0.085
-0.065
-0.075
-0.06
-0.09
-0.075
-0.085
-0.065
-0.065
-0.02
-0.08
-0.09
-0.035
-0.065
-0.11
-0.075
-0.115
-0.105
-0.115
-0.085
-0.11
-0.085
-0.105
-0.07
-0.085
-0.06
-0.24
-0.285
-0.155
0.905
1.59
0.905
0.67
0.4
0.2
0.06
-0.02
-0.02
-0.055
-0.05
-0.075
-0.06
-0.09
-0.075
-0.09
-0.07
-0.09
-0.07
-0.085
-0.06
-0.08
-0.045
-0.04
0.01
0.015
0.075
0.095
0.115
0.085
0.075
0.01
0.015
-0.02
-0.005
-0.03
-0.01
-0.015
-0.005
-0.025
-0.005
-0.02
0.0
-0.01
0.0
-0.02
-0.005
-0.015
-0.005
-0.02
-0.005
-0.03
-0.015
-0.025
-0.015
-0.035
-0.015
-0.03
-0.02
-0.03
-0.025
-0.045
-0.025
-0.045
-0.025
-0.05
-0.03
-0.06
-0.04
-0.065
-0.045
-0.055
-0.04
-0.06
-0.04
-0.07
-0.045
-0.08
-0.045
-0.07
-0.05
-0.085
-0.055
-0.09
-0.065
-0.095
-0.045
-0.085
-0.095
-0.115
-0.045
-0.135
-0.08
-0.15
-0.09
-0.15
-0.105
-0.155
-0.11
-0.145
-0.09
-0.14
-0.075
-0.135
-0.31
-0.285
0.075
1.45
1.165
0.835
0.575
0.315
0.15
-0.005
-0.01
-0.075
-0.035
-0.09
-0.055
-0.095
-0.065
-0.11
-0.055
-0.09
-0.06
-0.105
-0.07
-0.09
-0.04
-0.055
0.0
-0.01
0.055
0.07
0.115
0.1
0.095
0.045
0.035
0.0
0.0
-0.01
0.0
-0.01
0.01
-0.005
0.0
-0.02
0.0
-0.01
0.0
-0.005
0.0
-0.01
0.005
-0.005
0.0
-0.01
-0.005
-0.02
-0.01
-0.025
-0.01
-0.03
-0.005
-0.025
0.0
-0.035
-0.01
-0.03
-0.03
-0.045
-0.035
-0.05
-0.04
-0.055
-0.045
-0.065
-0.045
-0.055
-0.055
-0.05
-0.06
-0.06
-0.06
-0.065
-0.07
-0.06
-0.07
-0.07
-0.08
-0.06
-0.07
-0.05
-0.065
-0.105
-0.085
-0.035
-0.105
-0.07
-0.125
-0.085
-0.12
-0.09
-0.11
-0.08
-0.11
-0.075
-0.1
-0.055
-0.115
-0.315
-0.235
0.2
1.675
1.05
0.845
0.565
0.315
0.14
0.02
-0.01
-0.04
-0.015
-0.065
-0.055
-0.06
-0.07
-0.085
-0.06
-0.075
-0.06
-0.085
-0.08
-0.06
-0.07
-0.045
-0.025
-0.005
0.035
0.065
0.095
0.07
0.07
0.05
0.015
0.005
-0.005
-0.005
-0.02
0.0
-0.015
0.0
-0.015
0.0
-0.02
0.0
-0.01
0.0
-0.01
-0.005
-0.02
-0.015
-0.02
-0.02
-0.045
-0.015
-0.045
-0.025
-0.045
-0.025
-0.05
-0.035
-0.05
-0.04
-0.07
-0.045
-0.07
-0.055
-0.08
-0.065
-0.095
-0.07
-0.095
-0.09
-0.095
-0.09
-0.11
-0.09
-0.115
-0.1
-0.125
-0.095
-0.14
-0.11
-0.13
-0.1
-0.13
-0.095
-0.13
-0.13
-0.15
-0.105
-0.14
-0.12
-0.16
-0.11
-0.17
-0.125
-0.165
-0.105
-0.145
-0.1
-0.14
-0.085
-0.13
-0.345
-0.38
-0.02
1.305
1.21
0.795
0.615
0.38
0.205
0.005
-0.015
-0.07
-0.05
-0.09
-0.07
-0.1
-0.08
-0.115
-0.075
-0.11
-0.09
-0.105
-0.08
-0.115
-0.085
-0.08
-0.015
-0.03
0.005
0.02
0.08
0.065
0.075
0.025
0.015
-0.015
-0.02
-0.02
-0.01
-0.025
-0.01
-0.015
-0.015
-0.03
-0.005
-0.025
-0.015
-0.025
-0.015
-0.03
-0.025
-0.04
-0.03
-0.05
-0.03
-0.04
-0.03
-0.035
-0.03
-0.045
-0.04
-0.05
-0.035
-0.05
-0.04
-0.065
-0.045
-0.08
-0.06
-0.075
-0.065
-0.075
-0.06
-0.09
-0.065
-0.1
-0.08
-0.1
-0.09
-0.115
-0.08
-0.13
-0.09
-0.11
-0.065
-0.085
-0.105
-0.145
-0.07
-0.14
-0.11
-0.145
-0.09
-0.145
-0.09
-0.135
-0.075
-0.125
-0.075
-0.11
-0.05
-0.21
-0.405
-0.335
0.465
1.895
1.09
0.765
0.56
0.31
0.12
0.0
-0.005
-0.07
-0.035
-0.08
-0.045
-0.085
-0.05
-0.085
-0.05
-0.09
-0.07
-0.105
-0.07
-0.095
-0.055
-0.07
-0.015
-0.01
0.04
0.055
0.09
0.07
0.055
0.015
0.0
-0.035
-0.035
-0.045
-0.03
-0.05
-0.055
-0.06
-0.05
-0.06
-0.045
-0.055
-0.035
-0.04
-0.03
-0.035
-0.035
-0.05
-0.04
-0.06
-0.04
-0.05
-0.06
-0.06
-0.06
-0.06
-0.055
-0.065
-0.065
-0.065
-0.065
-0.055
-0.065
-0.055
-0.065
-0.07
-0.08
-0.07
-0.075
-0.055
-0.04
-0.02
-0.03
0.03
0.005
0.045
-0.01
-0.075
-0.1
-0.095
-0.11
-0.09
-0.115
-0.105
-0.125
-0.105
-0.12
-0.095
-0.255
-0.445
-0.37
0.585
1.91
1.12
0.76
0.515
0.275
0.075
-0.015
-0.03
-0.07
-0.06
-0.08
-0.07
-0.1
-0.07
-0.095
-0.085
-0.1
-0.1
-0.125
-0.1
-0.105
-0.085
-0.065
-0.01
0.0
0.035
0.095
0.14
0.15
0.07
-0.05
-0.055
-0.055
-0.055
-0.04
-0.045
-0.04
-0.03
-0.025
-0.03
-0.02
-0.03
-0.04
-0.035
-0.035
-0.045
-0.045
-0.045
-0.06
-0.055
-0.05
-0.055
-0.06
-0.07
-0.075
-0.085
-0.075
-0.09
-0.085
-0.095
-0.08
-0.04
-0.025
-0.035
0.025
0.005
0.035
-0.01
-0.1
-0.095
-0.115
-0.13
-0.13
-0.13
-0.125
-0.12
-0.11
-0.115
-0.11
-0.105
-0.325
-0.435
-0.25
1.045
1.715
1.08
0.73
0.465
0.23
0.045
-0.03
-0.05
-0.065
-0.075
-0.08
-0.085
-0.085
-0.085
-0.1
-0.095
-0.105
-0.11
-0.11
-0.105
-0.11
-0.09
-0.065
-0.035
0.0
0.035
0.075
0.08
0.055
0.025
0.0
-0.02
-0.035
-0.045
-0.04
-0.04
-0.045
-0.045
-0.05
-0.045
-0.05
-0.05
-0.055
-0.05
-0.055
-0.04
-0.055
-0.035
-0.05
-0.045
-0.065
-0.04
-0.065
-0.05
-0.07
-0.05
-0.07
-0.01
-0.02
0.015
0.025
0.07
0.045
0.045
-0.06
-0.035
-0.08
-0.055
-0.11
-0.06
-0.105
-0.05
-0.1
-0.05
-0.095
-0.03
-0.125
-0.37
-0.415
0.175
1.885
1.28
0.9
0.665
0.385
0.18
0.03
0.015
-0.05
0.0
-0.055
-0.01
-0.06
-0.045
-0.055
-0.025
-0.07
-0.035
-0.085
-0.045
-0.085
-0.055
-0.055
-0.02
-0.015
0.055
0.06
0.095
0.085
0.08
0.05
0.03
0.01
0.005
0.0
0.02
-0.01
0.0
-0.005
0.0
-0.01
0.005
-0.015
-0.01
-0.015
-0.005
-0.015
-0.01
-0.015
-0.01
-0.025
0.005
-0.015
0.045
0.0
0.085
0.1
0.11
0.08
0.025
-0.055
-0.03
-0.08
-0.04
-0.1
-0.06
-0.095
-0.045
-0.085
-0.065
-0.09
-0.02
-0.115
-0.305
-0.31
0.005
1.38
1.165
0.79
0.64
0.395
0.22
0.01
-0.005
-0.04
-0.05
-0.07
-0.04
-0.09
-0.06
-0.09
-0.08
-0.115
-0.06
-0.11
-0.1
-0.125
-0.11
-0.105
-0.07
-0.045
-0.015
0.005
0.05
0.025
0.04
0.01
0.0
-0.01
0.005
-0.02
-0.005
-0.035
-0.02
-0.05
-0.02
-0.02
-0.04
-0.035
-0.05
-0.06
-0.035
-0.06
-0.015
-0.03
0.0
0.02
0.07
0.085
0.105
0.095
-0.025
-0.07
-0.075
-0.085
-0.1
-0.1
-0.1
-0.085
-0.085
-0.11
-0.065
-0.09
-0.1
-0.075
-0.215
-0.325
-0.13
0.825
1.425
0.78
0.63
0.415
0.24
0.035
-0.02
-0.05
-0.065
-0.045
-0.06
-0.09
-0.09
-0.045
-0.1
-0.11
-0.085
-0.115
-0.085
-0.09
-0.13
-0.115
-0.1
-0.085
-0.015
-0.015
-0.015
0.0
0.05
-0.065
-0.015
-0.02
-0.045
-0.08
0.0
-0.07
-0.07
-0.04
-0.045
-0.04
-0.085
-0.045
-0.03
-0.07
-0.02
-0.035
-0.045
0.065
0.055
0.09
0.09
0.145
-0.075
-0.03
-0.07
-0.135
-0.06
-0.12
-0.17
-0.08
-0.11
-0.155
-0.11
-0.085
-0.12
-0.09
-0.225
-0.295
-0.135
0.61
1.47
0.695
0.61
0.445
0.155
0.015
-0.025
-0.04
-0.075
-0.1
-0.055
-0.095
-0.055
-0.08
-0.09
-0.12
-0.055
-0.085
-0.125
-0.105
-0.105
-0.11
-0.085
-0.05
-0.105
-0.03
0.04
-0.075
0.04
-0.045
0.0
-0.055
-0.095
0.005
-0.08
-0.075
-0.05
-0.085
-0.03
-0.07
-0.03
-0.045
-0.05
-0.04
-0.045
-0.065
0.01
0.0
0.145
0.06
0.18
0.125
0.06
-0.025
0.005
-0.16
0.02
-0.085
-0.135
-0.025
-0.13
-0.09
-0.075
-0.085
0.0
-0.135
-0.06
-0.1
-0.22
-0.135
0.355
1.54
0.775
0.585
0.52
0.29
0.075
-0.06
0.07
-0.1
-0.045
-0.05
-0.025
-0.045
-0.085
-0.105
0.0
-0.08
-0.02
-0.08
-0.025
-0.15
-0.025
-0.01
-0.055
-0.06
0.0
0.02
0.0
0.05
0.065
0.0
0.005
0.0
0.025
0.04
0.015
-0.005
0.075
0.005
0.035
0.005
0.02
0.02
0.055
-0.01
0.04
0.015
0.08
-0.015
0.04
0.055
-0.01
0.04
-0.015
0.0
0.0
0.01
0.0
0.02
-0.01
-0.035
0.035
-0.055
-0.035
-0.01
-0.02
-0.045
-0.025
0.005
-0.015
-0.025
-0.015
-0.07
-0.03
-0.04
-0.02
-0.05
-0.035
-0.085
-0.025
-0.05
-0.07
-0.025
-0.04
-0.08
-0.05
-0.07
-0.055
-0.06
-0.04
-0.085
-0.055
-0.1
-0.04
-0.1
0.0
-0.14
-0.05
-0.09
-0.085
-0.095
-0.05
-0.075
-0.07
-0.055
-0.055
-0.07
-0.03
-0.075
-0.195
-0.175
0.0
1.035
1.015
0.75
0.57
0.275
0.125
0.005
0.02
-0.05
-0.03
-0.08
-0.05
-0.075
-0.065
-0.065
-0.05
-0.065
-0.07
-0.075
-0.085
-0.08
-0.045
-0.09
-0.01
-0.04
0.015
0.025
0.065
0.015
0.06
0.0
0.01
-0.015
0.0
-0.02
-0.015
-0.04
0.005
-0.025
-0.015
0.01
-0.04
-0.03
-0.02
-0.03
-0.03
-0.01
0.01
-0.06
-0.01
-0.025
-0.025
-0.03
-0.02
-0.03
-0.035
-0.03
-0.02
-0.035
-0.015
-0.05
-0.01
-0.04
-0.05
-0.04
-0.035
-0.065
-0.03
-0.04
-0.065
-0.045
-0.06
-0.06
-0.045
-0.08
-0.075
-0.09
-0.045
-0.075
-0.07
-0.095
-0.025
-0.12
-0.05
-0.065
-0.12
-0.09
-0.045
-0.08
-0.12
-0.07
-0.095
-0.095
-0.105
-0.085
-0.09
-0.09
-0.09
-0.09
-0.06
-0.105
-0.05
-0.085
-0.06
-0.185
-0.205
-0.16
0.87
1.325
0.84
0.61
0.35
0.15
0.03
-0.01
-0.01
-0.08
-0.045
-0.06
-0.065
-0.055
-0.07
-0.08
-0.05
-0.105
-0.055
-0.08
-0.09
-0.07
-0.04
-0.02
-0.04
-0.005
0.04
0.07
0.04
0.05
0.05
0.0
0.005
-0.01
0.0
-0.02
-0.025
-0.045
-0.02
-0.045
-0.015
-0.055
-0.005
-0.055
-0.025
-0.045
-0.035
-0.045
-0.04
-0.045
-0.025
-0.055
-0.03
-0.055
-0.04
-0.065
-0.06
-0.06
-0.05
-0.075
-0.07
-0.08
-0.085
-0.09
-0.065
-0.09
-0.09
-0.08
-0.08
-0.085
-0.105
-0.11
-0.095
-0.11
-0.105
-0.12
-0.09
-0.13
-0.11
-0.125
-0.115
-0.135
-0.08
-0.13
-0.075
-0.175
-0.095
-0.13
-0.12
-0.13
-0.145
-0.165
-0.125
-0.185
-0.1
-0.165
-0.11
-0.145
-0.105
-0.13
-0.09
-0.12
-0.295
-0.32
0.015
1.415
1.13
0.8
0.535
0.285
0.115
-0.02
-0.015
-0.08
-0.055
-0.095
-0.06
-0.1
-0.06
-0.085
-0.055
-0.11
-0.075
-0.105
-0.085
-0.105
-0.065
-0.07
-0.035
-0.01
0.045
0.065
0.095
0.075
0.055
0.015
0.0
-0.03
-0.035
-0.05
-0.045
-0.06
-0.04
-0.055
-0.035
-0.04
-0.035
-0.055
-0.035
-0.045
-0.035
-0.045
-0.04
-0.035
-0.04
-0.04
-0.025
-0.035
-0.05
-0.04
-0.035
-0.045
-0.045
-0.04
-0.045
-0.06
-0.045
-0.055
-0.065
-0.06
-0.045
-0.065
-0.07
-0.07
-0.07
-0.07
-0.045
-0.075
-0.07
-0.065
-0.075
-0.08
-0.06
-0.09
-0.08
-0.085
-0.055
-0.075
-0.085
-0.065
-0.075
-0.065
-0.105
-0.1
-0.06
-0.11
-0.1
-0.105
-0.085
-0.105
-0.1
-0.095
-0.09
-0.1
-0.09
-0.085
-0.08
-0.075
-0.215
-0.315
-0.22
0.975
1.66
1.015
0.685
0.395
0.21
0.03
-0.005
-0.03
-0.05
-0.05
-0.04
-0.055
-0.05
-0.055
-0.065
-0.075
-0.075
-0.08
-0.085
-0.06
-0.06
-0.045
-0.005
0.01
0.045
0.095
0.115
0.125
0.09
0.065
0.025
0.0
-0.01
-0.015
-0.025
-0.02
-0.025
-0.02
-0.015
-0.025
-0.025
-0.03
-0.02
-0.025
-0.02
-0.02
-0.02
-0.015
-0.015
-0.025
-0.025
-0.03
-0.035
-0.035
-0.04
-0.05
-0.045
-0.05
-0.06
-0.07
-0.06
-0.07
-0.065
-0.075
-0.075
-0.075
-0.07
-0.085
-0.085
-0.07
-0.08
-0.08
-0.09
-0.075
-0.085
-0.09
-0.09
-0.09
-0.08
-0.08
-0.075
-0.125
-0.095
-0.07
-0.125
-0.11
-0.14
-0.11
-0.115
-0.12
-0.125
-0.11
-0.12
-0.11
-0.115
-0.105
-0.255
-0.37
-0.315
0.87
1.77
1.06
0.67
0.365
0.15
0.015
-0.06
-0.075
-0.09
-0.085
-0.095
-0.085
-0.1
-0.085
-0.105
-0.1
-0.105
-0.105
-0.11
-0.095
-0.09
-0.06
-0.04
0.0
0.035
0.09
0.115
0.12
0.075
0.045
0.0
-0.025
-0.05
-0.06
-0.055
-0.065
-0.06
-0.065
-0.065
-0.07
-0.08
-0.08
-0.085
-0.075
-0.095
-0.09
-0.075
-0.09
-0.09
-0.085
-0.09
-0.09
-0.09
-0.1
-0.085
-0.085
-0.08
-0.1
-0.09
-0.095
-0.09
-0.045
-0.02
-0.045
0.035
0.03
0.04
0.02
-0.06
-0.1
-0.11
-0.125
-0.125
-0.14
-0.125
-0.135
-0.125
-0.13
-0.12
-0.125
-0.335
-0.425
-0.23
1.16
1.655
1.095
0.695
0.4
0.17
0.015
-0.045
-0.065
-0.075
-0.09
-0.085
-0.095
-0.095
-0.11
-0.11
-0.1
-0.11
-0.115
-0.12
-0.115
-0.115
-0.09
-0.07
-0.04
-0.01
0.04
0.055
0.06
0.035
0.0
-0.035
-0.045
-0.07
-0.06
-0.075
-0.065
-0.08
-0.07
-0.08
-0.075
-0.085
-0.085
-0.085
-0.08
-0.085
-0.08
-0.095
-0.075
-0.1
-0.08
-0.105
-0.08
-0.095
-0.045
-0.055
0.0
0.025
0.04
0.025
0.0
-0.105
-0.07
-0.12
-0.09
-0.13
-0.09
-0.125
-0.085
-0.12
-0.09
-0.13
-0.08
-0.23
-0.425
-0.425
0.545
2.01
1.205
0.785
0.495
0.245
0.06
-0.06
-0.04
-0.095
-0.07
-0.11
-0.08
-0.11
-0.08
-0.115
-0.09
-0.125
-0.1
-0.13
-0.105
-0.12
-0.075
-0.09
-0.04
-0.03
0.03
0.04
0.065
0.04
0.03
-0.01
-0.015
-0.055
-0.045
-0.055
-0.03
-0.045
-0.035
-0.045
-0.035
-0.055
-0.05
-0.065
-0.055
-0.055
-0.06
-0.075
-0.06
-0.085
-0.065
-0.08
-0.08
-0.095
-0.09
-0.1
-0.09
-0.07
-0.035
-0.035
0.01
0.015
0.02
-0.02
-0.07
-0.11
-0.1
-0.13
-0.115
-0.13
-0.12
-0.145
-0.105
-0.115
-0.11
-0.115
-0.08
-0.29
-0.415
-0.33
0.935
1.83
1.17
0.745
0.45
0.21
0.045
-0.045
-0.055
-0.075
-0.075
-0.09
-0.085
-0.1
-0.095
-0.11
-0.11
-0.12
-0.105
-0.135
-0.11
-0.125
-0.1
-0.1
-0.05
-0.03
0.035
0.045
0.06
0.025
0.0
-0.03
-0.04
-0.065
-0.06
-0.08
-0.065
-0.08
-0.065
-0.085
-0.07
-0.085
-0.085
-0.09
-0.09
-0.09
-0.085
-0.105
-0.105
-0.095
-0.095
-0.095
-0.105
-0.08
-0.05
-0.025
-0.03
0.055
0.005
0.05
-0.015
-0.095
-0.115
-0.115
-0.145
-0.11
-0.145
-0.115
-0.14
-0.115
-0.14
-0.095
-0.135
-0.095
-0.18
-0.425
-0.44
0.31
2.0
1.225
0.855
0.56
0.3
0.095
-0.015
-0.03
-0.065
-0.05
-0.07
-0.055
-0.09
-0.07
-0.09
-0.075
-0.105
-0.095
-0.105
-0.095
-0.1
-0.095
-0.075
-0.04
-0.015
0.015
0.055
0.065
0.06
0.025
0.015
-0.015
-0.025
-0.03
-0.02
-0.02
-0.02
-0.03
-0.015
-0.03
-0.015
-0.025
-0.015
-0.025
-0.015
-0.025
-0.015
-0.025
-0.03
-0.035
-0.025
-0.045
-0.035
-0.045
-0.05
-0.055
-0.04
-0.075
-0.055
-0.08
-0.055
-0.085
-0.05
-0.08
-0.06
-0.085
-0.06
-0.09
-0.045
-0.09
-0.055
-0.085
-0.025
-0.035
0.0
-0.015
0.045
0.0
0.005
-0.095
-0.055
-0.115
-0.075
-0.14
-0.08
-0.13
-0.08
-0.14
-0.08
-0.12
-0.06
-0.19
-0.405
-0.47
0.38
2.015
1.215
0.84
0.54
0.265
0.09
-0.025
-0.015
-0.085
-0.04
-0.095
-0.055
-0.1
-0.055
-0.105
-0.065
-0.11
-0.07
-0.115
-0.075
-0.1
-0.045
-0.065
0.0
-0.005
0.06
0.07
0.11
0.085
0.085
0.025
0.02
-0.01
0.0
-0.015
0.0
-0.015
0.01
0.005
0.025
0.005
0.02
0.0
0.01
-0.015
0.005
-0.005
0.005
-0.015
0.0
-0.005
0.0
-0.025
-0.005
-0.035
-0.02
-0.035
-0.015
-0.03
-0.02
-0.045
-0.015
-0.04
-0.02
-0.05
-0.03
-0.07
-0.035
-0.075
-0.04
-0.075
-0.015
-0.035
0.02
0.0
0.065
0.015
0.05
-0.06
-0.045
-0.105
-0.065
-0.125
-0.07
-0.125
-0.065
-0.13
-0.06
-0.115
-0.05
-0.135
-0.375
-0.45
0.115
1.84
1.305
0.935
0.63
0.335
0.145
0.0
-0.01
-0.085
-0.035
-0.09
-0.045
-0.09
-0.045
-0.09
-0.045
-0.1
-0.05
-0.1
-0.06
-0.085
-0.04
-0.055
0.0
-0.01
0.065
0.07
0.125
0.085
0.095
0.05
0.035
0.005
0.015
-0.005
0.005
-0.005
0.015
-0.005
0.01
0.0
0.01
-0.01
0.0
-0.01
-0.005
-0.015
-0.01
-0.015
-0.005
-0.03
-0.015
-0.035
-0.03
-0.045
-0.03
-0.03
-0.035
-0.05
-0.03
-0.045
-0.03
-0.045
-0.045
-0.045
-0.045
-0.05
-0.045
-0.06
-0.055
-0.06
-0.065
-0.065
-0.055
-0.06
-0.06
-0.03
-0.015
-0.005
0.03
0.045
0.035
0.02
-0.045
-0.055
-0.07
-0.09
-0.105
-0.09
-0.11
-0.095
-0.11
-0.09
-0.105
-0.07
-0.21
-0.405
-0.415
0.565
1.975
1.165
0.805
0.49
0.275
0.055
-0.03
-0.06
-0.08
-0.07
-0.095
-0.08
-0.095
-0.08
-0.1
-0.085
-0.1
-0.1
-0.105
-0.115
-0.105
-0.085
-0.05
-0.035
-0.01
0.04
0.075
0.1
0.115
0.075
0.04
0.03
0.015
-0.02
0.03
0.03
0.0
0.02
0.01
0.01
0.0
0.0
0.02
0.0
0.0
0.0
0.0
0.005
-0.01
-0.03
0.015
-0.07
-0.02
-0.055
-0.04
-0.07
-0.045
-0.06
-0.055
-0.08
-0.065
-0.085
-0.075
-0.085
-0.07
-0.09
-0.08
-0.1
-0.065
-0.06
-0.03
-0.04
0.015
-0.02
0.025
-0.04
-0.115
-0.13
-0.12
-0.145
-0.115
-0.15
-0.12
-0.135
-0.12
-0.125
-0.1
-0.12
-0.305
-0.43
-0.26
1.14
1.665
1.115
0.71
0.39
0.185
0.01
-0.03
-0.07
-0.055
-0.09
-0.07
-0.08
-0.07
-0.095
-0.06
-0.08
-0.075
-0.09
-0.085
-0.09
-0.065
-0.06
-0.03
0.0
0.035
0.07
0.12
0.11
0.105
0.045
0.035
0.01
0.015
-0.005
0.0
0.0
-0.015
-0.005
0.005
-0.015
-0.01
-0.035
0.0
-0.025
-0.025
-0.025
-0.05
-0.05
-0.045
-0.075
-0.04
-0.075
-0.065
-0.085
-0.06
-0.08
-0.07
-0.09
-0.075
-0.085
-0.07
-0.115
-0.075
-0.09
-0.025
-0.04
-0.015
0.005
0.05
0.01
0.03
-0.095
-0.07
-0.135
-0.075
-0.145
-0.09
-0.14
-0.09
-0.145
-0.09
-0.145
-0.09
-0.195
-0.45
-0.4
0.3
1.92
1.1
0.76
0.53
0.245
0.1
-0.035
-0.035
-0.115
-0.06
-0.105
-0.06
-0.1
-0.09
-0.125
-0.085
-0.13
-0.1
-0.14
-0.11
-0.13
-0.075
-0.12
-0.075
-0.045
0.005
0.025
0.065
0.02
0.03
0.0
-0.015
-0.025
-0.015
-0.02
-0.015
-0.015
-0.02
-0.01
-0.015
-0.03
-0.015
-0.02
-0.03
-0.04
-0.025
-0.045
-0.04
-0.05
-0.04
-0.05
-0.05
-0.055
-0.06
-0.07
-0.055
-0.07
-0.055
-0.07
-0.055
-0.08
-0.07
-0.085
-0.075
-0.095
-0.05
-0.04
0.0
-0.04
0.05
-0.015
0.025
-0.06
-0.085
-0.13
-0.115
-0.16
-0.13
-0.17
-0.135
-0.165
-0.11
-0.17
-0.11
-0.155
-0.4
-0.47
-0.01
1.68
1.39
0.99
0.615
0.33
0.115
-0.02
-0.04
-0.105
-0.065
-0.12
-0.08
-0.12
-0.09
-0.115
-0.095
-0.115
-0.095
-0.12
-0.105
-0.12
-0.095
-0.09
-0.045
-0.025
0.02
0.035
0.085
0.06
0.055
0.005
-0.005
-0.035
-0.04
-0.045
-0.04
-0.05
-0.035
-0.04
-0.04
-0.05
-0.055
-0.035
-0.045
-0.035
-0.04
-0.04
-0.05
-0.055
-0.05
-0.055
-0.055
-0.06
-0.05
-0.06
-0.06
-0.08
-0.065
-0.07
-0.065
-0.085
-0.065
-0.075
-0.06
-0.06
-0.02
-0.03
0.0
0.02
0.025
0.02
0.005
-0.1
-0.075
-0.115
-0.1
-0.13
-0.105
-0.145
-0.11
-0.135
-0.105
-0.13
-0.09
-0.235
-0.445
-0.445
0.545
1.97
1.18
0.785
0.48
0.235
0.05
-0.055
-0.055
-0.095
-0.08
-0.105
-0.09
-0.12
-0.1
-0.115
-0.085
-0.105
-0.095
-0.12
-0.105
-0.115
-0.085
-0.075
-0.035
-0.02
0.03
0.04
0.065
0.04
0.015
-0.01
-0.03
-0.055
-0.055
-0.065
-0.08
-0.06
-0.085
-0.075
-0.065
-0.07
-0.06
-0.07
-0.07
-0.075
-0.07
-0.09
-0.085
-0.08
-0.06
-0.03
0.02
0.06
-0.04
-0.15
-0.17
-0.125
0.0
-0.06
-0.045
-0.015
-0.1
-0.08
-0.06
0.005
-0.06
-0.02
-0.095
-0.005
0.07
0.055
0.055
-0.005
-0.1
-0.085
-0.115
-0.07
-0.07
-0.075
-0.16
-0.04
-0.16
-0.115
-0.115
-0.065
-0.11
-0.395
-0.375
-0.14
1.33
1.55
1.045
0.685
0.39
0.24
0.07
0.01
-0.085
-0.055
-0.08
-0.015
-0.085
-0.03
-0.09
-0.055
-0.075
-0.095
0.0
-0.02
-0.15
-0.05
-0.075
-0.005
0.03
0.075
0.105
0.155
0.11
0.115
0.06
0.05
0.08
0.015
0.025
0.02
0.0
0.015
0.0
-0.02
0.035
-0.005
-0.015
0.005
0.0
0.015
-0.01
-0.02
0.0
0.005
-0.08
-0.015
-0.045
-0.05
0.0
-0.005
-0.005
-0.07
0.01
-0.11
-0.035
0.025
0.005
0.09
0.02
0.05
0.01
-0.125
-0.06
-0.075
-0.075
-0.15
-0.1
-0.095
-0.105
-0.11
-0.08
-0.17
-0.09
-0.12
-0.405
-0.36
-0.09
1.485
1.49
0.93
0.62
0.405
0.135
-0.015
-0.045
-0.095
-0.09
-0.12
-0.085
-0.105
-0.1
-0.11
-0.125
-0.075
-0.035
-0.13
-0.13
-0.125
-0.11
-0.055
-0.05
-0.015
0.02
0.065
0.075
0.05
0.035
0.01
-0.01
-0.05
-0.03
-0.04
-0.015
-0.015
-0.1
-0.055
-0.03
-0.065
-0.075
-0.04
-0.05
-0.065
-0.07
-0.03
-0.08
-0.055
-0.04
-0.07
-0.065
-0.09
-0.06
-0.045
-0.115
-0.095
-0.105
-0.065
-0.075
-0.1
-0.08
-0.04
-0.04
0.01
0.025
0.015
0.005
-0.045
-0.165
-0.11
-0.15
-0.13
-0.145
-0.125
-0.145
-0.165
-0.16
-0.115
-0.11
-0.135
-0.305
-0.45
-0.315
1.0
1.81
1.12
0.675
0.46
0.14
-0.01
-0.055
-0.075
-0.09
-0.065
-0.12
-0.085
-0.09
-0.125
-0.13
-0.105
-0.115
-0.085
-0.095
-0.14
-0.115
-0.045
-0.045
0.0
0.005
0.045
0.105
0.085
0.055
0.035
-0.015
-0.01
-0.05
-0.015
-0.02
-0.005
-0.055
-0.05
-0.025
-0.035
-0.05
-0.01
-0.03
-0.01
-0.04
-0.045
-0.045
-0.025
-0.045
-0.055
-0.06
-0.03
-0.06
-0.02
-0.085
-0.035
-0.065
-0.045
-0.055
-0.035
-0.06
-0.005
-0.015
0.02
0.025
0.085
0.03
0.04
-0.06
-0.015
-0.09
-0.08
-0.115
-0.065
-0.115
-0.085
-0.08
-0.055
-0.09
-0.065
-0.095
-0.305
-0.355
-0.03
1.4
1.38
0.88
0.625
0.39
0.195
0.0
-0.015
-0.07
-0.07
-0.1
-0.06
-0.115
-0.09
-0.1
-0.1
-0.135
-0.085
-0.14
-0.11
-0.145
-0.115
-0.115
-0.065
-0.065
-0.02
-0.02
0.03
0.005
0.035
0.0
-0.03
-0.045
-0.03
-0.065
-0.04
-0.04
-0.045
-0.08
-0.075
-0.095
-0.055
-0.08
-0.055
-0.075
-0.035
-0.05
-0.045
-0.05
-0.04
-0.06
-0.055
-0.065
-0.015
-0.04
0.03
0.05
0.05
0.025
-0.03
-0.115
-0.1
-0.16
-0.1
-0.145
-0.13
-0.14
-0.105
-0.105
-0.13
-0.145
-0.1
-0.125
-0.3
-0.36
-0.175
1.085
1.535
0.98
0.64
0.325
0.18
-0.005
-0.055
-0.085
-0.06
-0.095
-0.095
-0.105
-0.08
-0.105
-0.08
-0.075
-0.075
-0.095
-0.07
-0.07
-0.035
-0.06
0.0
0.01
0.06
0.08
0.115
0.085
0.075
0.02
0.005
-0.02
-0.015
-0.03
-0.045
-0.04
-0.025
-0.035
0.0
-0.02
-0.04
-0.005
0.035
-0.05
0.015
-0.05
-0.16
-0.095
-0.02
-0.04
-0.015
-0.11
-0.15
-0.08
-0.09
-0.13
-0.095
-0.09
-0.09
-0.105
-0.09
-0.11
-0.09
-0.09
-0.05
-0.04
-0.025
0.005
0.0
-0.01
-0.035
-0.115
-0.125
-0.14
-0.135
-0.15
-0.13
-0.145
-0.13
-0.14
-0.135
-0.13
-0.115
-0.315
-0.415
-0.3
1.015
1.66
1.05
0.675
0.395
0.175
0.025
-0.06
-0.065
-0.1
-0.105
-0.1
-0.1
-0.1
-0.1
-0.105
-0.105
-0.105
-0.11
-0.115
-0.115
-0.105
-0.085
-0.055
-0.03
0.005
0.055
0.07
0.065
0.035
0.015
-0.01
-0.035
-0.025
0.04
0.0
0.055
0.12
-0.115
-0.125
0.23
-0.025
-0.055
0.16
0.16
0.12
0.13
-0.28
-0.205
-0.07
-0.035
-0.03
-0.035
-0.04
-0.05
-0.04
-0.06
-0.07
-0.065
-0.065
-0.08
-0.085
-0.095
-0.095
-0.105
-0.09
-0.11
-0.085
-0.1
-0.04
-0.045
-0.015
0.0
0.02
0.01
-0.005
-0.1
-0.09
-0.115
-0.105
-0.145
-0.115
-0.14
-0.095
-0.14
-0.1
-0.125
-0.08
-0.15
-0.41
-0.435
0.115
1.84
1.275
0.905
0.595
0.335
0.12
0.0
-0.015
-0.065
-0.065
-0.08
-0.065
-0.09
-0.075
-0.085
-0.07
-0.09
-0.075
-0.09
-0.085
-0.095
-0.08
-0.06
-0.03
-0.01
0.03
0.09
0.085
0.07
0.055
0.01
-0.005
-0.015
-0.03
-0.015
-0.02
-0.01
-0.015
-0.015
-0.02
-0.01
-0.02
-0.02
-0.03
-0.015
-0.025
-0.025
-0.04
-0.04
-0.05
-0.035
-0.06
-0.055
-0.075
-0.055
-0.07
-0.055
-0.075
-0.055
-0.09
-0.06
-0.085
-0.055
-0.085
-0.065
-0.085
-0.075
-0.07
-0.01
-0.035
0.0
0.02
0.03
0.01
0.01
-0.1
-0.08
-0.115
-0.085
-0.13
-0.09
-0.13
-0.075
-0.12
-0.075
-0.115
-0.075
-0.225
-0.425
-0.43
0.57
1.985
1.185
0.77
0.48
0.23
0.05
-0.045
-0.05
-0.095
-0.065
-0.1
-0.07
-0.12
-0.065
-0.105
-0.085
-0.105
-0.075
-0.115
-0.085
-0.105
-0.06
-0.075
-0.02
-0.005
0.045
0.065
0.09
0.055
0.045
0.005
0.0
-0.03
-0.025
-0.02
-0.02
-0.03
-0.02
-0.035
-0.025
-0.04
-0.03
-0.04
-0.04
-0.045
-0.045
-0.055
-0.045
-0.07
-0.065
-0.07
-0.05
-0.07
-0.07
-0.075
-0.07
-0.085
-0.065
-0.085
-0.075
-0.085
-0.075
-0.085
-0.05
-0.035
-0.015
0.0
0.035
0.01
0.02
-0.055
-0.085
-0.105
-0.1
-0.115
-0.11
-0.125
-0.1
-0.115
-0.105
-0.1
-0.08
-0.095
-0.3
-0.415
-0.25
1.08
1.725
1.095
0.71
0.415
0.195
0.02
-0.02
-0.055
-0.055
-0.07
-0.075
-0.085
-0.075
-0.08
-0.085
-0.1
-0.08
-0.09
-0.095
-0.1
-0.085
-0.08
-0.05
-0.025
0.005
0.045
0.08
0.075
0.055
0.025
0.015
-0.025
-0.02
-0.01
-0.015
-0.035
-0.015
-0.02
-0.025
-0.03
-0.025
-0.03
-0.025
-0.035
-0.03
-0.035
-0.035
-0.045
-0.02
-0.055
-0.06
-0.05
-0.05
-0.06
-0.04
-0.075
-0.055
-0.075
-0.05
-0.08
-0.05
-0.08
-0.055
-0.055
0.015
-0.015
0.025
0.05
0.1
0.055
0.065
-0.01
-0.06
-0.09
-0.055
-0.1
-0.05
-0.1
-0.06
-0.135
-0.07
-0.11
-0.065
-0.145
-0.415
-0.43
0.14
1.86
1.305
0.875
0.6
0.325
0.135
-0.01
-0.025
-0.07
-0.035
-0.085
-0.05
-0.095
-0.06
-0.08
-0.05
-0.08
-0.055
-0.08
-0.06
-0.075
-0.03
-0.045
0.0
0.0
0.06
0.085
0.115
0.09
0.085
0.04
0.02
0.015
0.01
-0.01
-0.005
0.005
0.0
-0.005
-0.005
-0.015
-0.01
-0.03
0.0
-0.025
-0.025
-0.035
-0.025
-0.035
-0.03
-0.02
-0.05
-0.05
-0.055
-0.07
-0.055
-0.075
-0.06
-0.035
0.01
-0.025
0.01
0.01
0.03
0.0
-0.04
-0.12
-0.095
-0.125
-0.115
-0.14
-0.125
-0.14
-0.115
-0.145
-0.1
-0.125
-0.1
-0.265
-0.41
-0.28
0.625
1.805
0.945
0.67
0.46
0.235
0.055
-0.025
-0.04
-0.09
-0.065
-0.085
-0.065
-0.095
-0.075
-0.095
-0.07
-0.095
-0.08
-0.115
-0.085
-0.085
-0.055
-0.065
-0.035
-0.015
0.03
0.05
0.065
0.05
0.04
0.01
0.0
-0.015
-0.02
-0.005
-0.015
-0.01
-0.015
-0.01
-0.015
-0.015
-0.035
-0.03
-0.025
-0.03
-0.04
-0.045
-0.055
-0.065
-0.07
-0.07
-0.075
-0.09
-0.095
-0.085
-0.09
-0.065
-0.1
-0.09
-0.095
-0.085
-0.1
-0.06
-0.04
-0.02
-0.01
0.035
-0.005
0.015
-0.03
-0.095
-0.115
-0.11
-0.135
-0.12
-0.135
-0.115
-0.135
-0.105
-0.14
-0.1
-0.12
-0.315
-0.405
-0.245
1.08
1.65
1.08
0.675
0.365
0.15
0.01
-0.04
-0.07
-0.065
-0.09
-0.07
-0.08
-0.075
-0.09
-0.085
-0.105
-0.085
-0.09
-0.08
-0.09
-0.055
-0.055
-0.015
0.005
0.04
0.085
0.115
0.1
0.085
0.055
0.035
-0.02
-0.01
-0.04
-0.025
0.0
0.0
-0.04
-0.035
-0.035
-0.045
-0.045
-0.03
-0.045
-0.04
-0.05
-0.045
-0.055
-0.05
-0.045
-0.055
-0.05
-0.06
-0.055
-0.065
-0.05
-0.075
-0.075
-0.05
-0.035
-0.015
0.005
0.015
0.015
0.025
0.0
-0.095
-0.075
-0.08
-0.085
-0.11
-0.105
-0.135
-0.12
-0.125
-0.1
-0.125
-0.07
-0.12
-0.375
-0.42
-0.17
1.375
1.525
1.055
0.67
0.39
0.165
0.015
-0.035
-0.07
-0.07
-0.09
-0.075
-0.095
-0.1
-0.115
-0.105
-0.105
-0.105
-0.095
-0.1
-0.1
-0.085
-0.065
-0.045
-0.015
0.015
0.07
0.085
0.09
0.06
0.03
0.01
0.0
-0.02
0.0
0.0
-0.04
-0.035
-0.005
-0.035
-0.02
-0.02
-0.02
-0.03
-0.03
-0.04
-0.035
-0.045
-0.05
-0.045
-0.035
-0.04
-0.04
-0.05
-0.045
-0.05
-0.04
-0.045
-0.055
-0.06
-0.05
-0.075
-0.055
-0.06
-0.04
-0.01
-0.015
0.0
0.04
0.015
0.025
0.005
-0.085
-0.075
-0.115
-0.115
-0.09
-0.095
-0.13
-0.11
-0.125
-0.09
-0.135
-0.065
-0.22
-0.43
-0.28
0.655
1.77
0.93
0.68
0.43
0.225
0.03
-0.045
-0.07
-0.09
-0.09
-0.12
-0.115
-0.125
-0.115
-0.135
-0.13
-0.14
-0.135
-0.135
-0.135
-0.13
-0.115
-0.1
-0.08
-0.055
-0.025
0.01
0.015
0.01
-0.015
-0.035
-0.065
-0.05
-0.07
-0.05
-0.06
-0.05
-0.06
-0.06
-0.065
-0.04
-0.065
-0.04
-0.06
-0.05
-0.06
-0.06
-0.075
-0.06
-0.085
-0.06
-0.08
-0.055
-0.09
-0.06
-0.085
-0.065
-0.095
-0.055
0.005
0.015
0.01
0.015
0.005
0.01
0.01
0.01
0.005
0.005
0.0
0.0
0.0
0.0
-0.005
0.0
-0.005
-0.01
-0.01
-0.01
-0.015
-0.01
-0.02
-0.02
-0.02
-0.02
-0.02
-0.025
-0.03
-0.03
-0.035
-0.04
-0.04
-0.04
-0.05
-0.05
-0.045
-0.055
-0.055
-0.06
-0.055
-0.07
-0.06
-0.06
-0.05
-0.06
-0.08
-0.095
-0.065
-0.095
-0.09
-0.09
-0.08
-0.095
-0.085
-0.1
-0.08
-0.095
-0.075
-0.095
-0.065
-0.08
-0.06
-0.17
-0.275
-0.325
0.45
1.595
0.93
0.69
0.455
0.265
0.085
0.01
-0.01
-0.05
-0.03
-0.065
-0.06
-0.06
-0.055
-0.075
-0.055
-0.07
-0.06
-0.065
-0.055
-0.06
-0.04
-0.04
-0.015
0.0
0.015
0.045
0.075
0.09
0.115
0.1
0.07
0.045
0.025
0.015
0.015
0.0
-0.01
0.0
0.01
0.01
0.0
0.005
0.0
0.005
-0.005
0.015
0.005
0.0
0.0
0.01
0.005
0.01
0.0
0.01
0.0
0.005
0.0
0.0
-0.015
0.0
0.0
-0.005
0.0
-0.005
-0.01
-0.005
-0.01
-0.01
-0.01
-0.02
-0.02
-0.02
-0.02
-0.025
-0.025
-0.025
-0.035
-0.04
-0.035
-0.04
-0.045
-0.055
-0.035
-0.05
-0.05
-0.065
-0.06
-0.06
-0.055
-0.08
-0.04
-0.075
-0.05
-0.115
-0.065
-0.07
-0.095
-0.1
-0.085
-0.1
-0.09
-0.11
-0.08
-0.12
-0.07
-0.11
-0.07
-0.1
-0.065
-0.17
-0.29
-0.26
0.285
1.55
0.85
0.685
0.455
0.275
0.11
0.0
-0.015
-0.055
-0.04
-0.075
-0.055
-0.085
-0.055
-0.085
-0.055
-0.1
-0.065
-0.08
-0.06
-0.07
-0.055
-0.055
-0.04
-0.025
0.0
0.02
0.05
0.05
0.075
0.07
0.06
0.035
0.015
0.0
0.0
0.0
0.0
0.0
0.0
0.01
0.0
0.005
0.01
0.0
0.0
0.005
-0.005
0.0
0.0
-0.01
-0.015
-0.005
-0.01
-0.015
-0.015
-0.005
-0.035
-0.02
-0.03
-0.02
-0.04
-0.04
-0.045
-0.04
-0.04
-0.03
-0.05
-0.05
-0.055
-0.045
-0.06
-0.055
-0.06
-0.055
-0.07
-0.06
-0.075
-0.06
-0.085
-0.065
-0.08
-0.07
-0.09
-0.075
-0.1
-0.045
-0.04
-0.03
-0.1
-0.025
-0.06
-0.065
-0.1
-0.095
-0.13
-0.115
-0.15
-0.1
-0.145
-0.105
-0.15
-0.1
-0.135
-0.09
-0.195
-0.3
-0.32
0.25
1.515
0.84
0.655
0.415
0.215
0.075
-0.03
-0.035
-0.085
-0.055
-0.1
-0.07
-0.105
-0.07
-0.11
-0.07
-0.095
-0.065
-0.095
-0.06
-0.075
-0.045
-0.06
-0.02
-0.015
0.025
0.03
0.07
0.08
0.105
0.085
0.065
0.03
0.01
-0.01
-0.01
-0.02
-0.015
-0.025
-0.01
-0.02
-0.015
-0.025
-0.02
-0.02
-0.02
-0.025
-0.02
-0.025
-0.02
-0.025
-0.02
-0.025
-0.025
-0.03
-0.03
-0.04
-0.04
-0.045
-0.045
-0.045
-0.045
-0.055
-0.055
-0.055
-0.06
-0.065
-0.065
-0.065
-0.07
-0.07
-0.08
-0.07
-0.08
-0.07
-0.09
-0.075
-0.085
-0.035
-0.045
-0.02
0.0
0.025
0.0
0.0
-0.085
-0.085
-0.125
-0.11
-0.145
-0.12
-0.15
-0.115
-0.15
-0.12
-0.145
-0.11
-0.16
-0.325
-0.355
-0.02
1.3
1.01
0.805
0.51
0.275
0.095
-0.02
-0.045
-0.085
-0.07
-0.105
-0.08
-0.105
-0.085
-0.1
-0.08
-0.095
-0.075
-0.09
-0.07
-0.08
-0.06
-0.06
-0.03
-0.015
0.015
0.035
0.065
0.08
0.125
0.115
0.085
0.055
0.03
0.005
0.0
0.0
-0.005
-0.005
-0.005
-0.005
-0.01
-0.005
-0.01
-0.005
-0.01
-0.005
-0.01
-0.005
-0.01
-0.005
-0.01
-0.005
-0.005
-0.005
-0.01
-0.005
-0.01
-0.01
-0.015
-0.015
-0.02
-0.02
-0.025
-0.02
-0.025
-0.02
-0.03
-0.025
-0.03
-0.03
-0.04
-0.035
-0.04
-0.035
-0.045
-0.035
-0.045
-0.04
-0.05
-0.045
-0.055
-0.05
-0.065
-0.055
-0.065
-0.055
-0.05
0.0
-0.015
-0.035
-0.005
-0.015
-0.045
-0.065
-0.095
-0.085
-0.11
-0.09
-0.115
-0.09
-0.105
-0.09
-0.11
-0.085
-0.105
-0.075
-0.195
-0.275
-0.36
0.48
1.535
0.93
0.645
0.415
0.225
0.06
-0.015
-0.025
-0.06
-0.05
-0.075
-0.065
-0.08
-0.065
-0.085
-0.065
-0.08
-0.065
-0.075
-0.06
-0.075
-0.045
-0.045
-0.01
-0.005
0.02
0.04
0.085
0.1
0.125
0.105
0.085
0.05
0.045
0.02
0.015
0.01
0.015
0.01
0.01
0.01
0.025
0.015
0.01
0.01
0.005
0.005
0.0
0.0
0.015
0.005
0.005
0.005
0.005
0.0
0.0
0.0
0.0
0.0
0.0
-0.005
-0.005
-0.015
-0.01
-0.01
-0.01
-0.02
-0.01
-0.015
-0.025
-0.02
-0.02
-0.02
-0.03
-0.025
-0.035
-0.035
-0.035
-0.035
-0.045
-0.04
-0.055
-0.045
-0.055
-0.045
-0.055
-0.05
-0.035
0.0
-0.03
-0.02
0.015
0.0
-0.045
-0.055
-0.095
-0.07
-0.1
-0.075
-0.11
-0.085
-0.105
-0.07
-0.11
-0.07
-0.1
-0.065
-0.195
-0.275
-0.275
0.365
1.555
0.855
0.66
0.44
0.255
0.08
0.0
-0.025
-0.06
-0.045
-0.085
-0.06
-0.09
-0.065
-0.085
-0.06
-0.09
-0.07
-0.08
-0.06
-0.08
-0.055
-0.055
-0.035
-0.03
0.0
0.01
0.05
0.06
0.08
0.07
0.055
0.04
0.015
0.01
0.0
0.0
0.0
0.0
0.0
0.0
0.0
0.005
-0.005
-0.005
-0.01
-0.015
-0.02
-0.02
-0.025
-0.02
-0.025
-0.025
-0.03
-0.025
-0.025
-0.04
-0.04
-0.035
-0.045
-0.05
-0.045
-0.045
-0.06
-0.045
-0.06
-0.055
-0.07
-0.06
-0.075
-0.06
-0.08
-0.07
-0.085
-0.075
-0.095
-0.075
-0.1
-0.065
-0.075
-0.025
-0.05
-0.045
-0.025
-0.03
-0.085
-0.085
-0.13
-0.1
-0.145
-0.11
-0.145
-0.11
-0.15
-0.105
-0.145
-0.1
-0.14
-0.09
-0.165
-0.305
-0.315
0.1
1.415
0.915
0.73
0.465
0.235
0.09
-0.02
-0.035
-0.085
-0.06
-0.1
-0.065
-0.1
-0.07
-0.1
-0.07
-0.095
-0.065
-0.09
-0.06
-0.075
-0.045
-0.055
-0.015
-0.01
0.025
0.04
0.08
0.095
0.12
0.1
0.085
0.045
0.03
0.005
0.0
-0.01
-0.005
-0.01
0.0
-0.005
-0.005
0.0
0.0
-0.005
0.0
0.0
0.0
0.0
0.0
0.0
0.0
0.0
0.0
0.0
0.0
0.0
0.0
0.0
0.0
-0.005
0.0
-0.005
0.0
-0.005
-0.005
-0.005
-0.005
-0.01
-0.01
-0.015
-0.01
-0.015
-0.015
-0.015
-0.02
-0.02
-0.02
-0.025
-0.03
-0.03
-0.03
-0.035
-0.035
-0.035
-0.04
-0.045
-0.04
-0.045
-0.045
-0.05
-0.05
-0.055
-0.055
-0.06
-0.06
-0.065
-0.065
-0.07
-0.07
-0.075
-0.075
-0.075
-0.065
-0.06
-0.04
-0.1
-0.1
-0.05
-0.125
-0.115
-0.1
-0.11
-0.11
-0.115
-0.11
-0.105
-0.105
-0.105
-0.105
-0.105
-0.095
-0.095
-0.215
-0.28
-0.325
0.655
1.44
0.935
0.62
0.365
0.185
0.035
-0.02
-0.045
-0.055
-0.065
-0.07
-0.075
-0.075
-0.075
-0.075
-0.075
-0.07
-0.065
-0.065
-0.065
-0.06
-0.045
-0.03
-0.01
0.01
0.035
0.06
0.095
0.125
0.135
0.115
0.08
0.045
0.02
0.005
0.0
-0.005
-0.005
-0.005
-0.005
-0.005
0.0
-0.005
-0.005
0.0
0.0
0.0
0.0
0.0
0.0
0.0
0.0
0.0
0.0
0.0
0.0
0.0
-0.005
-0.005
-0.005
-0.005
0.0
0.0
-0.01
-0.005
-0.01
-0.005
-0.01
-0.01
-0.015
-0.015
-0.015
-0.02
-0.02
-0.02
-0.025
-0.025
-0.03
-0.03
-0.035
-0.035
-0.04
-0.04
-0.045
-0.04
-0.055
-0.045
-0.06
-0.05
-0.065
-0.05
-0.07
-0.055
-0.08
-0.06
-0.075
-0.045
-0.075
-0.065
-0.12
-0.07
-0.1
-0.09
-0.11
-0.09
-0.115
-0.09
-0.12
-0.08
-0.12
-0.08
-0.11
-0.075
-0.11
-0.065
-0.125
-0.29
-0.34
0.055
1.395
1.02
0.82
0.54
0.315
0.14
0.01
-0.005
-0.055
-0.035
-0.075
-0.05
-0.085
-0.045
-0.08
-0.06
-0.085
-0.055
-0.08
-0.06
-0.065
-0.045
-0.06
-0.025
-0.02
0.02
0.035
0.065
0.085
0.125
0.12
0.095
0.07
0.04
0.015
0.01
0.005
0.005
0.0
0.005
0.0
0.01
0.005
0.01
0.005
0.0
0.005
0.0
0.0
0.0
0.005
0.005
0.0
0.0
0.005
0.005
0.005
-0.005
0.0
0.0
-0.005
0.0
-0.005
-0.005
0.0
-0.005
-0.005
-0.01
0.0
-0.01
-0.005
-0.015
-0.005
-0.015
-0.015
-0.015
-0.02
-0.02
-0.03
-0.025
-0.025
-0.045
-0.03
-0.04
-0.05
-0.055
-0.035
-0.055
-0.045
-0.06
-0.05
-0.075
-0.05
-0.075
-0.035
-0.075
-0.05
-0.11
-0.055
-0.085
-0.075
-0.085
-0.075
-0.115
-0.08
-0.115
-0.07
-0.115
-0.065
-0.1
-0.06
-0.105
-0.055
-0.14
-0.3
-0.275
0.14
1.46
0.94
0.765
0.51
0.32
0.155
0.01
0.005
-0.05
-0.025
-0.075
-0.04
-0.075
-0.045
-0.075
-0.055
-0.075
-0.05
-0.085
-0.05
-0.07
-0.04
-0.05
-0.03
-0.025
0.01
0.01
0.06
0.07
0.1
0.09
0.085
0.055
0.04
0.03
0.02
0.015
0.02
0.005
0.02
0.015
0.02
0.015
0.015
0.02
0.02
0.025
0.015
0.015
0.005
0.0
0.005
0.005
0.005
0.0
0.0
-0.005
0.0
-0.015
-0.005
-0.01
-0.01
-0.025
-0.02
-0.02
-0.035
-0.03
-0.03
-0.035
-0.03
-0.045
-0.04
-0.045
-0.05
-0.045
-0.05
-0.055
-0.055
-0.055
-0.06
-0.065
-0.07
-0.07
-0.075
-0.08
-0.085
-0.085
-0.09
-0.09
-0.09
-0.085
-0.085
-0.08
-0.115
-0.11
-0.1
-0.11
-0.125
-0.1
-0.135
-0.125
-0.135
-0.12
-0.13
-0.12
-0.125
-0.115
-0.12
-0.11
-0.12
-0.275
-0.255
-0.18
0.865
1.245
0.845
0.565
0.335
0.17
0.015
-0.025
-0.055
-0.06
-0.075
-0.075
-0.085
-0.075
-0.085
-0.085
-0.085
-0.075
-0.075
-0.07
-0.07
-0.055
-0.05
-0.035
-0.015
0.005
0.03
0.055
0.08
0.105
0.11
0.085
0.065
0.035
0.015
0.0
-0.005
-0.015
-0.01
-0.005
-0.005
-0.01
-0.005
-0.005
0.0
-0.005
0.0
0.0
-0.005
-0.005
0.0
-0.005
0.0
-0.01
-0.005
-0.01
0.0
-0.01
-0.01
-0.01
-0.01
-0.015
-0.015
-0.02
-0.015
-0.02
-0.015
-0.025
-0.02
-0.03
-0.025
-0.03
-0.025
-0.03
-0.03
-0.035
-0.04
-0.04
-0.045
-0.05
-0.045
-0.05
-0.055
-0.05
-0.06
-0.06
-0.065
-0.06
-0.07
-0.065
-0.075
-0.07
-0.08
-0.075
-0.085
-0.06
-0.08
-0.065
-0.13
-0.09
-0.08
-0.115
-0.12
-0.105
-0.115
-0.105
-0.125
-0.105
-0.125
-0.095
-0.12
-0.095
-0.115
-0.085
-0.185
-0.305
-0.39
0.37
1.6
0.935
0.685
0.43
0.24
0.07
-0.01
-0.02
-0.055
-0.05
-0.075
-0.06
-0.08
-0.065
-0.08
-0.065
-0.08
-0.065
-0.075
-0.055
-0.065
-0.045
-0.045
-0.015
0.0
0.03
0.045
0.085
0.115
0.135
0.125
0.1
0.06
0.03
0.01
0.0
-0.005
-0.01
-0.005
-0.01
-0.005
-0.005
-0.005
-0.005
-0.005
-0.005
-0.005
-0.01
-0.005
-0.01
-0.005
-0.01
-0.005
-0.005
-0.005
-0.005
-0.005
-0.01
-0.01
-0.015
-0.01
-0.015
-0.015
-0.025
-0.02
-0.025
-0.02
-0.03
-0.03
-0.035
-0.03
-0.035
-0.035
-0.035
-0.035
-0.045
-0.045
-0.05
-0.045
-0.055
-0.05
-0.06
-0.06
-0.065
-0.06
-0.07
-0.07
-0.08
-0.075
-0.08
-0.065
-0.08
-0.06
-0.13
-0.085
-0.075
-0.115
-0.115
-0.105
-0.11
-0.105
-0.12
-0.105
-0.115
-0.095
-0.11
-0.09
-0.105
-0.085
-0.225
-0.3
-0.355
0.54
1.54
0.95
0.655
0.425
0.23
0.065
-0.015
-0.025
-0.06
-0.05
-0.07
-0.06
-0.08
-0.065
-0.07
-0.055
-0.075
-0.055
-0.065
-0.06
-0.06
-0.04
-0.04
-0.01
0.0
0.025
0.045
0.08
0.1
0.125
0.11
0.09
0.055
0.035
0.01
0.01
0.0
0.0
0.0
0.0
0.0
0.01
0.0
0.0
0.0
0.0
0.0
0.005
-0.005
0.0
-0.005
0.0
-0.005
0.0
0.0
-0.005
-0.01
-0.005
-0.005
-0.01
-0.015
-0.01
-0.02
-0.01
-0.01
-0.015
-0.025
-0.02
-0.025
-0.02
-0.03
-0.03
-0.03
-0.03
-0.04
-0.04
-0.04
-0.045
-0.045
-0.05
-0.045
-0.055
-0.055
-0.06
-0.055
-0.065
-0.055
-0.06
-0.055
-0.065
-0.1
-0.095
-0.05
-0.105
-0.095
-0.115
-0.08
-0.105
-0.09
-0.11
-0.09
-0.1
-0.08
-0.095
-0.08
-0.1
-0.275
-0.25
-0.12
0.975
1.215
0.86
0.595
0.37
0.2
0.04
-0.005
-0.045
-0.045
-0.06
-0.06
-0.07
-0.06
-0.065
-0.07
-0.07
-0.065
-0.065
-0.065
-0.075
-0.065
-0.06
-0.04
-0.04
-0.01
0.005
0.025
0.06
0.075
0.085
0.07
0.045
0.025
0.015
0.0
-0.01
-0.01
-0.015
-0.01
-0.005
-0.005
-0.005
-0.01
0.0
-0.01
-0.005
-0.005
-0.005
-0.03
-0.025
-0.035
-0.02
-0.04
-0.03
-0.04
-0.035
-0.045
-0.045
-0.05
-0.035
-0.06
-0.045
-0.06
-0.05
-0.065
-0.05
-0.07
-0.05
-0.075
-0.06
-0.055
0.0
-0.02
0.015
0.025
0.055
0.03
0.02
-0.09
-0.06
-0.11
-0.085
-0.13
-0.08
-0.13
-0.095
-0.135
-0.09
-0.13
-0.075
-0.205
-0.305
-0.305
0.26
1.52
0.825
0.65
0.425
0.235
0.085
-0.035
-0.035
-0.095
-0.07
-0.11
-0.08
-0.115
-0.085
-0.12
-0.085
-0.115
-0.08
-0.115
-0.085
-0.11
-0.08
-0.09
-0.06
-0.065
-0.025
-0.025
0.01
0.025
0.05
0.035
0.035
0.005
0.0
-0.02
-0.02
-0.03
-0.025
-0.03
-0.03
-0.025
-0.02
-0.03
-0.025
-0.03
-0.025
-0.035
-0.035
-0.04
-0.035
-0.04
-0.04
-0.045
-0.055
-0.055
-0.06
-0.06
-0.07
-0.07
-0.075
-0.075
-0.075
-0.075
-0.08
-0.075
-0.075
-0.04
-0.03
-0.015
0.025
0.015
0.025
0.0
-0.085
-0.09
-0.11
-0.11
-0.125
-0.12
-0.13
-0.11
-0.12
-0.115
-0.125
-0.105
-0.115
-0.26
-0.285
-0.225
0.87
1.285
0.89
0.57
0.335
0.15
0.005
-0.04
-0.07
-0.07
-0.085
-0.08
-0.09
-0.085
-0.09
-0.08
-0.085
-0.08
-0.08
-0.07
-0.07
-0.065
-0.055
-0.04
-0.02
0.0
0.02
0.045
0.075
0.1
0.1
0.08
0.06
0.025
0.01
-0.005
0.0
-0.01
-0.01
-0.01
-0.005
-0.01
-0.01
-0.01
-0.01
-0.015
-0.01
-0.015
-0.01
-0.015
-0.01
-0.015
-0.015
-0.02
-0.015
-0.02
-0.02
-0.03
-0.025
-0.035
-0.04
-0.04
-0.045
-0.045
-0.05
-0.05
-0.05
-0.05
-0.055
-0.055
-0.06
-0.06
-0.065
-0.06
-0.07
-0.065
-0.075
-0.07
-0.06
-0.02
-0.025
-0.03
-0.03
-0.005
-0.025
-0.06
-0.1
-0.085
-0.115
-0.1
-0.125
-0.1
-0.12
-0.095
-0.12
-0.095
-0.11
-0.08
-0.105
-0.26
-0.29
-0.15
1.05
1.195
0.9
0.58
0.345
0.155
0.015
-0.02
-0.055
-0.05
-0.07
-0.06
-0.08
-0.06
-0.08
-0.065
-0.075
-0.06
-0.065
-0.06
-0.07
-0.045
-0.04
-0.03
-0.01
0.01
0.025
0.06
0.08
0.1
0.11
0.095
0.065
0.04
0.025
0.0
0.01
0.005
0.01
0.0
0.005
0.01
0.01
0.0
0.005
0.005
0.005
0.0
0.005
0.0
0.005
0.0
0.0
-0.005
0.0
-0.01
-0.01
0.0
-0.005
-0.01
0.0
-0.015
-0.01
-0.015
-0.015
-0.02
-0.01
-0.03
-0.02
-0.025
-0.025
-0.03
-0.025
-0.04
-0.03
-0.035
-0.035
-0.045
-0.035
-0.045
-0.05
-0.05
-0.045
-0.065
-0.045
-0.055
-0.04
-0.04
-0.01
-0.025
-0.025
0.015
-0.01
-0.05
-0.07
-0.085
-0.085
-0.11
-0.09
-0.1
-0.095
-0.105
-0.09
-0.115
-0.085
-0.09
-0.09
-0.095
-0.24
-0.26
-0.21
0.78
1.315
0.86
0.585
0.355
0.19
0.03
-0.02
-0.055
-0.055
-0.07
-0.08
-0.085
-0.075
-0.085
-0.08
-0.085
-0.08
-0.09
-0.075
-0.08
-0.06
-0.065
-0.05
-0.035
-0.015
0.015
0.035
0.04
0.085
0.09
0.08
0.05
0.035
0.015
0.01
0.0
0.0
0.0
0.0
0.0
0.0
0.005
0.01
-0.005
0.0
0.0
0.0
-0.005
0.0
0.0
0.0
-0.005
0.0
0.0
-0.01
-0.015
-0.005
-0.01
-0.015
-0.015
-0.015
-0.025
-0.02
-0.02
-0.015
-0.025
-0.02
-0.03
-0.025
-0.035
-0.03
-0.03
-0.025
-0.035
-0.035
-0.045
-0.04
-0.045
-0.05
-0.06
-0.055
-0.055
-0.06
-0.07
-0.06
-0.07
-0.07
-0.075
-0.075
-0.08
-0.075
-0.085
-0.085
-0.07
-0.035
-0.025
-0.065
-0.025
-0.025
-0.045
-0.085
-0.105
-0.11
-0.12
-0.12
-0.12
-0.12
-0.125
-0.12
-0.12
-0.115
-0.115
-0.11
-0.1
-0.22
-0.275
-0.3
0.63
1.43
0.88
0.59
0.345
0.175
0.025
-0.03
-0.06
-0.065
-0.07
-0.08
-0.08
-0.085
-0.085
-0.085
-0.08
-0.08
-0.08
-0.075
-0.065
-0.06
-0.05
-0.035
-0.015
0.005
0.03
0.06
0.09
0.115
0.125
0.11
0.075
0.055
0.025
0.01
0.0
0.0
-0.005
0.0
0.0
0.005
0.0
0.005
0.0
0.005
0.0
0.005
0.005
0.01
0.005
0.01
0.0
0.005
0.005
0.005
0.005
0.01
0.0
0.005
0.0
0.0
0.0
0.0
0.0
0.0
0.0
0.0
0.0
-0.005
-0.005
-0.005
-0.01
-0.005
-0.015
-0.01
-0.015
-0.015
-0.02
-0.015
-0.025
-0.025
-0.03
-0.03
-0.03
-0.03
-0.04
-0.04
-0.045
-0.045
-0.05
-0.05
-0.055
-0.055
-0.06
-0.06
-0.06
-0.065
-0.07
-0.075
-0.075
-0.075
-0.08
-0.075
-0.07
-0.075
-0.075
-0.125
-0.09
-0.075
-0.12
-0.105
-0.115
-0.1
-0.11
-0.11
-0.115
-0.11
-0.115
-0.105
-0.105
-0.1
-0.1
-0.09
-0.215
-0.275
-0.315
0.665
1.455
0.945
0.625
0.39
0.205
0.05
-0.015
-0.035
-0.055
-0.06
-0.07
-0.07
-0.08
-0.075
-0.08
-0.075
-0.075
-0.07
-0.07
-0.06
-0.06
-0.045
-0.035
-0.01
0.005
0.035
0.06
0.095
0.12
0.14
0.12
0.095
0.06
0.035
0.01
0.005
0.0
0.0
0.0
0.0
0.0
0.005
0.005
0.005
0.0
0.005
0.0
0.005
0.005
0.005
0.005
0.005
0.005
0.01
0.005
0.005
0.005
0.005
0.0
0.005
0.0
0.0
0.0
0.0
0.0
0.0
0.0
0.0
0.0
-0.005
-0.005
-0.005
-0.005
-0.005
-0.005
-0.01
-0.005
-0.01
-0.015
-0.02
-0.025
-0.02
-0.02
-0.025
-0.025
-0.03
-0.03
-0.045
-0.04
-0.045
-0.04
-0.05
-0.04
-0.055
-0.045
-0.06
-0.055
-0.07
-0.05
-0.065
-0.05
-0.07
-0.095
-0.1
-0.05
-0.12
-0.08
-0.115
-0.07
-0.12
-0.085
-0.11
-0.08
-0.12
-0.07
-0.11
-0.075
-0.105
-0.055
-0.15
-0.3
-0.34
0.165
1.525
0.95
0.765
0.5
0.295
0.125
0.01
-0.01
-0.065
-0.04
-0.075
-0.05
-0.09
-0.055
-0.08
-0.06
-0.085
-0.06
-0.08
-0.055
-0.07
-0.05
-0.055
-0.025
-0.01
0.015
0.025
0.075
0.095
0.12
0.12
0.1
0.07
0.045
0.025
0.01
0.005
0.01
0.005
0.005
0.005
0.015
0.005
0.01
0.01
0.01
0.015
0.01
0.01
0.005
0.005
0.01
0.01
0.01
0.005
0.005
0.01
0.0
0.005
0.0
0.005
0.0
0.0
0.0
0.0
-0.005
0.0
-0.005
-0.005
-0.01
-0.015
-0.015
-0.01
-0.02
-0.015
-0.015
-0.015
-0.02
-0.03
-0.025
-0.03
-0.04
-0.035
-0.04
-0.04
-0.045
-0.045
-0.05
-0.055
-0.06
-0.05
-0.07
-0.055
-0.06
-0.065
-0.07
-0.06
-0.07
-0.065
-0.125
-0.09
-0.065
-0.105
-0.105
-0.105
-0.105
-0.1
-0.11
-0.1
-0.115
-0.105
-0.105
-0.1
-0.105
-0.085
-0.1
-0.265
-0.255
-0.175
0.845
1.315
0.86
0.585
0.355
0.19
0.025
-0.02
-0.05
-0.055
-0.075
-0.075
-0.085
-0.08
-0.09
-0.085
-0.09
-0.08
-0.08
-0.075
-0.075
-0.07
-0.065
-0.045
-0.03
-0.01
0.005
0.03
0.06
0.09
0.095
0.095
0.065
0.04
0.015
0.005
-0.005
-0.005
-0.005
-0.005
-0.005
0.0
0.0
-0.005
0.0
0.0
0.0
0.0
0.0
0.0
0.0
0.0
0.0
-0.005
-0.005
0.0
-0.005
-0.005
-0.01
-0.01
-0.01
-0.01
-0.01
-0.01
-0.015
-0.01
-0.015
-0.01
-0.015
-0.015
-0.015
-0.015
-0.02
-0.02
-0.025
-0.025
-0.03
-0.03
-0.03
-0.03
-0.035
-0.035
-0.045
-0.04
-0.05
-0.045
-0.05
-0.055
-0.055
-0.055
-0.06
-0.065
-0.07
-0.07
-0.075
-0.075
-0.08
-0.07
-0.07
-0.07
-0.1
-0.11
-0.095
-0.1
-0.125
-0.105
-0.125
-0.115
-0.12
-0.12
-0.12
-0.115
-0.115
-0.105
-0.11
-0.105
-0.11
-0.26
-0.295
-0.265
0.79
1.385
0.915
0.605
0.365
0.18
0.03
-0.025
-0.05
-0.06
-0.07
-0.075
-0.08
-0.075
-0.08
-0.075
-0.08
-0.075
-0.075
-0.07
-0.065
-0.06
-0.05
-0.035
-0.015
0.005
0.025
0.055
0.09
0.12
0.135
0.12
0.09
0.055
0.025
0.005
0.0
-0.01
-0.015
-0.01
-0.01
-0.01
-0.005
-0.01
-0.01
-0.005
-0.01
-0.01
-0.01
-0.005
-0.01
-0.01
-0.01
-0.005
-0.01
-0.015
-0.015
-0.015
-0.015
-0.015
-0.015
-0.015
-0.02
-0.025
-0.025
-0.025
-0.025
-0.025
-0.025
-0.02
-0.025
-0.02
-0.02
-0.025
-0.025
-0.025
-0.03
-0.03
-0.035
-0.04
-0.035
-0.045
-0.04
-0.045
-0.045
-0.055
-0.045
-0.06
-0.055
-0.065
-0.055
-0.07
-0.06
-0.08
-0.065
-0.085
-0.07
-0.09
-0.06
-0.09
-0.06
-0.135
-0.08
-0.09
-0.105
-0.125
-0.1
-0.12
-0.095
-0.135
-0.095
-0.13
-0.085
-0.125
-0.085
-0.125
-0.075
-0.165
-0.325
-0.39
0.165
1.555
0.97
0.755
0.49
0.285
0.11
-0.005
-0.015
-0.07
-0.045
-0.085
-0.055
-0.09
-0.055
-0.09
-0.06
-0.09
-0.06
-0.08
-0.055
-0.07
-0.045
-0.05
-0.015
-0.01
0.02
0.035
0.075
0.1
0.13
0.125
0.115
0.075
0.05
0.02
0.005
-0.005
-0.005
-0.005
0.0
0.0
0.0
0.0
0.005
0.0
0.005
0.0
0.01
0.005
0.005
0.005
0.0
0.005
0.0
0.0
0.0
0.0
0.0
0.0
0.0
-0.005
-0.005
-0.01
-0.01
-0.01
-0.01
-0.01
-0.01
-0.015
-0.01
-0.01
-0.01
-0.01
-0.015
-0.015
-0.015
-0.015
-0.02
-0.02
-0.025
-0.025
-0.025
-0.025
-0.035
-0.03
-0.035
-0.04
-0.045
-0.04
-0.055
-0.045
-0.055
-0.05
-0.065
-0.05
-0.075
-0.06
-0.07
-0.045
-0.075
-0.055
-0.12
-0.07
-0.075
-0.095
-0.105
-0.09
-0.105
-0.08
-0.115
-0.075
-0.11
-0.075
-0.105
-0.07
-0.1
-0.06
-0.16
-0.3
-0.355
0.28
1.62
0.94
0.725
0.48
0.285
0.115
0.0
-0.005
-0.05
-0.03
-0.07
-0.045
-0.075
-0.05
-0.08
-0.055
-0.075
-0.055
-0.07
-0.055
-0.065
-0.04
-0.045
-0.015
0.0
0.025
0.04
0.085
0.11
0.135
0.13
0.12
0.075
0.055
0.03
0.015
0.0
0.0
0.0
0.005
0.01
0.005
0.01
0.005
0.015
0.01
0.01
0.005
0.005
0.0
0.01
0.0
0.0
0.0
0.005
0.0
0.0
0.0
0.0
-0.01
-0.005
-0.005
-0.005
-0.005
-0.005
-0.02
-0.015
-0.01
-0.01
-0.015
-0.015
-0.02
-0.015
-0.02
-0.02
-0.025
-0.025
-0.03
-0.035
-0.03
-0.04
-0.035
-0.04
-0.04
-0.04
-0.05
-0.06
-0.045
-0.055
-0.05
-0.065
-0.055
-0.075
-0.055
-0.08
-0.05
-0.075
-0.045
-0.115
-0.085
-0.085
-0.095
-0.12
-0.08
-0.115
-0.09
-0.125
-0.09
-0.125
-0.085
-0.12
-0.085
-0.115
-0.075
-0.14
-0.31
-0.285
0.05
1.35
0.985
0.79
0.53
0.325
0.155
0.01
-0.015
-0.065
-0.04
-0.085
-0.06
-0.09
-0.065
-0.09
-0.065
-0.085
-0.065
-0.085
-0.065
-0.075
-0.06
-0.065
-0.035
-0.03
0.0
0.015
0.045
0.07
0.095
0.095
0.09
0.055
0.04
0.01
0.0
-0.005
-0.01
-0.01
-0.01
0.0
-0.005
-0.005
-0.005
0.0
0.0
0.0
-0.005
-0.005
-0.005
-0.005
-0.005
-0.01
-0.01
-0.005
-0.015
-0.01
-0.01
-0.01
-0.015
-0.02
-0.02
-0.02
-0.02
-0.02
-0.025
-0.02
-0.025
-0.025
-0.025
-0.02
-0.025
-0.03
-0.035
-0.035
-0.035
-0.035
-0.04
-0.04
-0.04
-0.045
-0.05
-0.055
-0.05
-0.055
-0.055
-0.06
-0.065
-0.065
-0.07
-0.07
-0.075
-0.08
-0.08
-0.08
-0.07
-0.08
-0.07
-0.125
-0.095
-0.085
-0.125
-0.115
-0.12
-0.115
-0.115
-0.12
-0.115
-0.12
-0.11
-0.115
-0.1
-0.11
-0.09
-0.225
-0.3
-0.35
0.555
1.54
0.93
0.65
0.4
0.22
0.055
-0.01
-0.03
-0.06
-0.055
-0.07
-0.065
-0.075
-0.07
-0.08
-0.07
-0.075
-0.065
-0.07
-0.06
-0.065
-0.05
-0.04
-0.02
0.0
0.02
0.05
0.085
0.11
0.13
0.125
0.1
0.065
0.035
0.015
0.0
0.0
-0.005
-0.005
-0.005
0.0
0.0
0.0
0.0
0.0
0.0
0.0
0.0
0.0
0.0
0.0
0.0
0.0
0.0
0.0
0.0
0.0
-0.005
-0.005
-0.005
-0.005
-0.01
-0.01
-0.015
-0.01
-0.015
-0.015
-0.02
-0.015
-0.02
-0.02
-0.025
-0.025
-0.03
-0.025
-0.03
-0.03
-0.035
-0.035
-0.045
-0.04
-0.05
-0.045
-0.055
-0.05
-0.06
-0.055
-0.07
-0.06
-0.07
-0.065
-0.08
-0.07
-0.085
-0.065
-0.075
-0.065
-0.11
-0.1
-0.095
-0.095
-0.12
-0.09
-0.12
-0.1
-0.12
-0.1
-0.115
-0.095
-0.11
-0.09
-0.105
-0.085
-0.105
-0.27
-0.295
-0.205
0.925
1.31
0.92
0.615
0.37
0.195
0.035
-0.01
-0.05
-0.045
-0.07
-0.06
-0.075
-0.065
-0.08
-0.065
-0.08
-0.065
-0.075
-0.06
-0.065
-0.055
-0.05
-0.03
-0.02
0.005
0.025
0.055
0.08
0.12
0.125
0.125
0.09
0.065
0.03
0.015
0.005
0.0
0.0
0.0
0.0
0.0
0.0
0.005
0.0
0.005
0.0
0.0
0.0
0.0
0.0
0.005
0.0
0.0
0.0
0.0
0.0
0.005
0.0
0.0
-0.005
0.0
-0.01
-0.005
-0.015
-0.01
-0.02
-0.01
-0.015
-0.015
-0.02
-0.015
-0.015
-0.02
-0.025
-0.025
-0.025
-0.03
-0.035
-0.035
-0.04
-0.04
-0.045
-0.045
-0.045
-0.05
-0.045
-0.055
-0.05
-0.055
-0.055
-0.065
-0.06
-0.065
-0.05
-0.07
-0.055
-0.12
-0.08
-0.065
-0.09
-0.1
-0.09
-0.105
-0.085
-0.11
-0.08
-0.105
-0.075
-0.105
-0.075
-0.1
-0.06
-0.185
-0.29
-0.335
0.4
1.6
0.91
0.705
0.45
0.265
0.095
0.01
-0.005
-0.05
-0.045
-0.07
-0.04
-0.07
-0.055
-0.07
-0.055
-0.075
-0.055
-0.07
-0.06
-0.065
-0.04
-0.05
-0.02
-0.005
0.02
0.045
0.075
0.1
0.125
0.125
0.1
0.075
0.045
0.025
0.01
0.005
0.0
0.0
0.0
0.005
0.0
0.01
0.005
0.01
0.0
0.005
0.0
0.005
0.0
0.005
0.0
0.005
-0.005
0.0
-0.005
0.0
0.0
-0.005
-0.01
-0.01
-0.005
-0.01
-0.01
-0.01
-0.015
-0.015
-0.015
-0.015
-0.02
-0.015
-0.025
-0.025
-0.03
-0.03
-0.035
-0.035
-0.04
-0.04
-0.04
-0.045
-0.05
-0.05
-0.05
-0.05
-0.06
-0.065
-0.06
-0.07
-0.065
-0.06
-0.06
-0.07
-0.115
-0.09
-0.065
-0.105
-0.09
-0.11
-0.095
-0.11
-0.1
-0.105
-0.1
-0.11
-0.1
-0.095
-0.085
-0.095
-0.28
-0.255
-0.165
0.88
1.29
0.865
0.595
0.37
0.2
0.04
-0.01
-0.04
-0.055
-0.06
-0.07
-0.075
-0.075
-0.075
-0.075
-0.075
-0.075
-0.075
-0.075
-0.07
-0.065
-0.06
-0.05
-0.03
-0.01
0.01
0.03
0.065
0.085
0.105
0.095
0.07
0.045
0.025
0.005
0.0
-0.005
-0.005
-0.005
0.0
-0.01
0.0
-0.005
0.0
-0.005
-0.01
-0.01
-0.01
-0.015
-0.01
-0.02
-0.01
-0.02
-0.015
-0.02
-0.015
-0.025
-0.02
-0.03
-0.025
-0.035
-0.03
-0.035
-0.035
-0.035
-0.035
-0.04
-0.04
-0.045
-0.05
-0.05
-0.05
-0.055
-0.055
-0.055
-0.06
-0.06
-0.07
-0.065
-0.07
-0.065
-0.08
-0.07
-0.085
-0.075
-0.08
-0.04
-0.035
-0.015
-0.01
0.01
0.0
-0.01
-0.085
-0.075
-0.11
-0.095
-0.13
-0.1
-0.13
-0.1
-0.125
-0.095
-0.12
-0.085
-0.185
-0.325
-0.39
0.27
1.62
0.935
0.71
0.445
0.25
0.07
-0.02
-0.035
-0.08
-0.06
-0.09
-0.07
-0.095
-0.075
-0.09
-0.07
-0.085
-0.065
-0.08
-0.065
-0.075
-0.055
-0.055
-0.025
-0.015
0.015
0.035
0.07
0.1
0.13
0.13
0.11
0.07
0.045
0.015
0.0
-0.005
-0.01
-0.01
-0.015
-0.01
-0.01
-0.01
-0.015
-0.01
-0.015
-0.015
-0.02
-0.015
-0.02
-0.02
-0.025
-0.02
-0.03
-0.02
-0.03
-0.025
-0.035
-0.03
-0.035
-0.03
-0.04
-0.035
-0.045
-0.04
-0.05
-0.045
-0.055
-0.05
-0.06
-0.05
-0.065
-0.055
-0.07
-0.06
-0.075
-0.065
-0.08
-0.065
-0.065
-0.01
-0.025
-0.045
-0.03
-0.02
-0.04
-0.065
-0.11
-0.085
-0.115
-0.095
-0.12
-0.095
-0.12
-0.085
-0.115
-0.085
-0.105
-0.07
-0.21
-0.305
-0.355
0.495
1.595
0.95
0.675
0.435
0.23
0.07
-0.015
-0.025
-0.065
-0.05
-0.075
-0.06
-0.08
-0.06
-0.08
-0.065
-0.075
-0.06
-0.075
-0.06
-0.065
-0.045
-0.05
-0.025
-0.01
0.02
0.03
0.065
0.09
0.12
0.105
0.095
0.05
0.03
0.005
0.0
-0.015
-0.01
-0.01
-0.01
-0.015
-0.01
-0.015
-0.015
-0.025
-0.015
-0.02
-0.02
-0.025
-0.03
-0.03
-0.025
-0.025
-0.03
-0.035
-0.04
-0.04
-0.045
-0.04
-0.045
-0.05
-0.05
-0.045
-0.05
-0.055
-0.06
-0.055
-0.06
-0.06
-0.06
-0.06
-0.045
-0.015
-0.01
0.005
0.04
0.025
0.04
0.0
-0.08
-0.07
-0.095
-0.1
-0.105
-0.1
-0.11
-0.09
-0.105
-0.095
-0.095
-0.08
-0.085
-0.27
-0.28
-0.205
0.87
1.33
0.895
0.6
0.385
0.195
0.035
-0.02
-0.05
-0.055
-0.07
-0.07
-0.075
-0.08
-0.085
-0.075
-0.075
-0.075
-0.08
-0.07
-0.07
-0.065
-0.065
-0.05
-0.035
-0.02
0.01
0.02
0.05
0.075
0.1
0.085
0.065
0.045
0.03
0.0
0.0
-0.005
0.0
-0.005
0.0
-0.005
-0.005
-0.01
-0.005
-0.01
-0.01
-0.015
-0.01
-0.015
-0.015
-0.015
-0.015
-0.025
-0.03
-0.025
-0.025
-0.04
-0.035
-0.045
-0.045
-0.04
-0.05
-0.055
-0.055
-0.045
-0.06
-0.055
-0.06
-0.06
-0.07
-0.065
-0.08
-0.06
-0.045
-0.015
-0.025
0.02
0.02
0.03
0.005
-0.015
-0.09
-0.07
-0.115
-0.09
-0.12
-0.09
-0.13
-0.09
-0.125
-0.09
-0.12
-0.08
-0.14
-0.315
-0.3
-0.005
1.3
1.015
0.8
0.525
0.31
0.135
-0.005
-0.035
-0.075
-0.06
-0.09
-0.07
-0.095
-0.075
-0.095
-0.075
-0.09
-0.07
-0.085
-0.07
-0.075
-0.06
-0.065
-0.04
-0.03
-0.005
0.01
0.035
0.06
0.09
0.095
0.085
0.06
0.035
0.02
0.005
0.0
0.0
0.0
0.0
0.0
0.0
0.0
0.0
0.005
0.0
0.0
0.0
0.0
0.0
0.0
-0.005
0.0
-0.005
-0.005
-0.01
-0.01
-0.015
-0.015
-0.02
-0.02
-0.025
-0.025
-0.025
-0.03
-0.03
-0.035
-0.035
-0.04
-0.04
-0.045
-0.045
-0.05
-0.045
-0.055
-0.05
-0.06
-0.05
-0.065
-0.055
-0.07
-0.055
-0.055
-0.005
-0.025
-0.02
-0.025
0.0
-0.03
-0.05
-0.1
-0.075
-0.115
-0.085
-0.12
-0.085
-0.125
-0.08
-0.12
-0.08
-0.115
-0.075
-0.145
-0.31
-0.36
0.11
1.495
0.975
0.785
0.5
0.285
0.11
0.0
-0.02
-0.07
-0.05
-0.085
-0.055
-0.09
-0.065
-0.09
-0.06
-0.085
-0.06
-0.075
-0.055
-0.07
-0.045
-0.05
-0.02
-0.015
0.01
0.03
0.065
0.09
0.12
0.12
0.105
0.075
0.045
0.02
0.005
0.0
0.0
0.0
0.0
0.0
0.0
0.0
0.0
0.0
0.0
0.0
-0.005
0.0
-0.005
0.0
-0.005
0.0
-0.005
0.0
-0.005
-0.005
-0.01
-0.01
-0.015
-0.015
-0.025
-0.025
-0.025
-0.025
-0.025
-0.03
-0.035
-0.035
-0.035
-0.04
-0.035
-0.04
-0.04
-0.045
-0.045
-0.055
-0.05
-0.055
-0.05
-0.065
-0.055
-0.07
-0.06
-0.075
-0.06
-0.08
-0.065
-0.065
-0.005
-0.03
-0.045
-0.025
-0.015
-0.05
-0.06
-0.11
-0.08
-0.125
-0.09
-0.125
-0.085
-0.125
-0.08
-0.12
-0.08
-0.11
-0.07
-0.155
-0.31
-0.38
0.185
1.575
0.96
0.76
0.49
0.285
0.105
0.0
-0.015
-0.065
-0.04
-0.075
-0.055
-0.085
-0.055
-0.085
-0.055
-0.075
-0.05
-0.075
-0.05
-0.06
-0.04
-0.045
-0.01
-0.01
0.025
0.035
0.075
0.095
0.125
0.125
0.11
0.075
0.05
0.02
0.005
0.0
0.0
0.0
0.0
0.0
0.0
0.0
0.0
0.0
0.0
0.0
0.0
0.0
0.0
0.0
0.0
0.0
0.0
0.0
0.0
0.0
-0.005
-0.005
-0.005
-0.005
-0.01
-0.01
-0.01
-0.01
-0.015
-0.015
-0.02
-0.02
-0.02
-0.02
-0.02
-0.02
-0.025
-0.025
-0.03
-0.03
-0.035
-0.03
-0.035
-0.035
-0.045
-0.04
-0.045
-0.04
-0.055
-0.045
-0.055
-0.05
-0.06
-0.055
-0.065
-0.055
-0.07
-0.06
-0.075
-0.065
-0.06
-0.01
-0.02
-0.03
-0.03
-0.005
-0.03
-0.05
-0.095
-0.075
-0.11
-0.09
-0.11
-0.09
-0.11
-0.085
-0.11
-0.08
-0.1
-0.07
-0.185
-0.305
-0.375
0.425
1.595
0.94
0.685
0.44
0.24
0.075
-0.01
-0.03
-0.065
-0.05
-0.08
-0.065
-0.09
-0.065
-0.08
-0.06
-0.08
-0.06
-0.075
-0.055
-0.065
-0.045
-0.05
-0.02
-0.005
0.02
0.03
0.075
0.1
0.115
0.11
0.1
0.07
0.045
0.02
0.005
0.0
0.0
0.0
0.0
0.0
0.0
0.0
0.005
0.005
0.005
0.0
0.0
0.0
0.0
0.0
0.0
0.0
0.0
0.0
0.0
0.0
0.0
0.0
-0.005
-0.005
-0.005
-0.01
-0.005
-0.005
-0.01
-0.01
-0.015
-0.005
-0.01
-0.02
-0.02
-0.02
-0.015
-0.02
-0.025
-0.03
-0.035
-0.025
-0.035
-0.04
-0.045
-0.045
-0.045
-0.05
-0.05
-0.055
-0.06
-0.055
-0.06
-0.065
-0.06
-0.07
-0.075
-0.065
-0.065
-0.055
-0.065
-0.09
-0.1
-0.075
-0.08
-0.1
-0.09
-0.095
-0.105
-0.105
-0.1
-0.095
-0.1
-0.095
-0.095
-0.09
-0.08
-0.08
-0.245
-0.255
-0.235
0.7
1.41
0.885
0.63
0.395
0.22
0.055
-0.005
-0.025
-0.055
-0.055
-0.065
-0.07
-0.075
-0.075
-0.08
-0.075
-0.075
-0.07
-0.075
-0.065
-0.065
-0.05
-0.05
-0.025
-0.005
0.01
0.025
0.06
0.085
0.1
0.095
0.075
0.045
0.025
0.005
0.0
0.0
-0.005
-0.01
-0.005
0.0
0.0
-0.005
0.0
0.0
-0.005
0.0
-0.005
-0.005
-0.005
-0.01
-0.01
-0.015
-0.015
-0.015
-0.015
-0.025
-0.02
-0.025
-0.025
-0.025
-0.03
-0.035
-0.035
-0.035
-0.035
-0.04
-0.04
-0.045
-0.045
-0.05
-0.045
-0.05
-0.05
-0.055
-0.055
-0.06
-0.06
-0.07
-0.06
-0.07
-0.07
-0.08
-0.07
-0.085
-0.075
-0.09
-0.08
-0.09
-0.055
-0.035
-0.035
-0.07
-0.02
-0.05
-0.04
-0.09
-0.095
-0.115
-0.11
-0.13
-0.11
-0.13
-0.105
-0.125
-0.105
-0.12
-0.095
-0.115
-0.28
-0.3
-0.18
0.955
1.265
0.89
0.575
0.34
0.16
0.01
-0.03
-0.065
-0.06
-0.08
-0.07
-0.09
-0.075
-0.09
-0.075
-0.085
-0.07
-0.075
-0.065
-0.07
-0.05
-0.055
-0.035
-0.02
0.01
0.03
0.06
0.085
0.115
0.13
0.13
0.095
0.065
0.035
0.02
0.005
0.0
0.0
0.0
0.0
0.0
0.0
0.0
0.0
0.0
0.0
0.0
0.0
0.0
0.0
0.0
0.0
0.0
-0.005
0.0
-0.005
-0.01
-0.015
-0.015
-0.015
-0.015
-0.025
-0.02
-0.025
-0.025
-0.025
-0.025
-0.03
-0.03
-0.035
-0.035
-0.04
-0.04
-0.045
-0.045
-0.05
-0.05
-0.05
-0.05
-0.055
-0.06
-0.06
-0.07
-0.065
-0.075
-0.065
-0.08
-0.07
-0.085
-0.07
-0.08
-0.045
-0.035
-0.02
-0.06
0.0
-0.04
-0.04
-0.1
-0.08
-0.12
-0.095
-0.125
-0.095
-0.13
-0.09
-0.13
-0.09
-0.12
-0.08
-0.165
-0.33
-0.375
0.165
1.56
0.96
0.76
0.49
0.28
0.1
-0.01
-0.025
-0.075
-0.05
-0.09
-0.065
-0.095
-0.065
-0.09
-0.065
-0.085
-0.06
-0.08
-0.06
-0.07
-0.05
-0.055
-0.025
-0.015
0.015
0.03
0.07
0.095
0.125
0.13
0.115
0.08
0.05
0.025
0.01
0.0
0.0
-0.005
0.0
0.0
0.0
0.005
0.0
0.005
0.005
0.005
0.0
0.005
0.0
0.0
0.0
0.0
0.0
0.0
-0.005
0.0
-0.005
-0.005
-0.01
-0.01
-0.015
-0.015
-0.02
-0.015
-0.02
-0.02
-0.02
-0.025
-0.03
-0.03
-0.035
-0.035
-0.03
-0.035
-0.035
-0.04
-0.04
-0.045
-0.045
-0.055
-0.045
-0.06
-0.055
-0.065
-0.055
-0.065
-0.025
-0.02
0.0
-0.02
0.01
0.0
0.0
-0.065
-0.06
-0.1
-0.09
-0.115
-0.085
-0.12
-0.085
-0.115
-0.085
-0.11
-0.08
-0.12
-0.305
-0.3
-0.06
1.215
1.12
0.865
0.565
0.345
0.16
0.01
-0.015
-0.065
-0.05
-0.075
-0.06
-0.09
-0.06
-0.08
-0.065
-0.08
-0.06
-0.07
-0.06
-0.07
-0.055
-0.05
-0.03
-0.03
0.0
0.02
0.05
0.08
0.105
0.12
0.11
0.085
0.065
0.035
0.015
0.01
0.0
0.0
0.0
0.005
0.0
0.005
0.0
0.005
0.0
0.0
-0.01
0.0
-0.005
-0.01
-0.01
-0.015
-0.015
-0.01
-0.02
-0.025
-0.03
-0.025
-0.03
-0.035
-0.04
-0.045
-0.035
-0.035
-0.045
-0.045
-0.045
-0.05
-0.045
-0.05
-0.055
-0.055
-0.05
-0.06
-0.055
-0.065
-0.06
-0.04
-0.015
-0.01
0.01
0.03
0.03
0.035
-0.01
-0.075
-0.07
-0.105
-0.095
-0.1
-0.1
-0.115
-0.09
-0.11
-0.085
-0.105
-0.085
-0.225
-0.29
-0.265
0.535
1.54
0.86
0.635
0.405
0.235
0.055
-0.015
-0.035
-0.07
-0.065
-0.08
-0.07
-0.09
-0.075
-0.09
-0.07
-0.08
-0.07
-0.08
-0.075
-0.075
-0.06
-0.055
-0.04
-0.02
-0.005
0.02
0.04
0.06
0.085
0.085
0.065
0.04
0.02
0.0
-0.005
-0.005
-0.01
-0.02
-0.015
-0.015
-0.02
-0.015
-0.015
-0.02
-0.03
-0.025
-0.03
-0.03
-0.04
-0.035
-0.045
-0.045
-0.045
-0.05
-0.055
-0.05
-0.065
-0.06
-0.07
-0.06
-0.075
-0.07
-0.08
-0.075
-0.085
-0.075
-0.085
-0.08
-0.09
-0.08
-0.085
-0.035
-0.035
-0.02
0.005
0.015
0.02
-0.01
-0.085
-0.09
-0.11
-0.115
-0.13
-0.125
-0.135
-0.125
-0.13
-0.125
-0.125
-0.11
-0.115
-0.27
-0.295
-0.255
0.75
1.4
0.865
0.595
0.35
0.175
0.01
-0.035
-0.065
-0.075
-0.09
-0.09
-0.095
-0.095
-0.1
-0.09
-0.095
-0.085
-0.085
-0.075
-0.07
-0.065
-0.06
-0.045
-0.03
-0.005
0.01
0.035
0.06
0.095
0.105
0.1
0.075
0.045
0.015
0.0
-0.01
-0.01
-0.015
-0.01
-0.015
-0.005
-0.01
-0.01
-0.015
-0.01
-0.01
-0.005
-0.015
-0.015
-0.02
-0.015
-0.02
-0.02
-0.025
-0.025
-0.03
-0.03
-0.04
-0.035
-0.045
-0.04
-0.05
-0.045
-0.055
-0.05
-0.055
-0.05
-0.065
-0.055
-0.065
-0.06
-0.075
-0.065
-0.08
-0.07
-0.075
-0.03
-0.03
-0.01
0.015
0.035
0.025
0.01
-0.065
-0.07
-0.095
-0.095
-0.12
-0.105
-0.12
-0.105
-0.115
-0.105
-0.115
-0.095
-0.11
-0.265
-0.31
-0.25
0.855
1.365
0.91
0.6
0.35
0.17
0.01
-0.035
-0.07
-0.065
-0.085
-0.075
-0.085
-0.08
-0.085
-0.075
-0.08
-0.07
-0.075
-0.06
-0.065
-0.05
-0.055
-0.035
-0.02
0.0
0.02
0.055
0.075
0.105
0.115
0.115
0.08
0.055
0.02
0.01
0.0
-0.005
-0.01
-0.005
-0.01
-0.005
-0.01
-0.005
-0.015
-0.01
-0.02
-0.015
-0.02
-0.015
-0.025
-0.02
-0.025
-0.02
-0.025
-0.025
-0.03
-0.03
-0.035
-0.04
-0.045
-0.04
-0.04
-0.045
-0.045
-0.05
-0.045
-0.055
-0.05
-0.06
-0.05
-0.065
-0.06
-0.075
-0.06
-0.08
-0.06
-0.05
-0.02
-0.025
0.015
0.02
0.025
0.01
-0.01
-0.095
-0.07
-0.115
-0.09
-0.125
-0.09
-0.13
-0.09
-0.125
-0.09
-0.12
-0.08
-0.16
-0.33
-0.38
0.14
1.555
0.97
0.77
0.5
0.285
0.1
-0.015
-0.03
-0.08
-0.055
-0.09
-0.065
-0.09
-0.065
-0.095
-0.065
-0.085
-0.06
-0.075
-0.055
-0.065
-0.045
-0.045
-0.02
-0.01
0.02
0.035
0.065
0.095
0.115
0.125
0.105
0.075
0.055
0.035
0.02
0.005
0.0
0.0
0.005
0.005
0.0
0.005
0.0
0.0
0.005
0.005
0.0
0.0
0.0
0.005
-0.005
0.0
0.0
0.0
-0.01
-0.005
-0.005
-0.005
-0.02
-0.015
-0.02
-0.015
-0.02
-0.025
-0.03
-0.025
-0.03
-0.025
-0.04
-0.035
-0.04
-0.03
-0.04
-0.04
-0.04
-0.045
-0.055
-0.05
-0.06
-0.04
-0.03
-0.005
-0.025
-0.03
0.01
-0.005
-0.05
-0.08
-0.08
-0.09
-0.095
-0.09
-0.1
-0.095
-0.1
-0.095
-0.09
-0.085
-0.09
-0.075
-0.24
-0.275
-0.23
0.76
1.4
0.91
0.62
0.39
0.21
0.05
-0.01
-0.04
-0.055
-0.05
-0.075
-0.065
-0.075
-0.07
-0.075
-0.07
-0.07
-0.07
-0.07
-0.065
-0.065
-0.05
-0.045
-0.02
-0.02
0.005
0.045
0.06
0.075
0.11
0.095
0.08
0.045
0.035
0.01
0.01
0.0
0.0
0.0
0.0
-0.005
0.0
0.0
0.0
0.0
-0.005
-0.005
-0.005
-0.015
-0.015
-0.015
-0.015
-0.025
-0.025
-0.03
-0.02
-0.035
-0.025
-0.035
-0.035
-0.045
-0.04
-0.045
-0.04
-0.05
-0.045
-0.06
-0.035
-0.06
-0.05
-0.06
-0.03
-0.005
0.0
0.0
0.055
0.03
0.07
0.0
-0.055
-0.08
-0.065
-0.095
-0.085
-0.11
-0.09
-0.11
-0.08
-0.105
-0.075
-0.095
-0.06
-0.22
-0.285
-0.265
0.525
1.52
0.85
0.63
0.415
0.225
0.065
-0.015
-0.035
-0.08
-0.06
-0.09
-0.075
-0.095
-0.075
-0.095
-0.08
-0.1
-0.08
-0.095
-0.07
-0.08
-0.075
-0.075
-0.045
-0.03
-0.005
-0.005
0.025
0.035
0.075
0.055
0.045
0.02
0.01
-0.005
-0.02
-0.025
-0.02
-0.03
-0.02
-0.03
-0.02
-0.025
-0.03
-0.03
-0.03
-0.035
-0.04
-0.045
-0.045
-0.05
-0.05
-0.045
-0.05
-0.06
-0.065
-0.065
-0.07
-0.07
-0.08
-0.075
-0.085
-0.075
-0.09
-0.085
-0.095
-0.085
-0.075
-0.025
-0.03
0.0
0.015
0.015
0.015
-0.005
-0.105
-0.09
-0.125
-0.105
-0.135
-0.11
-0.145
-0.11
-0.14
-0.11
-0.13
-0.1
-0.145
-0.31
-0.31
-0.05
1.23
1.055
0.81
0.525
0.295
0.12
-0.015
-0.04
-0.08
-0.07
-0.1
-0.08
-0.1
-0.08
-0.105
-0.08
-0.095
-0.075
-0.085
-0.07
-0.08
-0.06
-0.065
-0.04
-0.03
0.0
0.01
0.045
0.065
0.09
0.09
0.08
0.05
0.03
0.005
-0.005
-0.015
-0.015
-0.015
-0.015
-0.015
-0.02
-0.015
-0.015
-0.015
-0.02
-0.015
-0.02
-0.02
-0.02
-0.02
-0.025
-0.02
-0.03
-0.03
-0.035
-0.035
-0.04
-0.045
-0.045
-0.05
-0.05
-0.055
-0.05
-0.055
-0.055
-0.06
-0.06
-0.065
-0.06
-0.07
-0.065
-0.075
-0.07
-0.075
-0.07
-0.075
-0.03
-0.03
-0.015
0.01
0.03
0.02
0.005
-0.07
-0.07
-0.105
-0.1
-0.125
-0.105
-0.125
-0.105
-0.125
-0.1
-0.12
-0.095
-0.125
-0.29
-0.315
-0.17
1.04
1.21
0.885
0.57
0.325
0.14
0.0
-0.035
-0.07
-0.065
-0.09
-0.075
-0.095
-0.08
-0.09
-0.08
-0.09
-0.075
-0.085
-0.07
-0.075
-0.06
-0.055
-0.035
-0.025
0.0
0.02
0.05
0.08
0.11
0.12
0.11
0.085
0.055
0.03
0.01
0.0
0.0
0.0
0.0
0.0
0.0
0.005
0.0
0.0
0.0
0.0
0.0
0.0
-0.005
0.0
0.0
0.0
0.0
0.0
0.0
0.0
-0.01
-0.005
-0.01
-0.01
-0.01
-0.015
-0.02
-0.015
-0.025
-0.025
-0.025
-0.025
-0.02
-0.035
-0.03
-0.035
-0.035
-0.04
-0.03
-0.055
-0.035
-0.06
-0.04
-0.06
-0.045
-0.055
0.0
-0.015
-0.02
-0.03
0.02
-0.025
-0.045
-0.1
-0.065
-0.12
-0.08
-0.11
-0.08
-0.13
-0.07
-0.105
-0.075
-0.115
-0.065
-0.14
-0.32
-0.315
0.11
1.465
0.95
0.77
0.5
0.295
0.125
0.0
-0.015
-0.065
-0.05
-0.09
-0.065
-0.105
-0.06
-0.1
-0.075
-0.09
-0.065
-0.09
-0.065
-0.085
-0.055
-0.065
-0.04
-0.03
0.0
0.005
0.045
0.055
0.09
0.09
0.085
0.065
0.04
0.02
0.015
0.0
0.0
0.005
0.0
0.01
0.005
0.0
0.0
0.0
0.0
0.0
-0.005
-0.005
-0.01
-0.01
-0.01
0.0
-0.01
-0.02
-0.025
-0.02
-0.02
-0.025
-0.03
-0.025
-0.035
-0.035
-0.03
-0.04
-0.04
-0.035
-0.05
-0.05
-0.05
-0.045
-0.05
-0.05
-0.065
-0.055
-0.06
-0.055
-0.065
-0.045
-0.03
-0.005
-0.015
0.025
0.005
0.045
-0.015
-0.06
-0.09
-0.075
-0.115
-0.095
-0.12
-0.1
-0.13
-0.11
-0.115
-0.095
-0.12
-0.09
-0.235
-0.305
-0.28
0.48
1.505
0.825
0.61
0.38
0.195
0.035
-0.04
-0.055
-0.09
-0.075
-0.1
-0.09
-0.11
-0.09
-0.105
-0.085
-0.1
-0.08
-0.095
-0.075
-0.09
-0.07
-0.07
-0.045
-0.03
-0.005
0.005
0.035
0.055
0.08
0.07
0.06
0.04
0.025
0.005
0.0
-0.01
0.0
-0.005
0.0
0.0
0.0
0.0
0.0
0.0
-0.005
-0.005
-0.005
-0.005
-0.005
-0.005
-0.01
-0.01
-0.01
-0.015
-0.015
-0.015
-0.02
-0.025
-0.03
-0.03
-0.03
-0.035
-0.04
-0.04
-0.04
-0.045
-0.045
-0.05
-0.05
-0.055
-0.05
-0.06
-0.055
-0.06
-0.055
-0.07
-0.06
-0.075
-0.065
-0.07
-0.065
-0.085
-0.065
-0.085
-0.07
-0.075
-0.02
-0.035
-0.04
-0.045
0.0
-0.04
-0.065
-0.115
-0.085
-0.125
-0.1
-0.135
-0.095
-0.135
-0.09
-0.135
-0.09
-0.125
-0.08
-0.16
-0.32
-0.365
0.16
1.525
0.96
0.735
0.47
0.255
0.085
-0.02
-0.025
-0.08
-0.055
-0.09
-0.065
-0.1
-0.07
-0.095
-0.065
-0.085
-0.06
-0.08
-0.055
-0.07
-0.045
-0.05
-0.02
-0.01
0.02
0.035
0.075
0.095
0.13
0.125
0.11
0.075
0.045
0.015
0.005
0.0
0.0
-0.005
0.0
0.0
0.0
-0.005
-0.005
0.0
-0.005
-0.005
0.0
0.0
0.0
0.0
0.0
0.0
0.0
0.0
0.0
0.0
0.0
0.0
-0.005
-0.005
-0.005
-0.005
-0.01
-0.01
-0.01
-0.01
-0.015
-0.015
-0.015
-0.02
-0.02
-0.02
-0.02
-0.025
-0.025
-0.03
-0.03
-0.03
-0.035
-0.035
-0.04
-0.035
-0.045
-0.045
-0.05
-0.045
-0.055
-0.05
-0.06
-0.055
-0.07
-0.06
-0.075
-0.06
-0.08
-0.065
-0.09
-0.07
-0.085
-0.05
-0.04
-0.025
-0.08
0.0
-0.055
-0.055
-0.105
-0.085
-0.125
-0.095
-0.135
-0.1
-0.135
-0.095
-0.135
-0.09
-0.125
-0.08
-0.165
-0.33
-0.39
0.19
1.575
0.96
0.735
0.47
0.26
0.09
-0.015
-0.025
-0.08
-0.055
-0.09
-0.065
-0.095
-0.065
-0.095
-0.065
-0.085
-0.06
-0.08
-0.05
-0.065
-0.035
-0.045
-0.015
-0.005
0.025
0.035
0.08
0.1
0.135
0.135
0.125
0.09
0.06
0.03
0.02
0.0
0.005
0.005
0.005
0.005
0.005
0.0
0.005
0.005
0.01
0.01
0.0
0.0
0.0
0.0
0.0
0.0
0.01
0.0
0.005
0.005
0.0
0.0
0.0
0.0
0.0
-0.005
0.0
-0.005
0.0
-0.015
-0.015
-0.01
-0.01
-0.02
-0.015
-0.015
-0.02
-0.025
-0.03
-0.03
-0.025
-0.035
-0.035
-0.035
-0.035
-0.04
-0.045
-0.05
-0.045
-0.05
-0.05
-0.05
-0.055
-0.06
-0.065
-0.06
-0.06
-0.055
-0.06
-0.07
-0.095
-0.08
-0.07
-0.1
-0.085
-0.1
-0.095
-0.09
-0.1
-0.095
-0.085
-0.085
-0.095
-0.08
-0.08
-0.075
-0.23
-0.275
-0.255
0.66
1.46
0.89
0.64
0.41
0.24
0.065
0.0
-0.03
-0.05
-0.05
-0.07
-0.06
-0.065
-0.065
-0.07
-0.065
-0.07
-0.055
-0.065
-0.06
-0.06
-0.045
-0.045
-0.025
-0.005
0.015
0.04
0.065
0.08
0.105
0.11
0.085
0.055
0.03
0.02
0.0
-0.005
0.0
-0.005
0.0
0.005
0.0
0.005
0.0
0.005
0.0
0.0
0.0
0.0
0.0
-0.005
0.0
0.0
0.0
-0.005
-0.005
0.0
-0.01
-0.015
-0.005
-0.015
-0.02
-0.01
-0.02
-0.02
-0.015
-0.03
-0.025
-0.02
-0.035
-0.035
-0.035
-0.035
-0.04
-0.035
-0.045
-0.045
-0.045
-0.055
-0.055
-0.06
-0.055
-0.06
-0.07
-0.065
-0.07
-0.07
-0.08
-0.07
