signal
0.05
-0.365
-0.105
-0.115
-0.135
-0.105
-0.045
0.14
0.0
-0.19
-0.22
-0.245
-0.215
0.0
-0.165
-0.025
-0.15
-0.065
-0.26
-0.435
-0.22
-0.34
-0.135
-0.445
-0.365
-0.1
0.025
-0.21
-0.025
-0.055
0.205
0.94
-0.265
-1.04
-1.21
-0.98
-0.01
0.16
0.015
-0.055
-0.085
0.06
0.19
-0.13
-0.06
0.275
0.04
0.26
-0.01
0.2
0.33
0.2
0.19
0.1
0.395
0.195
0.42
0.2
0.215
0.405
0.38
0.43
0.47
0.365
0.51
0.4
0.2
0.26
0.12
0.01
0.025
-0.02
0.09
0.015
-0.08
0.1
0.1
0.015
0.015
-0.02
0.01
-0.035
-0.1
0.1
-0.175
0.065
0.035
-0.14
-0.055
-0.12
-0.145
-0.185
-0.005
0.09
-0.04
-0.12
-0.07
-0.055
0.045
-0.025
0.03
0.055
-0.13
0.2
0.01
0.115
0.055
-0.065
0.105
0.055
0.035
0.055
0.045
0.025
0.295
0.745
0.485
-0.875
-1.045
-0.93
-0.35
0.025
-0.065
0.045
-0.055
0.005
-0.02
-0.07
-0.075
-0.105
-0.075
-0.095
-0.175
-0.04
-0.11
-0.07
0.01
-0.025
0.045
0.11
0.165
0.18
0.19
0.175
0.205
0.215
0.23
0.225
0.2
0.16
0.09
0.015
-0.015
-0.055
-0.07
-0.125
-0.145
-0.14
-0.11
-0.11
-0.105
-0.14
-0.23
-0.17
-0.115
-0.06
-0.045
-0.025
-0.095
-0.115
-0.055
-0.04
-0.015
-0.005
-0.005
-0.025
-0.03
-0.015
-0.025
0.0
0.005
0.04
0.035
0.04
-0.025
0.01
0.0
0.015
-0.03
-0.015
-0.05
-0.015
-0.045
-0.045
-0.03
0.02
0.3
0.635
0.29
-1.135
-1.205
-0.965
-0.445
0.03
0.01
0.015
0.03
0.04
0.015
0.05
0.055
0.07
0.065
0.075
0.1
0.12
0.095
0.14
0.095
0.165
0.185
0.15
0.155
0.21
0.26
0.28
0.175
0.33
0.34
0.28
0.305
0.235
0.185
0.1
0.07
-0.02
0.05
-0.015
-0.085
-0.005
0.02
0.0
0.035
0.075
-0.01
0.09
-0.015
0.01
-0.02
0.015
0.025
0.01
0.005
0.03
0.03
0.075
0.035
0.13
0.025
0.065
0.02
0.045
0.06
-0.02
0.0
-0.01
0.015
0.0
0.01
0.0
0.08
0.085
0.105
0.105
0.13
0.13
0.1
0.14
0.52
0.84
0.26
-1.2
-1.155
-0.68
-0.19
0.055
0.015
0.025
0.04
0.04
0.05
0.075
0.07
0.065
0.02
0.03
0.015
0.04
0.035
0.055
0.035
0.045
0.025
0.025
0.02
0.025
0.035
0.07
0.1
0.15
0.15
0.15
0.09
-0.005
-0.14
-0.21
-0.29
-0.3
-0.315
-0.285
-0.255
-0.23
-0.205
-0.18
-0.145
-0.125
-0.15
-0.03
-0.01
0.03
0.045
0.07
0.065
0.07
0.09
0.07
0.08
0.08
0.075
0.055
0.035
0.04
-0.005
-0.015
-0.04
-0.03
-0.005
0.01
0.035
0.04
0.045
0.05
0.035
0.04
0.035
0.01
0.045
0.385
0.705
-0.38
-1.445
-1.275
-0.7
-0.15
0.035
0.055
0.065
0.07
0.09
0.055
0.085
0.135
0.135
0.125
0.125
0.125
0.095
0.075
0.175
0.13
0.11
0.16
0.165
0.165
0.18
0.145
0.125
0.175
0.22
0.235
0.225
0.215
0.12
0.065
0.03
-0.045
-0.09
-0.09
-0.105
-0.13
-0.105
-0.115
-0.105
-0.075
-0.09
-0.085
-0.12
-0.05
-0.06
-0.075
-0.055
-0.055
-0.055
-0.065
-0.05
-0.06
-0.07
-0.09
-0.055
-0.115
-0.14
-0.19
-0.16
-0.125
-0.1
-0.08
-0.05
-0.045
-0.045
-0.035
-0.01
-0.035
-0.045
0.02
0.44
0.83
-0.315
-1.39
-1.285
-0.735
-0.14
0.035
0.025
0.05
0.045
0.035
0.045
0.005
0.05
0.035
0.005
0.015
0.02
0.005
0.025
-0.025
0.0
0.015
0.075
0.095
0.145
0.195
0.2
0.265
0.265
0.315
0.32
0.285
0.295
0.24
0.13
0.035
0.015
0.015
0.015
0.0
0.0
0.02
0.015
0.035
0.03
0.03
0.04
0.03
0.04
0.06
0.04
0.03
0.045
0.02
0.025
0.01
0.005
-0.11
-0.025
-0.105
-0.07
-0.095
-0.035
-0.05
0.03
0.03
0.04
0.045
0.075
0.07
0.13
0.075
0.12
0.28
0.545
0.665
-0.89
-1.28
-0.905
-0.355
0.06
0.045
0.03
0.02
0.085
0.065
0.065
0.085
0.1
0.1
0.03
-0.005
0.02
0.07
0.045
0.02
0.075
0.045
0.055
0.155
0.175
0.12
0.205
0.185
0.215
0.29
0.255
0.245
0.2
0.11
0.05
-0.01
-0.025
-0.07
-0.06
-0.05
-0.055
-0.105
-0.11
-0.075
-0.1
-0.08
-0.085
-0.075
-0.07
-0.065
0.035
-0.025
-0.015
-0.015
-0.01
-0.065
-0.055
-0.12
-0.435
-0.22
-0.245
-0.005
-0.04
-0.095
0.08
0.095
-0.005
0.005
0.0
0.01
0.04
0.02
0.14
0.41
0.505
-0.86
-1.19
-0.72
-0.25
-0.02
-0.04
0.035
0.03
0.02
0.03
0.06
0.045
0.1
0.04
0.045
0.04
0.015
0.015
0.04
0.005
-0.01
0.02
0.075
0.12
0.2
0.21
0.27
0.3
0.32
0.345
0.335
0.305
0.235
0.175
0.1
0.06
0.05
0.04
0.03
0.05
0.025
0.065
0.02
0.05
0.02
0.035
0.035
0.02
0.025
0.03
0.01
0.02
0.005
0.0
-0.02
-0.02
-0.03
-0.05
-0.09
-0.095
-0.1
-0.04
-0.045
0.01
0.0
0.04
0.05
0.07
0.07
0.1
0.08
0.115
0.39
0.67
0.31
-1.055
-0.99
-0.69
-0.21
0.14
0.075
0.1
0.085
0.11
0.085
0.08
0.075
0.085
0.055
0.095
0.11
0.105
0.06
0.05
0.065
0.035
0.02
0.075
0.085
0.12
0.135
0.17
0.15
0.185
0.19
0.185
0.155
0.11
0.01
0.0
-0.035
-0.1
-0.14
-0.155
-0.185
-0.165
-0.15
-0.23
-0.165
-0.125
-0.145
-0.115
-0.055
-0.02
-0.02
0.02
0.03
0.06
0.06
0.045
0.02
0.015
-0.035
-0.05
-0.105
-0.08
-0.095
-0.075
-0.08
-0.065
-0.075
-0.08
-0.045
-0.04
-0.05
-0.025
0.055
0.42
0.735
-0.54
-1.36
-1.15
-0.605
-0.095
-0.01
0.015
0.03
0.04
0.035
0.035
0.035
0.055
0.055
0.07
0.075
0.07
0.075
0.115
0.11
0.12
0.105
0.135
0.14
0.175
0.2
0.23
0.235
0.27
0.3
0.28
0.255
0.215
0.145
0.095
0.035
0.02
0.015
0.01
0.0
0.0
-0.025
-0.035
-0.05
-0.045
-0.055
-0.055
-0.05
-0.035
-0.03
-0.04
-0.025
0.0
-0.015
-0.03
-0.04
-0.03
-0.05
-0.095
-0.1
-0.04
-0.035
-0.03
-0.01
0.0
0.005
0.015
0.03
0.005
0.02
0.015
0.07
0.445
0.78
-0.225
-1.32
-1.245
-0.73
-0.185
0.035
0.01
0.02
0.02
0.025
0.005
0.02
0.04
0.075
0.095
0.09
0.09
0.12
0.085
0.1
0.145
0.1
0.165
0.175
0.175
0.195
0.22
0.24
0.245
0.265
0.26
0.24
0.195
0.135
0.055
0.01
-0.03
-0.095
-0.07
-0.075
-0.045
-0.085
-0.09
-0.125
-0.18
-0.155
-0.055
-0.03
0.035
0.0
0.03
0.035
0.02
0.005
0.02
0.01
0.045
0.0
-0.015
-0.025
0.005
-0.01
0.0
0.0
0.04
0.01
0.04
0.02
0.04
0.01
0.025
0.21
0.54
0.675
-0.745
-1.255
-1.06
-0.455
0.05
0.045
0.085
0.105
0.105
0.09
0.105
0.095
0.1
0.065
0.09
0.07
0.075
0.02
-0.025
-0.055
-0.04
-0.05
-0.025
-0.02
0.0
-0.015
0.01
0.055
0.095
0.13
0.125
0.105
0.05
0.0
-0.02
-0.02
-0.035
-0.02
-0.025
0.0
-0.005
-0.01
0.0
-0.005
0.0
0.0
0.0
-0.005
0.0
0.0
-0.03
-0.035
-0.01
-0.01
-0.035
-0.005
-0.035
-0.01
-0.04
-0.075
-0.045
-0.065
-0.06
-0.075
-0.07
-0.04
-0.035
-0.035
-0.04
-0.025
-0.035
-0.005
0.325
0.725
-0.01
-1.225
-1.21
-0.745
-0.205
0.02
0.01
0.015
0.03
0.025
0.045
0.06
0.05
0.06
0.06
0.07
0.075
0.08
0.08
0.09
0.1
0.12
0.13
0.145
0.17
0.19
0.225
0.24
0.27
0.275
0.28
0.24
0.195
0.105
0.055
0.005
0.0
-0.015
-0.005
-0.01
0.0
-0.01
-0.005
-0.01
0.0
-0.01
0.0
-0.01
-0.005
0.0
-0.005
0.0
0.0
-0.01
-0.02
-0.015
-0.01
0.0
0.0
0.015
-0.065
-0.025
-0.025
-0.02
-0.05
-0.04
-0.03
-0.015
-0.02
-0.02
-0.015
-0.02
0.035
0.39
0.74
-0.275
-1.25
-1.17
-0.685
-0.16
0.005
0.01
0.015
0.03
0.03
0.04
0.03
0.045
0.05
0.045
0.055
0.06
0.06
0.075
0.09
0.08
0.1
0.105
0.12
0.14
0.17
0.185
0.195
0.21
0.215
0.215
0.2
0.135
0.08
0.035
0.01
0.005
0.005
0.0
0.0
-0.005
0.0
0.0
0.0
0.0
0.005
0.02
0.005
0.01
0.02
-0.005
0.005
0.03
0.01
0.01
0.01
0.0
0.025
0.025
0.06
0.03
-0.04
-0.01
0.01
0.0
-0.015
-0.035
-0.01
-0.025
-0.005
-0.02
-0.005
-0.015
0.02
0.355
0.665
-0.09
-1.335
-1.185
-0.745
-0.255
0.04
0.0
0.035
0.045
0.055
0.05
0.055
0.02
0.02
0.025
0.07
0.06
0.08
0.105
0.11
0.11
0.11
0.12
0.13
0.13
0.16
0.16
0.185
0.185
0.2
0.2
0.175
0.085
0.035
0.0
-0.015
-0.025
-0.02
-0.02
-0.02
-0.02
-0.02
-0.015
-0.015
-0.015
-0.01
-0.005
-0.005
-0.005
0.0
0.0
0.0
0.0
0.0
0.0
0.0
-0.01
-0.005
-0.01
0.0
-0.015
0.01
-0.005
0.03
0.0
-0.005
-0.035
-0.005
-0.01
-0.005
-0.05
-0.01
-0.025
-0.01
-0.03
-0.005
-0.02
-0.005
0.175
0.47
0.555
-0.875
-1.27
-0.94
-0.41
0.015
-0.01
0.015
0.01
0.03
0.025
0.04
0.03
0.045
0.035
0.055
0.05
0.065
0.065
0.08
0.075
0.09
0.1
0.125
0.135
0.16
0.17
0.2
0.215
0.245
0.25
0.245
0.195
0.135
0.04
0.035
0.015
0.0
0.0
0.0
-0.01
-0.005
-0.02
-0.015
-0.01
-0.01
-0.005
-0.005
-0.005
0.0
-0.015
-0.005
-0.015
0.0
-0.015
-0.01
0.0
-0.005
-0.01
0.0
0.0
0.0
0.005
0.005
0.0
0.0
0.0
0.005
0.0
0.0
0.0
0.0
0.0
0.005
-0.01
0.015
0.02
0.04
0.015
-0.005
-0.015
-0.01
-0.005
-0.01
-0.03
-0.005
0.0
0.0
-0.01
0.0
-0.015
0.03
0.36
0.695
-0.115
-1.255
-1.155
-0.71
-0.19
0.04
0.005
0.03
0.04
0.035
0.035
0.035
0.04
0.05
0.05
0.05
0.04
0.055
0.055
0.06
0.075
0.075
0.07
0.08
0.1
0.12
0.13
0.15
0.17
0.18
0.19
0.19
0.14
0.075
0.05
0.015
-0.01
0.0
-0.01
0.0
0.0
-0.005
-0.005
-0.005
0.0
-0.005
0.0
0.005
0.005
0.0
0.01
0.01
0.01
0.01
0.01
0.01
0.005
0.005
0.0
0.01
0.01
0.005
0.0
0.01
0.005
0.01
0.005
0.005
0.005
0.01
0.0
0.005
0.0
0.0
0.0
0.0
-0.01
0.0
0.005
0.03
0.025
0.01
-0.03
0.01
0.01
0.0
-0.03
-0.005
-0.01
-0.005
-0.005
0.0
-0.005
0.015
0.335
0.68
-0.045
-1.28
-1.155
-0.71
-0.215
0.025
-0.005
0.015
0.015
0.03
0.03
0.03
0.035
0.045
0.04
0.05
0.045
0.06
0.055
0.065
0.07
0.09
0.095
0.115
0.13
0.155
0.17
0.19
0.205
0.225
0.22
0.21
0.16
0.105
0.045
0.01
-0.005
-0.015
-0.015
-0.015
-0.015
-0.015
-0.025
-0.015
-0.015
-0.01
-0.015
-0.01
-0.01
-0.01
-0.01
-0.01
-0.015
-0.01
-0.015
-0.01
-0.01
-0.005
-0.01
-0.01
-0.005
-0.01
-0.01
-0.01
-0.01
-0.01
-0.01
-0.005
-0.01
0.0
0.0
0.0
0.0
0.005
0.0
0.005
0.0
0.005
0.01
0.015
0.005
0.015
0.015
0.02
0.01
0.025
0.01
0.025
0.015
0.015
0.0
0.015
0.005
0.015
0.0
0.01
0.0
0.005
0.0
0.01
-0.005
0.0
0.015
0.02
0.025
0.04
-0.05
0.015
-0.005
0.0
-0.04
-0.01
-0.02
-0.01
-0.02
-0.005
-0.02
0.005
0.29
0.655
0.17
-1.175
-1.16
-0.77
-0.255
0.01
-0.005
0.02
0.015
0.04
0.035
0.055
0.045
0.055
0.04
0.065
0.045
0.065
0.065
0.07
0.065
0.09
0.085
0.105
0.125
0.135
0.145
0.16
0.165
0.185
0.19
0.195
0.17
0.115
0.065
0.025
0.0
0.0
-0.005
0.0
0.0
-0.005
-0.005
0.0
0.0
0.0
-0.01
0.0
-0.005
0.0
-0.005
-0.005
-0.015
-0.005
0.0
-0.01
-0.015
-0.01
-0.02
-0.01
-0.01
-0.015
-0.005
-0.015
-0.01
-0.005
-0.01
-0.005
0.0
0.0
-0.005
0.0
-0.005
0.0
0.0
0.005
0.0
0.005
0.0
0.005
0.005
0.005
0.005
0.005
0.005
0.01
0.005
0.005
0.005
0.01
0.0
0.01
0.005
0.015
0.015
0.03
0.025
0.04
0.0
-0.02
0.0
0.015
0.0
-0.01
-0.01
0.01
0.0
0.01
0.0
0.005
0.09
0.435
0.71
-0.52
-1.32
-1.09
-0.595
-0.08
0.005
0.015
0.025
0.045
0.035
0.045
0.04
0.05
0.045
0.06
0.05
0.065
0.06
0.07
0.075
0.09
0.085
0.1
0.11
0.13
0.145
0.165
0.18
0.195
0.195
0.205
0.185
0.155
0.095
0.045
0.005
-0.005
-0.02
-0.025
-0.02
-0.03
-0.03
-0.03
-0.025
-0.025
-0.025
-0.02
-0.015
-0.015
-0.015
-0.005
-0.01
-0.005
-0.01
-0.005
-0.005
-0.005
-0.005
-0.005
-0.005
-0.01
-0.005
-0.005
0.0
0.0
0.0
0.0
0.0
0.005
0.005
0.005
0.005
0.005
0.005
0.0
0.0
0.005
0.005
0.005
0.0
0.0
0.0
0.005
0.0
0.0
0.0
0.0
0.0
0.0
0.0
0.005
0.0
0.0
0.0
0.005
-0.005
0.0
-0.005
0.005
-0.005
0.0
0.0
0.01
0.0
0.015
-0.065
-0.01
-0.03
-0.01
-0.04
-0.03
-0.04
-0.01
-0.03
-0.015
-0.035
-0.01
0.19
0.515
0.51
-0.94
-1.26
-0.93
-0.395
0.0
-0.03
0.01
0.005
0.035
0.02
0.04
0.025
0.045
0.03
0.045
0.035
0.05
0.04
0.05
0.05
0.07
0.07
0.09
0.1
0.13
0.14
0.17
0.175
0.195
0.2
0.205
0.185
0.145
0.08
0.04
0.0
-0.015
-0.03
-0.03
-0.03
-0.03
-0.03
-0.025
-0.025
-0.02
-0.02
-0.015
-0.01
-0.01
-0.01
-0.015
-0.01
-0.005
-0.015
-0.01
-0.01
-0.005
-0.01
-0.01
-0.005
-0.01
-0.01
-0.005
-0.005
0.0
0.0
0.0
0.0
-0.005
0.0
0.0
-0.005
-0.005
0.0
0.0
0.0
0.0
0.0
-0.005
0.0
0.0
0.0
0.0
0.0
0.005
0.005
0.0
0.005
0.005
0.005
0.0
0.01
0.01
0.01
0.005
0.01
0.005
0.01
0.0
0.01
0.01
0.025
0.02
0.04
-0.045
0.0
-0.01
0.005
-0.03
-0.015
-0.015
0.0
-0.01
0.0
-0.015
0.005
0.3
0.615
0.175
-1.215
-1.23
-0.86
-0.315
0.035
-0.015
0.015
0.015
0.04
0.02
0.045
0.04
0.045
0.03
0.045
0.04
0.055
0.045
0.06
0.055
0.07
0.075
0.09
0.095
0.12
0.135
0.145
0.155
0.17
0.175
0.175
0.155
0.11
0.05
0.02
0.0
-0.015
-0.01
-0.015
-0.015
-0.015
-0.015
-0.01
-0.01
-0.015
-0.01
-0.01
-0.005
-0.005
-0.005
-0.005
0.0
0.0
0.0
0.0
0.0
0.0
0.0
0.0
0.0
0.0
0.005
0.0
0.005
0.005
0.005
0.0
0.005
0.0
0.005
0.005
0.01
0.015
0.01
0.015
0.01
0.01
0.01
0.02
0.01
0.015
0.01
0.015
0.01
0.02
0.005
0.015
0.005
0.015
0.005
0.015
0.005
0.01
0.0
0.01
0.0
0.02
0.015
0.035
-0.025
-0.01
-0.015
0.01
-0.03
-0.02
-0.025
0.0
-0.025
-0.005
-0.015
0.0
0.185
0.5
0.555
-0.88
-1.3
-1.005
-0.45
-0.015
-0.04
0.0
0.005
0.025
0.015
0.035
0.02
0.04
0.03
0.045
0.035
0.045
0.045
0.055
0.06
0.075
0.075
0.09
0.105
0.13
0.145
0.17
0.185
0.195
0.205
0.205
0.185
0.15
0.095
0.05
0.01
-0.01
-0.02
-0.02
-0.025
-0.02
-0.02
-0.015
-0.02
-0.02
-0.015
-0.02
-0.01
-0.02
-0.01
-0.01
-0.01
-0.01
-0.01
-0.005
-0.005
0.0
0.0
0.0
0.0
0.0
0.005
0.0
0.0
0.0
0.0
0.0
0.0
0.0
0.0
0.005
0.005
0.005
0.005
0.005
0.0
0.005
0.0
0.0
0.005
0.0
0.005
0.0
0.005
0.0
0.005
0.0
0.005
0.0
0.005
0.0
0.0
0.0
0.0
-0.005
0.0
0.0
0.0
-0.01
0.0
-0.015
0.0
-0.005
0.005
0.005
0.015
-0.065
-0.015
-0.03
0.0
-0.035
-0.025
-0.025
-0.005
-0.02
-0.005
-0.02
0.01
0.295
0.63
0.255
-1.145
-1.245
-0.87
-0.32
0.015
-0.01
0.03
0.02
0.04
0.035
0.05
0.035
0.055
0.045
0.06
0.055
0.06
0.05
0.07
0.065
0.08
0.08
0.095
0.11
0.13
0.145
0.17
0.175
0.19
0.195
0.19
0.165
0.13
0.08
0.04
0.01
0.0
-0.015
-0.015
-0.01
-0.015
-0.02
-0.01
-0.015
-0.015
-0.015
-0.02
-0.02
-0.01
-0.01
-0.01
-0.015
-0.01
-0.01
-0.01
-0.01
-0.01
-0.015
0.0
0.0
0.0
0.0
0.0
0.0
0.005
0.0
0.0
0.0
0.0
0.005
0.005
0.005
0.01
0.0
0.005
0.005
0.005
0.0
0.005
0.005
0.005
0.005
0.005
0.0
0.005
0.0
0.01
0.01
0.01
0.01
0.015
0.005
0.015
0.005
0.01
0.005
0.015
0.005
0.01
0.0
0.025
0.01
0.03
0.0
-0.03
-0.02
0.0
-0.02
-0.03
-0.03
-0.01
-0.025
-0.005
-0.02
-0.005
0.105
0.45
0.69
-0.645
-1.36
-1.115
-0.575
-0.08
-0.025
0.0
0.005
0.025
0.015
0.035
0.025
0.04
0.03
0.04
0.035
0.05
0.045
0.055
0.055
0.07
0.075
0.09
0.105
0.13
0.145
0.17
0.185
0.195
0.205
0.21
0.195
0.165
0.115
0.065
0.025
0.005
-0.01
-0.015
-0.02
-0.025
-0.02
-0.02
-0.02
-0.02
-0.015
-0.015
-0.015
-0.015
-0.015
-0.015
-0.01
-0.01
-0.01
-0.005
-0.01
-0.01
-0.005
-0.005
-0.01
-0.005
-0.01
-0.005
-0.005
-0.01
-0.005
-0.005
-0.005
-0.005
-0.005
-0.005
-0.005
0.0
-0.005
0.0
0.0
0.0
0.0
0.0
0.0
0.005
0.0
0.005
0.0
0.0
0.0
0.0
0.0
0.0
0.0
0.0
-0.005
-0.005
0.0
-0.005
0.0
-0.005
0.0
0.0
0.0
-0.005
-0.005
0.01
0.005
0.01
0.02
-0.06
-0.005
-0.01
-0.01
-0.035
-0.03
-0.02
-0.02
-0.025
-0.015
-0.02
0.01
0.365
0.77
-0.045
-1.285
-1.19
-0.75
-0.235
-0.005
-0.01
0.015
0.02
0.035
0.03
0.04
0.04
0.04
0.04
0.045
0.045
0.055
0.055
0.065
0.07
0.085
0.095
0.115
0.135
0.16
0.175
0.2
0.215
0.225
0.225
0.225
0.185
0.145
0.095
0.045
0.015
0.0
-0.005
-0.02
-0.03
-0.03
-0.025
-0.025
-0.025
-0.02
-0.025
-0.015
-0.015
-0.015
-0.015
-0.015
-0.015
-0.01
-0.015
-0.01
-0.01
-0.01
-0.005
-0.005
-0.005
0.0
0.0
-0.01
-0.005
-0.01
0.0
-0.005
0.0
0.0
0.0
0.0
0.0
0.0
0.0
0.0
0.005
0.005
0.0
0.005
0.005
0.005
0.0
0.0
0.0
0.005
0.005
0.01
0.005
0.015
0.01
0.02
0.01
0.015
0.01
0.015
0.01
0.015
0.0
0.015
0.005
0.015
0.01
0.025
0.025
0.045
-0.035
0.0
-0.01
0.005
-0.03
-0.02
-0.025
-0.005
-0.02
-0.005
-0.025
-0.005
0.26
0.59
0.325
-1.13
-1.305
-0.955
-0.38
0.0
-0.03
0.01
0.0
0.03
0.015
0.035
0.02
0.04
0.035
0.05
0.04
0.06
0.055
0.07
0.06
0.075
0.085
0.1
0.105
0.13
0.145
0.165
0.175
0.185
0.195
0.195
0.17
0.135
0.085
0.045
0.015
0.0
-0.015
-0.025
-0.025
-0.025
-0.025
-0.025
-0.02
-0.02
-0.02
-0.015
-0.015
-0.015
-0.01
-0.01
-0.005
-0.005
-0.005
-0.01
-0.005
-0.005
-0.01
-0.01
-0.01
-0.015
-0.015
-0.01
-0.01
-0.01
-0.015
-0.01
-0.01
-0.015
-0.005
-0.01
-0.005
-0.005
0.0
-0.005
0.0
0.0
0.0
0.0
0.0
0.0
0.0
0.005
0.005
0.005
0.0
0.0
0.0
0.005
0.005
0.005
0.005
0.005
0.0
0.0
0.0
0.0
-0.01
-0.005
-0.01
-0.005
-0.015
0.005
0.0
0.015
0.01
-0.06
-0.01
-0.015
-0.025
-0.04
-0.045
-0.03
-0.035
-0.025
-0.03
-0.025
0.025
0.395
0.79
-0.245
-1.33
-1.195
-0.705
-0.19
-0.025
-0.015
0.0
0.015
0.025
0.02
0.025
0.03
0.04
0.04
0.045
0.05
0.055
0.06
0.065
0.075
0.08
0.095
0.11
0.135
0.155
0.17
0.19
0.21
0.225
0.23
0.23
0.2
0.15
0.095
0.05
0.015
-0.005
-0.01
-0.02
-0.025
-0.025
-0.025
-0.03
-0.02
-0.025
-0.025
-0.02
-0.02
-0.02
-0.02
-0.01
-0.01
-0.005
-0.005
-0.005
-0.005
0.0
0.0
0.0
0.0
0.0
0.0
0.0
0.0
0.0
0.005
0.0
0.005
0.005
0.005
0.005
0.01
0.005
0.01
0.005
0.01
0.005
0.01
0.01
0.01
0.015
0.015
0.015
0.01
0.01
0.005
0.01
0.01
0.005
0.005
0.005
0.005
0.0
0.0
0.0
0.0
0.0
0.005
0.0
0.0
0.0
0.0
0.0
0.01
0.015
0.02
0.03
-0.045
-0.005
-0.005
-0.005
-0.035
-0.025
-0.02
-0.015
-0.02
-0.015
-0.025
0.01
0.375
0.775
-0.025
-1.275
-1.23
-0.795
-0.255
-0.01
-0.02
0.0
0.01
0.02
0.02
0.025
0.025
0.035
0.03
0.035
0.04
0.045
0.055
0.065
0.07
0.08
0.09
0.11
0.12
0.145
0.17
0.19
0.21
0.22
0.23
0.23
0.205
0.16
0.11
0.055
0.02
0.0
-0.01
-0.025
-0.03
-0.025
-0.03
-0.025
-0.025
-0.025
-0.025
-0.02
-0.025
-0.02
-0.02
-0.015
-0.01
-0.005
-0.01
-0.01
-0.005
-0.005
0.0
0.0
0.0
-0.005
-0.005
-0.005
-0.005
-0.005
0.0
-0.005
0.0
0.0
-0.005
0.0
0.0
-0.005
-0.005
0.0
0.0
0.0
0.0
0.0
0.005
0.0
0.0
0.0
0.0
0.0
0.0
0.0
0.0
0.0
0.005
0.0
0.005
0.0
0.005
-0.005
0.0
0.0
0.0
-0.005
0.005
-0.005
0.0
-0.01
0.01
0.005
0.015
-0.03
-0.025
-0.025
-0.01
-0.04
-0.04
-0.05
-0.025
-0.04
-0.02
-0.04
-0.02
0.11
0.475
0.73
-0.67
-1.355
-1.12
-0.57
-0.09
-0.05
-0.005
0.0
0.02
0.01
0.025
0.015
0.035
0.025
0.04
0.035
0.045
0.045
0.055
0.055
0.075
0.075
0.105
0.11
0.135
0.155
0.185
0.195
0.22
0.235
0.24
0.225
0.2
0.15
0.1
0.05
0.015
0.0
-0.01
-0.015
-0.02
-0.02
-0.025
-0.02
-0.02
-0.015
-0.02
-0.015
-0.015
-0.015
-0.015
-0.015
-0.01
-0.015
-0.015
-0.015
-0.015
-0.015
-0.01
-0.01
-0.01
-0.01
-0.01
-0.005
0.0
0.0
0.0
0.0
0.0
0.0
0.0
0.0
0.0
0.0
-0.005
-0.005
0.0
0.0
0.0
0.0
0.0
0.0
0.0
0.0
0.005
0.005
0.005
0.0
0.005
0.005
0.005
0.0
0.01
0.0
0.005
0.0
0.005
-0.005
0.0
-0.005
0.005
-0.005
0.005
-0.005
0.015
0.005
0.02
-0.015
-0.02
-0.02
0.0
-0.03
-0.03
-0.04
-0.02
-0.03
-0.015
-0.03
-0.01
0.125
0.5
0.73
-0.685
-1.35
-1.115
-0.55
-0.07
-0.035
0.0
0.005
0.025
0.015
0.035
0.025
0.035
0.025
0.04
0.03
0.05
0.045
0.06
0.06
0.075
0.08
0.1
0.115
0.14
0.155
0.185
0.205
0.225
0.235
0.245
0.225
0.2
0.15
0.095
0.045
0.015
-0.005
-0.015
-0.015
-0.02
-0.015
-0.02
-0.02
-0.02
-0.015
-0.02
-0.015
-0.015
-0.01
-0.01
-0.01
-0.005
-0.005
-0.005
-0.005
-0.005
0.0
0.0
0.0
-0.005
-0.005
0.0
0.0
0.0
0.0
0.0
0.0
0.0
-0.005
0.0
0.0
0.0
0.0
0.0
0.0
0.0
0.0
0.005
0.0
0.01
0.0
0.0
0.0
0.0
0.0
0.0
-0.005
0.0
-0.005
0.0
0.0
0.0
0.0
0.0
0.0
-0.005
0.0
-0.005
0.0
-0.01
-0.01
0.0
0.005
0.015
0.025
-0.055
-0.01
-0.015
-0.01
-0.045
-0.03
-0.035
-0.02
-0.03
-0.02
-0.03
0.0
0.36
0.77
0.08
-1.245
-1.25
-0.84
-0.28
0.0
-0.015
0.015
0.01
0.02
0.02
0.03
0.025
0.04
0.035
0.045
0.04
0.05
0.05
0.065
0.065
0.08
0.095
0.115
0.13
0.155
0.175
0.205
0.215
0.23
0.235
0.235
0.215
0.175
0.12
0.07
0.03
0.0
-0.015
-0.025
-0.035
-0.03
-0.03
-0.025
-0.03
-0.025
-0.025
-0.025
-0.025
-0.02
-0.015
-0.015
-0.015
-0.015
-0.01
-0.01
-0.01
-0.01
-0.01
-0.005
-0.005
-0.005
0.0
0.0
0.0
-0.005
0.0
0.0
-0.005
-0.005
0.0
0.0
0.0
0.0
0.0
0.0
0.0
0.0
0.005
0.0
0.0
0.005
0.0
0.0
0.0
0.005
0.005
0.01
0.005
0.01
0.0
0.005
0.0
0.0
0.0
0.0
-0.005
0.0
-0.01
0.0
-0.015
-0.005
-0.01
0.005
0.005
0.02
-0.045
-0.015
-0.025
-0.005
-0.045
-0.035
-0.05
-0.025
-0.04
-0.02
-0.04
-0.015
0.215
0.585
0.54
-0.945
-1.335
-1.035
-0.465
-0.03
-0.04
0.0
0.0
0.025
0.015
0.035
0.025
0.04
0.03
0.045
0.04
0.055
0.05
0.065
0.065
0.085
0.09
0.11
0.12
0.15
0.17
0.195
0.21
0.225
0.23
0.235
0.225
0.195
0.15
0.085
0.045
0.01
-0.005
-0.015
-0.02
-0.025
-0.025
-0.02
-0.02
-0.015
-0.015
-0.02
-0.015
-0.015
-0.01
-0.01
-0.01
-0.005
0.0
-0.005
0.0
0.0
0.0
0.0
0.005
0.0
0.0
0.0
0.0
0.0
0.0
0.0
0.0
0.0
0.005
0.0
0.0
-0.005
0.0
-0.005
0.0
0.0
0.0
0.0
0.0
0.0
0.005
0.0
0.0
0.0
0.005
0.0
0.0
0.0
0.005
0.0
0.005
-0.005
0.0
-0.005
0.0
-0.01
0.0
-0.01
0.0
-0.015
-0.005
-0.01
0.01
0.0
0.02
-0.025
-0.02
-0.02
0.0
-0.04
-0.035
-0.045
-0.02
-0.035
-0.015
-0.04
-0.015
0.175
0.54
0.64
-0.84
-1.345
-1.075
-0.51
-0.045
-0.045
0.0
0.005
0.025
0.01
0.03
0.02
0.035
0.03
0.05
0.04
0.055
0.055
0.07
0.065
0.085
0.085
0.11
0.115
0.145
0.16
0.185
0.2
0.22
0.225
0.23
0.22
0.195
0.14
0.09
0.045
0.005
-0.01
-0.02
-0.025
-0.03
-0.025
-0.02
-0.02
-0.02
-0.02
-0.015
-0.015
-0.015
-0.015
-0.01
-0.01
-0.005
-0.01
-0.005
-0.01
-0.005
0.0
0.0
0.0
0.0
0.0
0.0
0.0
0.0
0.0
0.0
0.0
0.0
0.0
0.0
0.0
0.0
0.0
0.0
0.0
0.0
0.0
0.0
0.0
0.0
0.0
0.0
0.0
-0.005
0.0
0.0
0.0
0.0
0.0
0.0
-0.005
0.0
-0.005
-0.01
-0.005
-0.01
-0.005
-0.005
0.0
-0.01
-0.005
0.0
0.005
0.015
0.03
-0.05
-0.005
-0.015
-0.005
-0.04
-0.025
-0.03
-0.02
-0.03
-0.02
-0.03
0.0
0.35
0.745
0.155
-1.22
-1.28
-0.89
-0.325
-0.01
-0.03
0.005
0.01
0.025
0.02
0.035
0.03
0.045
0.035
0.045
0.04
0.055
0.06
0.07
0.075
0.085
0.095
0.115
0.135
0.16
0.18
0.205
0.22
0.235
0.24
0.245
0.225
0.185
0.13
0.075
0.035
0.005
-0.005
-0.015
-0.02
-0.02
-0.015
-0.02
-0.02
-0.02
-0.02
-0.02
-0.015
-0.015
-0.015
-0.015
-0.01
-0.015
-0.01
-0.005
-0.005
-0.005
0.0
0.0
0.0
-0.005
0.0
-0.005
0.0
-0.005
-0.005
0.0
0.0
0.0
0.0
0.0
0.0
0.0
0.0
0.005
0.005
0.0
0.005
0.0
0.0
0.0
0.0
0.005
0.005
0.005
0.0
0.005
0.0
0.0
0.0
0.0
-0.005
0.0
-0.01
-0.01
-0.01
-0.005
-0.005
-0.005
0.0
0.01
0.015
0.025
-0.05
-0.01
-0.015
-0.015
-0.05
-0.035
-0.04
-0.025
-0.03
-0.02
-0.035
-0.01
0.34
0.735
0.165
-1.22
-1.28
-0.89
-0.325
-0.005
-0.025
0.005
0.01
0.02
0.015
0.03
0.025
0.04
0.035
0.045
0.045
0.055
0.06
0.07
0.075
0.09
0.1
0.115
0.135
0.155
0.175
0.205
0.22
0.235
0.245
0.24
0.23
0.195
0.135
0.08
0.035
0.005
-0.01
-0.02
-0.02
-0.02
-0.02
-0.02
-0.025
-0.02
-0.015
-0.02
-0.02
-0.015
-0.015
-0.015
-0.015
-0.015
-0.01
-0.01
-0.01
-0.01
-0.01
-0.005
-0.005
-0.01
0.0
0.0
0.0
-0.005
0.0
-0.005
-0.005
-0.005
-0.005
-0.005
-0.005
-0.005
-0.005
0.0
-0.005
0.0
0.0
0.0
0.0
0.0
0.0
0.0
0.0
0.0
-0.005
0.0
0.0
0.0
-0.005
0.0
-0.005
0.0
-0.005
0.0
-0.005
0.0
-0.01
0.005
0.0
0.02
-0.005
-0.03
-0.015
0.0
-0.03
-0.04
-0.045
-0.03
-0.04
-0.025
-0.035
-0.025
0.085
0.465
0.8
-0.525
-1.36
-1.155
-0.63
-0.12
-0.04
-0.005
0.0
0.02
0.01
0.025
0.02
0.035
0.035
0.04
0.04
0.05
0.05
0.06
0.065
0.075
0.085
0.1
0.115
0.14
0.165
0.19
0.205
0.225
0.235
0.24
0.235
0.21
0.165
0.105
0.055
0.02
-0.005
-0.025
-0.035
-0.035
-0.035
-0.03
-0.025
-0.03
-0.03
-0.035
-0.03
-0.03
-0.025
-0.025
-0.02
-0.02
-0.015
-0.015
-0.01
-0.01
-0.01
-0.005
-0.005
0.0
0.0
0.0
0.0
0.0
0.0
0.0
0.0
0.0
0.0
0.0
0.0
0.0
0.0
0.0
0.0
0.0
0.0
0.0
0.005
0.005
0.005
0.0
0.01
0.005
0.005
0.0
0.0
0.0
0.0
0.0
0.005
0.0
0.0
0.0
0.01
0.0
0.0
0.01
0.02
0.025
0.035
-0.045
0.0
-0.01
0.0
-0.035
-0.03
-0.035
-0.015
-0.03
-0.005
-0.02
0.0
0.32
0.705
0.225
-1.175
-1.275
-0.92
-0.34
0.0
-0.02
0.015
0.01
0.03
0.015
0.035
0.025
0.04
0.03
0.045
0.035
0.05
0.045
0.06
0.06
0.07
0.075
0.095
0.11
0.135
0.145
0.17
0.18
0.2
0.2
0.205
0.185
0.155
0.105
0.055
0.02
0.0
-0.02
-0.02
-0.02
-0.025
-0.02
-0.02
-0.02
-0.02
-0.01
-0.01
-0.005
-0.005
-0.01
-0.01
-0.005
-0.005
-0.005
0.0
0.0
0.0
-0.005
0.0
0.005
0.005
0.0
0.0
0.0
0.005
0.005
0.0
0.0
0.005
0.0
0.005
0.0
0.0
0.0
0.0
0.0
0.0
0.0
0.0
0.0
0.005
0.0
0.01
0.0
0.005
0.0
0.0
0.0
0.0
0.0
0.0
-0.005
0.0
-0.005
0.015
0.01
0.025
0.02
-0.05
-0.01
0.0
-0.01
-0.025
-0.025
-0.02
-0.015
-0.015
-0.01
-0.01
0.035
0.415
0.78
-0.21
-1.33
-1.23
-0.745
-0.2
0.005
0.0
0.02
0.03
0.03
0.035
0.035
0.04
0.035
0.04
0.045
0.055
0.06
0.06
0.07
0.08
0.085
0.1
0.105
0.125
0.15
0.175
0.195
0.21
0.225
0.23
0.225
0.205
0.16
0.1
0.05
0.015
-0.01
-0.025
-0.03
-0.035
-0.035
-0.035
-0.03
-0.025
-0.025
-0.02
-0.02
-0.02
-0.02
-0.015
-0.015
-0.015
-0.015
-0.01
-0.01
-0.005
-0.005
-0.01
-0.005
-0.005
-0.005
0.0
-0.005
0.0
-0.005
0.0
-0.005
0.0
0.0
0.0
0.0
0.0
0.0
0.0
0.0
0.0
0.0
0.0
0.0
0.0
0.0
0.0
0.0
0.0
0.0
0.0
0.0
0.0
0.0
0.0
0.0
-0.005
-0.005
-0.005
-0.005
-0.005
0.0
-0.01
0.015
0.01
0.015
0.005
-0.04
-0.005
-0.005
-0.025
-0.035
-0.035
-0.02
-0.02
-0.02
-0.025
-0.02
0.05
0.415
0.825
-0.315
-1.315
-1.15
-0.675
-0.165
-0.03
-0.015
0.0
0.005
0.01
0.015
0.02
0.02
0.025
0.03
0.03
0.04
0.045
0.05
0.055
0.07
0.08
0.095
0.11
0.13
0.155
0.18
0.205
0.215
0.235
0.245
0.24
0.215
0.17
0.11
0.065
0.025
-0.005
-0.015
-0.02
-0.02
-0.025
-0.025
-0.025
-0.02
-0.02
-0.025
-0.02
-0.025
-0.02
-0.02
-0.015
-0.015
-0.01
-0.005
-0.005
-0.005
0.0
-0.005
-0.005
-0.005
0.0
0.0
0.0
0.0
0.0
0.0
0.0
0.0
0.005
0.0
0.0
0.0
0.005
0.0
0.0
0.0
0.0
0.0
0.0
0.0
0.0
0.0
0.0
0.0
0.0
0.0
0.0
0.0
0.0
0.0
0.0
0.0
0.0
0.005
0.0
0.0
-0.005
0.0
-0.005
0.0
-0.01
0.0
0.0
0.005
0.01
0.025
-0.05
0.0
-0.01
0.0
-0.04
-0.03
-0.035
-0.015
-0.03
-0.015
-0.035
-0.015
0.265
0.64
0.395
-1.055
-1.285
-0.97
-0.4
-0.015
-0.035
0.0
0.0
0.02
0.02
0.035
0.03
0.04
0.035
0.05
0.045
0.06
0.06
0.07
0.075
0.09
0.095
0.12
0.13
0.16
0.18
0.2
0.22
0.24
0.245
0.255
0.245
0.205
0.16
0.1
0.055
0.025
0.0
-0.005
-0.015
-0.015
-0.02
-0.01
-0.015
-0.01
-0.005
-0.01
-0.005
-0.005
-0.005
-0.005
0.0
-0.005
0.0
0.0
0.0
0.005
0.0
0.0
0.0
0.0
0.0
-0.005
0.0
0.0
0.0
0.0
0.0
0.0
0.005
0.0
0.005
0.005
0.01
0.005
0.005
0.005
0.005
0.005
0.01
0.005
0.005
0.0
0.0
0.005
0.0
0.005
0.005
0.005
0.005
0.01
0.0
0.005
-0.005
0.005
0.0
0.02
0.015
0.035
0.01
-0.035
-0.01
0.0
-0.015
-0.04
-0.03
-0.02
-0.025
-0.01
-0.015
-0.015
0.075
0.445
0.76
-0.48
-1.355
-1.18
-0.665
-0.13
0.0
0.005
0.015
0.035
0.04
0.045
0.045
0.04
0.04
0.055
0.045
0.055
0.055
0.065
0.06
0.075
0.075
0.09
0.105
0.115
0.13
0.15
0.165
0.18
0.185
0.19
0.185
0.15
0.105
0.055
0.03
0.005
-0.03
-0.025
-0.025
-0.025
-0.02
-0.025
-0.01
-0.02
-0.015
-0.015
-0.01
-0.015
0.0
-0.005
0.0
0.0
0.0
0.005
0.0
-0.005
0.0
0.0
0.0
0.0
0.0
0.0
-0.005
0.0
0.0
0.0
0.0
0.0
0.005
0.0
0.005
0.0
0.01
0.005
0.015
0.0
0.01
-0.01
0.005
0.0
0.005
-0.005
0.01
-0.005
0.005
0.005
0.03
0.02
0.045
-0.025
-0.005
-0.015
0.0
-0.025
-0.03
-0.035
-0.005
-0.02
0.0
-0.02
0.0
0.19
0.505
0.495
-0.92
-1.285
-1.04
-0.485
-0.005
-0.025
0.01
0.01
0.035
0.02
0.04
0.03
0.045
0.035
0.055
0.045
0.065
0.055
0.075
0.07
0.085
0.085
0.1
0.11
0.13
0.15
0.175
0.185
0.2
0.21
0.215
0.185
0.155
0.095
0.05
0.01
-0.005
-0.02
-0.02
-0.025
-0.025
-0.025
-0.025
-0.025
-0.02
-0.02
-0.02
-0.02
-0.015
-0.015
-0.015
-0.015
-0.005
-0.01
0.0
-0.005
0.0
0.0
0.0
-0.005
0.0
0.0
0.0
0.0
-0.005
0.0
0.0
0.0
0.0
0.0
0.0
0.0
0.0
0.005
0.0
0.005
0.0
0.005
0.005
0.005
0.005
0.01
0.0
0.01
0.0
0.005
0.01
0.02
0.02
0.03
-0.055
0.0
-0.01
0.0
-0.035
-0.025
-0.025
-0.01
-0.025
-0.015
-0.02
0.005
0.315
0.665
0.185
-1.145
-1.2
-0.82
-0.305
0.005
-0.02
0.005
0.005
0.02
0.01
0.025
0.025
0.035
0.035
0.045
0.04
0.055
0.055
0.06
0.06
0.075
0.08
0.1
0.12
0.14
0.165
0.185
0.205
0.22
0.23
0.23
0.205
0.16
0.105
0.05
0.015
-0.005
-0.02
-0.03
-0.025
-0.025
-0.025
-0.03
-0.025
-0.03
-0.03
-0.03
-0.025
-0.03
-0.025
-0.025
-0.025
-0.02
-0.02
-0.025
-0.02
-0.02
-0.01
-0.015
-0.005
-0.005
0.0
-0.005
0.0
0.0
0.0
0.0
0.0
0.0
0.01
0.0
0.005
0.0
0.0
0.0
0.005
0.0
0.0
0.0
0.005
0.0
0.0
0.0
0.005
0.0
0.0
0.0
0.005
0.0
0.01
0.0
0.005
0.005
0.005
0.0
0.005
-0.005
0.0
0.0
0.01
0.0
0.02
-0.03
-0.025
-0.01
0.005
-0.03
-0.035
-0.035
-0.02
-0.035
-0.015
-0.03
-0.01
0.08
0.42
0.73
-0.54
-1.31
-1.1
-0.575
-0.095
-0.03
0.0
0.0
0.02
0.01
0.025
0.02
0.035
0.025
0.03
0.03
0.04
0.035
0.045
0.04
0.06
0.06
0.075
0.085
0.1
0.11
0.135
0.145
0.175
0.175
0.185
0.18
0.155
0.105
0.065
0.025
0.0
-0.015
-0.015
-0.02
-0.02
-0.025
-0.01
-0.02
-0.02
-0.02
-0.015
-0.015
-0.02
-0.02
-0.015
-0.02
-0.015
-0.01
-0.01
-0.015
-0.015
-0.02
-0.01
-0.01
-0.01
-0.01
-0.01
-0.01
0.0
-0.005
0.0
0.0
0.0
0.0
0.005
0.005
0.01
0.005
0.0
0.005
0.005
0.0
0.0
0.005
0.01
0.005
0.01
0.005
0.0
0.0
0.01
0.01
0.005
0.005
0.005
0.005
0.0
0.0
0.0
0.0
0.0
0.0
0.0
0.005
0.0
0.0
0.015
0.02
0.03
0.015
-0.04
-0.01
-0.005
-0.005
-0.035
-0.02
-0.015
0.0
-0.01
-0.005
-0.01
0.025
0.375
0.685
-0.115
-1.315
-1.165
-0.745
-0.225
0.045
0.0
0.03
0.03
0.04
0.04
0.04
0.04
0.045
0.05
0.055
0.055
0.06
0.06
0.065
0.07
0.08
0.085
0.105
0.115
0.135
0.145
0.17
0.185
0.195
0.195
0.195
0.18
0.14
0.09
0.04
0.015
-0.005
-0.015
-0.015
-0.02
-0.02
-0.02
-0.025
-0.025
-0.03
-0.025
-0.025
-0.03
-0.03
-0.025
-0.025
-0.02
-0.02
-0.015
-0.02
-0.015
-0.02
-0.02
-0.02
-0.015
-0.015
-0.01
-0.01
-0.01
-0.015
-0.01
-0.01
-0.005
-0.01
-0.005
-0.01
-0.005
-0.005
0.0
-0.005
0.0
-0.005
-0.005
0.0
0.0
0.0
0.0
0.0
0.0
0.0
0.0
0.0
0.0
0.0
0.0
0.0
0.0
0.0
0.0
0.0
-0.005
0.0
-0.005
0.0
-0.005
0.0
-0.005
0.0
-0.005
-0.005
-0.005
0.0
-0.005
-0.01
0.0
0.0
0.0
0.01
-0.07
-0.01
-0.03
-0.02
-0.045
-0.03
-0.035
-0.025
-0.035
-0.03
-0.04
-0.02
0.23
0.565
0.375
-1.035
-1.225
-0.905
-0.37
-0.01
-0.04
-0.01
0.0
0.015
0.01
0.025
0.025
0.03
0.03
0.045
0.045
0.05
0.05
0.055
0.06
0.075
0.075
0.095
0.11
0.135
0.155
0.175
0.19
0.21
0.22
0.225
0.21
0.18
0.13
0.075
0.04
0.005
-0.015
-0.025
-0.03
-0.03
-0.02
-0.03
-0.02
-0.025
-0.025
-0.025
-0.02
-0.025
-0.02
-0.025
-0.02
-0.025
-0.015
-0.02
-0.015
-0.02
-0.015
-0.02
-0.015
-0.015
-0.005
-0.01
0.0
-0.005
0.0
-0.01
0.0
-0.01
-0.005
-0.005
0.0
-0.005
0.0
0.0
0.0
-0.005
0.0
0.0
0.0
0.0
0.0
0.0
0.0
0.0
0.0
0.0
0.0
0.0
0.0
-0.005
0.0
0.005
0.005
0.0
0.005
0.0
0.005
0.0
0.005
0.005
0.005
0.005
0.005
0.0
0.005
0.005
0.01
0.005
0.005
0.005
0.005
0.005
0.005
0.0
0.005
0.0
0.005
0.0
0.005
0.0
0.01
0.0
0.01
0.0
0.0
0.01
0.02
0.015
0.03
-0.04
0.01
-0.005
0.0
-0.035
-0.015
-0.02
0.0
-0.02
0.0
-0.02
0.005
0.31
0.705
0.235
-1.155
-1.205
-0.86
-0.32
0.0
-0.02
0.015
0.005
0.03
0.02
0.035
0.02
0.04
0.025
0.045
0.04
0.06
0.05
0.065
0.06
0.085
0.085
0.11
0.115
0.145
0.15
0.18
0.195
0.21
0.225
0.235
0.225
0.2
0.15
0.11
0.055
0.035
0.01
0.0
-0.005
0.0
0.0
0.0
0.0
0.0
0.0
0.0
-0.005
0.0
0.0
0.0
0.0
0.005
0.0
0.005
0.005
0.005
0.0
0.0
0.0
0.0
0.0
0.0
0.0
-0.005
0.0
0.0
-0.005
0.0
0.0
0.0
0.0
-0.01
-0.01
-0.005
-0.01
-0.005
-0.005
-0.005
-0.01
-0.01
-0.005
0.0
-0.005
0.0
-0.005
0.0
-0.01
-0.005
0.0
0.0
0.0
-0.005
-0.015
-0.005
-0.005
-0.005
-0.01
0.0
0.0
-0.005
-0.005
-0.01
-0.015
-0.015
-0.02
-0.015
-0.015
-0.01
0.0
0.0
0.005
-0.045
-0.045
-0.05
-0.03
-0.055
-0.065
-0.055
-0.05
-0.055
-0.05
-0.05
-0.045
0.04
0.395
0.695
-0.51
-1.415
-1.2
-0.69
-0.16
-0.035
-0.03
-0.015
-0.01
0.0
0.0
0.0
0.0
0.005
0.005
0.005
0.015
0.015
0.02
0.02
0.025
0.035
0.045
0.065
0.08
0.095
0.115
0.135
0.15
0.17
0.17
0.165
0.14
0.1
0.055
0.01
-0.02
-0.045
-0.055
-0.055
-0.06
-0.06
-0.065
-0.055
-0.05
-0.035
-0.02
0.0
0.01
0.02
0.03
0.03
0.035
0.04
0.035
0.035
0.035
0.035
0.035
0.03
0.03
0.025
0.025
0.015
0.015
0.015
0.01
0.01
0.01
0.01
0.005
0.01
0.01
0.01
0.01
0.01
0.0
0.0
0.005
0.005
0.005
0.0
0.0
0.005
0.0
0.0
-0.005
0.0
0.0
-0.005
-0.01
-0.01
-0.01
-0.005
-0.01
-0.015
-0.01
-0.015
-0.01
-0.015
-0.01
-0.015
-0.01
-0.015
-0.01
-0.015
-0.01
-0.01
0.0
0.0
0.005
-0.05
-0.035
-0.03
-0.02
-0.045
-0.055
-0.05
-0.04
-0.045
-0.04
-0.05
-0.04
0.05
0.39
0.755
-0.5
-1.33
-1.1
-0.595
-0.125
-0.055
-0.02
-0.01
0.0
0.0
0.01
0.01
0.01
0.01
0.02
0.025
0.03
0.045
0.055
0.055
0.07
0.075
0.095
0.11
0.125
0.145
0.165
0.185
0.2
0.215
0.215
0.21
0.19
0.155
0.1
0.05
0.0
-0.02
-0.04
-0.045
-0.06
-0.055
-0.065
-0.06
-0.065
-0.06
-0.065
-0.065
-0.06
-0.055
-0.065
-0.05
-0.05
-0.035
-0.04
-0.025
-0.03
-0.015
-0.025
-0.015
-0.02
-0.005
-0.01
-0.005
-0.015
-0.005
-0.015
0.0
-0.01
0.0
-0.015
-0.01
-0.02
-0.015
-0.025
-0.02
-0.02
-0.015
-0.025
-0.02
-0.025
-0.02
-0.02
-0.015
-0.02
-0.02
-0.025
-0.02
-0.025
-0.025
-0.02
-0.025
-0.03
-0.025
-0.02
-0.03
-0.025
-0.025
-0.025
-0.02
-0.02
-0.03
-0.015
-0.02
-0.01
-0.02
-0.015
-0.03
-0.02
-0.005
0.0
0.0
0.015
-0.065
-0.005
-0.02
-0.01
-0.04
-0.025
-0.03
-0.005
-0.03
-0.01
-0.03
-0.01
0.225
0.57
0.54
-0.92
-1.29
-0.99
-0.43
-0.02
-0.035
0.0
0.0
0.015
0.0
0.01
0.005
0.015
0.005
0.02
0.005
0.02
0.015
0.025
0.025
0.045
0.05
0.075
0.085
0.11
0.135
0.15
0.17
0.19
0.205
0.22
0.215
0.2
0.165
0.11
0.065
0.02
-0.005
-0.025
-0.035
-0.035
-0.035
-0.03
-0.025
-0.02
-0.01
-0.015
-0.01
-0.02
-0.01
-0.015
-0.01
-0.01
-0.015
-0.01
-0.01
-0.01
-0.005
-0.01
-0.01
-0.005
-0.005
-0.01
-0.015
-0.01
-0.01
-0.01
0.0
0.0
0.01
0.01
0.01
0.005
0.01
0.005
0.005
0.0
0.005
0.005
0.005
0.005
0.01
0.01
0.015
0.02
0.02
0.015
0.015
0.005
0.01
0.005
0.015
0.015
0.01
0.005
0.0
-0.005
0.0
-0.005
-0.005
-0.01
0.0
-0.015
-0.005
-0.02
-0.01
-0.015
0.0
0.0
0.01
-0.02
-0.04
-0.035
-0.025
-0.045
-0.05
-0.055
-0.03
-0.045
-0.03
-0.045
-0.035
0.045
0.42
0.725
-0.49
-1.39
-1.21
-0.685
-0.16
-0.03
-0.01
-0.01
0.005
0.0
0.015
0.01
0.02
0.015
0.03
0.025
0.035
0.03
0.04
0.04
0.055
0.05
0.07
0.075
0.095
0.11
0.13
0.145
0.155
0.17
0.18
0.17
0.16
0.12
0.08
0.035
0.005
-0.005
-0.01
-0.025
-0.02
-0.01
-0.005
-0.005
-0.005
-0.01
-0.01
-0.015
-0.015
-0.015
-0.015
-0.015
-0.015
-0.02
-0.015
-0.015
-0.01
-0.005
0.0
0.0
0.0
0.0
0.005
0.0
0.0
0.0
0.0
0.0
0.005
0.0
0.0
-0.005
-0.005
-0.005
-0.005
-0.005
-0.01
-0.01
-0.01
-0.015
-0.01
-0.01
-0.01
-0.01
-0.015
-0.01
-0.015
-0.01
-0.015
-0.015
-0.02
-0.015
-0.02
-0.02
-0.025
-0.02
-0.025
-0.005
-0.005
0.005
-0.02
-0.05
-0.03
-0.02
-0.04
-0.05
-0.045
-0.03
-0.035
-0.025
-0.03
-0.015
0.065
0.425
0.785
-0.39
-1.32
-1.14
-0.64
-0.135
-0.005
0.005
0.015
0.025
0.025
0.04
0.04
0.045
0.04
0.05
0.05
0.055
0.05
0.055
0.06
0.065
0.075
0.085
0.1
0.12
0.135
0.16
0.185
0.2
0.21
0.215
0.21
0.195
0.165
0.115
0.07
0.03
0.0
-0.015
-0.02
-0.025
-0.025
-0.025
-0.02
-0.02
-0.015
-0.015
-0.015
-0.015
-0.015
-0.015
-0.01
-0.01
-0.01
-0.01
-0.01
-0.01
-0.01
-0.01
-0.01
-0.01
-0.005
-0.005
-0.005
-0.005
-0.005
-0.01
0.0
-0.01
-0.005
-0.005
0.0
-0.01
-0.005
-0.005
0.0
-0.005
0.0
0.0
0.0
0.0
0.0
0.0
0.0
0.0
0.0
0.0
0.0
0.0
0.0
0.0
-0.005
0.0
0.0
0.005
0.0
0.0
0.0
0.0
0.015
0.01
0.02
0.025
-0.055
0.0
-0.01
-0.005
-0.03
-0.03
-0.02
-0.015
-0.02
-0.01
-0.025
0.0
0.34
0.725
0.165
-1.185
-1.235
-0.86
-0.315
-0.005
-0.02
0.005
0.005
0.02
0.02
0.035
0.025
0.035
0.035
0.045
0.04
0.05
0.055
0.065
0.065
0.08
0.085
0.105
0.12
0.145
0.165
0.19
0.215
0.235
0.25
0.255
0.245
0.215
0.17
0.11
0.07
0.025
0.0
-0.01
-0.015
-0.02
-0.015
-0.01
-0.005
-0.005
0.0
0.0
0.0
0.0
0.0
0.0
0.0
0.0
0.0
0.0
0.0
0.0
0.0
0.0
0.0
-0.005
0.0
-0.005
0.0
-0.005
0.0
0.0
0.0
0.0
0.0
0.0
0.0
0.0
0.005
0.0
0.005
0.0
0.005
0.01
0.01
0.015
0.015
0.02
0.01
0.015
0.01
0.01
0.01
0.015
0.01
0.015
0.005
0.01
0.005
0.015
0.0
0.01
0.0
0.0
-0.005
0.015
0.005
0.025
-0.035
-0.01
-0.015
0.0
-0.035
-0.035
-0.04
-0.015
-0.035
-0.015
-0.035
-0.015
0.205
0.55
0.58
-0.88
-1.3
-1.035
-0.475
-0.03
-0.04
0.0
0.005
0.025
0.015
0.03
0.025
0.04
0.03
0.045
0.04
0.05
0.045
0.065
0.065
0.085
0.085
0.11
0.12
0.145
0.16
0.18
0.2
0.215
0.225
0.235
0.23
0.21
0.17
0.115
0.07
0.03
0.0
-0.01
-0.02
-0.02
-0.02
-0.02
-0.025
-0.025
-0.02
-0.015
-0.01
-0.01
-0.005
-0.005
0.0
0.0
0.0
0.0
0.0
0.0
0.005
0.0
0.005
0.005
0.005
0.0
0.005
0.005
0.0
0.0
0.01
0.01
0.015
0.005
0.015
0.005
0.01
0.01
0.01
0.01
0.01
0.01
0.01
0.01
0.02
0.01
0.02
0.01
0.025
0.01
0.02
0.005
0.025
0.005
0.02
0.005
0.02
0.005
0.015
0.01
0.035
0.025
0.04
-0.01
-0.01
-0.01
0.01
-0.02
-0.02
-0.03
0.0
-0.02
0.005
-0.02
0.0
0.16
0.51
0.635
-0.78
-1.335
-1.12
-0.54
-0.05
-0.02
0.02
0.015
0.035
0.025
0.045
0.03
0.05
0.035
0.055
0.04
0.06
0.05
0.06
0.065
0.08
0.075
0.095
0.095
0.12
0.13
0.16
0.17
0.185
0.19
0.205
0.19
0.175
0.135
0.09
0.045
0.015
-0.005
-0.015
-0.02
-0.025
-0.025
-0.02
-0.025
-0.02
-0.025
-0.02
-0.025
-0.015
-0.015
-0.015
-0.015
-0.01
-0.01
-0.005
-0.01
-0.005
-0.01
-0.005
-0.01
-0.005
-0.005
-0.005
-0.005
0.0
-0.005
0.0
0.0
0.0
0.0
0.0
0.0
0.0
0.0
0.0
0.0
0.0
