signal
-0.03
-0.025
0.0
0.0
0.01
0.015
0.015
0.02
0.01
0.02
0.005
0.015
0.02
0.015
0.025
0.035
0.035
0.065
0.065
0.075
0.085
0.075
0.085
0.06
0.04
0.025
0.0
0.015
0.0
-0.015
-0.02
-0.045
-0.025
-0.025
-0.015
-0.01
-0.045
-0.01
0.0
-0.015
-0.01
-0.01
0.0
-0.005
-0.01
-0.005
0.0
0.0
0.005
-0.01
-0.005
-0.005
0.005
0.005
-0.005
0.005
-0.005
0.02
0.0
0.005
0.025
0.01
0.015
0.005
0.0
0.015
0.015
0.0
0.015
0.01
0.015
0.005
0.01
-0.02
-0.03
-0.055
-0.085
-0.06
-0.025
-0.015
0.015
0.025
0.02
0.01
0.015
0.01
0.01
0.0
0.03
0.03
0.1
-0.255
-0.66
-0.44
-0.205
-0.015
-0.05
-0.04
0.005
-0.02
0.0
0.0
0.0
0.0
0.0
0.0
0.01
0.01
0.015
0.01
0.03
0.035
0.04
0.04
0.05
0.05
0.065
0.055
0.045
0.025
0.005
0.0
0.0
-0.005
-0.01
-0.015
-0.005
0.0
0.0
-0.03
-0.005
0.01
0.0
0.0
0.0
0.005
0.005
0.0
0.0
0.005
0.0
-0.005
0.0
0.01
-0.015
0.015
-0.005
0.01
-0.005
0.01
0.005
0.0
0.02
0.005
0.015
0.02
0.005
0.0
0.02
0.005
0.01
0.015
0.015
0.015
0.02
0.01
0.03
0.01
0.005
-0.04
-0.04
-0.075
-0.045
-0.025
0.01
0.01
0.025
0.02
0.035
0.015
0.015
0.0
0.025
0.045
0.165
-0.135
-0.63
-0.485
-0.32
-0.055
-0.03
-0.03
-0.015
-0.005
0.0
0.005
0.0
-0.005
0.005
0.01
0.0
0.005
0.02
0.01
0.02
0.035
0.04
0.06
0.045
0.04
0.075
0.05
0.035
0.025
0.015
-0.02
-0.015
-0.01
-0.01
-0.025
-0.005
-0.02
-0.015
-0.015
-0.01
0.0
-0.005
0.0
0.005
0.0
0.005
-0.005
0.01
0.01
0.01
0.015
0.0
0.01
0.015
0.02
0.02
0.02
0.0
0.01
0.02
0.03
0.02
0.03
0.03
0.03
0.025
0.03
0.025
0.015
0.04
0.015
0.03
0.03
0.03
0.03
0.02
0.03
0.025
0.025
0.02
0.015
0.005
-0.03
-0.05
-0.035
-0.015
0.0
0.01
0.03
0.015
0.03
0.01
0.035
0.03
0.04
0.04
0.19
-0.17
-0.69
-0.48
-0.27
-0.04
-0.025
-0.02
0.0
0.0
0.015
0.015
0.0
-0.005
0.025
0.01
0.005
0.02
0.035
0.025
0.03
0.035
0.055
0.055
0.065
0.075
0.07
0.06
0.065
0.05
0.03
-0.01
0.005
-0.005
-0.01
0.0
0.005
-0.01
-0.015
0.005
0.005
0.0
0.0
0.005
0.0
0.0
0.0
0.005
0.015
0.0
0.0
0.0
0.0
0.01
0.01
0.01
0.0
0.015
0.005
0.015
0.0
0.015
0.03
0.03
0.02
0.03
0.02
0.025
0.025
0.03
0.025
0.025
0.03
0.045
0.025
0.03
0.03
0.03
0.025
-0.015
-0.005
-0.025
-0.035
0.035
0.025
0.045
0.04
0.03
0.02
0.03
0.02
0.045
0.055
0.175
-0.195
-0.7
-0.47
-0.27
-0.025
-0.025
-0.025
0.01
0.0
0.0
0.015
0.015
0.025
0.015
0.01
0.015
0.02
0.025
0.025
0.03
0.05
0.065
0.055
0.065
0.065
0.07
0.07
0.06
0.035
0.01
0.0
0.0
-0.01
-0.01
-0.01
0.0
-0.01
0.0
0.0
-0.005
0.0
0.0
-0.01
0.005
0.0
0.005
0.005
0.0
0.0
0.01
0.005
0.0
0.0
0.015
0.01
0.005
0.0
0.0
0.015
0.01
0.015
0.015
0.01
0.02
0.03
0.02
0.02
0.01
0.015
0.025
0.015
0.03
0.02
0.025
0.025
0.04
0.015
-0.025
0.0
-0.04
-0.03
0.015
0.005
0.025
0.03
0.025
0.025
0.02
0.01
0.055
0.05
0.175
-0.22
-0.72
-0.49
-0.29
-0.035
-0.015
-0.015
0.0
0.0
0.0
0.0
0.01
0.0
0.01
0.005
0.01
0.015
0.025
0.01
0.045
0.035
0.05
0.06
0.06
0.07
0.07
0.065
0.055
0.035
0.02
0.005
-0.02
-0.01
-0.005
0.0
0.01
0.0
-0.005
-0.005
0.0
0.0
0.005
-0.005
0.0
0.01
0.015
0.005
0.005
0.01
0.0
0.01
0.015
0.015
0.005
0.015
0.015
0.005
0.01
0.025
0.025
0.02
0.025
0.01
0.02
0.025
0.025
0.02
0.02
0.03
0.04
0.025
0.04
0.03
0.035
0.035
0.035
0.045
0.01
-0.01
-0.03
-0.025
0.005
0.02
0.025
0.03
0.04
0.025
0.04
0.01
0.035
0.065
0.105
0.0
-0.475
-0.565
-0.42
-0.125
0.01
-0.015
0.01
0.005
0.02
0.015
0.03
0.01
0.02
0.02
0.035
0.025
0.025
0.03
0.06
0.05
0.065
0.08
0.085
0.075
0.095
0.095
0.08
0.075
0.04
0.02
0.015
0.0
-0.005
0.0
-0.01
-0.01
-0.005
0.0
0.0
-0.01
0.0
-0.005
0.005
-0.005
0.0
0.005
0.0
0.005
0.005
0.01
0.0
0.005
0.015
0.005
0.015
0.02
0.02
0.015
0.02
0.02
0.015
0.025
0.02
0.02
0.015
0.03
0.03
0.02
0.025
0.035
0.025
0.025
0.02
0.04
0.035
0.0
0.0
-0.02
-0.025
0.025
0.04
0.035
0.035
0.045
0.025
0.035
0.02
0.03
0.06
0.12
0.05
-0.37
-0.45
-0.345
-0.115
0.0
-0.015
-0.005
0.0
0.01
0.01
0.01
0.01
0.02
0.015
0.02
0.02
0.015
0.025
0.04
0.05
0.06
0.06
0.075
0.08
0.08
0.075
0.065
0.045
0.015
0.0
-0.01
-0.015
-0.015
-0.005
-0.005
-0.005
-0.015
0.0
0.0
0.0
0.0
-0.005
0.005
0.005
0.015
0.01
0.02
0.015
0.02
0.025
0.015
0.02
0.025
0.02
0.03
0.03
0.025
0.03
0.02
0.025
0.02
0.025
0.015
0.02
0.02
0.025
0.015
0.025
0.02
-0.005
0.0
0.0
-0.015
0.03
0.03
0.015
0.015
0.01
0.0
0.0
0.0
-0.005
0.02
0.095
0.185
-0.145
-0.465
-0.405
-0.165
-0.035
-0.05
-0.03
-0.025
-0.02
-0.02
-0.02
-0.015
-0.01
-0.01
-0.005
0.0
0.01
0.015
0.03
0.04
0.06
0.065
0.08
0.09
0.095
0.1
0.09
0.075
0.055
0.03
0.01
0.0
0.0
-0.01
-0.01
-0.005
-0.005
-0.01
-0.005
-0.005
0.0
-0.005
0.0
0.0
0.0
0.0
0.01
0.01
0.005
0.01
0.01
0.01
0.01
0.005
0.005
0.005
0.005
0.005
0.005
0.005
0.0
-0.015
-0.03
-0.035
-0.035
-0.015
0.0
0.03
0.0
0.005
0.0
0.005
-0.005
-0.005
-0.01
0.025
0.025
0.325
0.155
-0.47
-0.46
-0.305
-0.065
-0.05
-0.045
-0.025
-0.02
-0.015
-0.015
-0.005
-0.01
0.0
0.0
0.005
0.005
0.025
0.02
0.035
0.045
0.065
0.075
0.09
0.1
0.105
0.1
0.09
0.075
0.05
0.025
0.01
-0.005
-0.005
-0.01
-0.005
0.0
-0.01
0.0
0.0
0.005
0.005
0.005
0.01
0.015
0.01
0.015
0.005
0.01
0.005
0.01
0.005
0.005
-0.025
-0.03
-0.06
-0.055
-0.05
-0.015
0.015
0.005
0.0
0.01
0.01
0.0
0.0
0.0
-0.005
0.015
0.01
0.26
0.235
-0.305
-0.435
-0.33
-0.095
-0.045
-0.035
-0.015
-0.015
-0.005
0.0
0.0
-0.005
0.0
0.0
0.005
0.005
0.015
0.02
0.035
0.04
0.06
0.075
0.09
0.1
0.11
0.105
0.1
0.08
0.065
0.03
0.015
0.0
-0.005
-0.01
-0.01
-0.01
-0.005
-0.01
-0.01
0.0
-0.005
0.0
0.0
0.0
0.0
0.005
0.0
0.0
0.0
0.0
-0.035
-0.045
-0.05
-0.045
-0.05
-0.045
-0.005
0.0
0.0
0.0
0.0
-0.005
-0.01
0.0
-0.005
-0.005
0.015
0.14
0.3
-0.015
-0.415
-0.415
-0.16
-0.025
-0.035
-0.01
-0.01
-0.005
0.005
0.0
0.01
0.015
0.03
0.025
0.025
0.05
0.01
0.025
0.065
-0.055
0.085
0.08
0.125
0.125
0.07
0.045
-0.07
0.0
0.0
0.035
-0.06
0.095
0.065
-0.025
-0.16
-0.02
-0.05
-0.075
0.045
0.065
0.035
-0.075
-0.095
-0.035
0.005
-0.05
-0.02
-0.005
0.055
-0.035
-0.13
-0.19
0.0
-0.08
0.03
-0.005
-0.14
0.095
0.045
-0.025
0.025
-0.07
-0.165
0.125
0.1
0.135
0.25
-0.245
-0.545
-0.38
-0.145
-0.135
-0.16
0.05
-0.01
-0.04
-0.025
-0.055
0.07
0.035
-0.015
-0.1
0.05
0.06
0.105
0.035
0.035
0.11
0.125
0.145
-0.045
0.085
0.185
0.085
0.015
0.1
0.1
0.025
-0.115
0.04
-0.005
0.075
0.035
-0.07
-0.12
0.03
0.085
-0.08
0.05
0.015
0.065
-0.085
0.04
0.06
-0.08
-0.01
0.05
0.015
-0.065
0.02
-0.09
-0.2
0.02
0.035
-0.055
-0.015
0.0
-0.035
0.0
-0.015
0.03
0.0
-0.03
0.075
-0.02
0.175
0.035
-0.45
-0.43
-0.285
-0.09
-0.07
-0.045
0.015
-0.025
-0.05
0.035
0.05
-0.01
-0.115
-0.02
0.03
0.045
-0.025
-0.075
-0.055
0.055
0.15
0.055
0.055
0.02
0.115
0.035
0.04
0.065
-0.005
-0.03
-0.03
-0.01
-0.105
-0.035
0.02
-0.02
-0.045
-0.065
-0.08
-0.005
0.025
-0.03
-0.055
-0.05
-0.03
-0.02
-0.055
0.0
0.015
0.0
0.055
-0.01
-0.06
-0.03
-0.01
-0.13
-0.075
0.135
0.01
0.0
0.0
0.065
0.04
-0.11
0.1
0.09
0.035
0.03
-0.155
0.15
0.405
-0.08
-0.32
-0.38
-0.015
0.07
-0.27
-0.08
-0.16
-0.425
-0.11
-0.18
-0.24
0.09
-0.07
0.015
-0.005
0.005
-0.13
-0.135
0.22
0.135
0.055
0.055
0.125
0.125
-0.01
-0.125
0.205
0.21
-0.03
0.0
0.055
0.0
-0.04
-0.125
-0.165
0.145
0.03
-0.03
0.045
0.01
0.01
-0.005
0.0
0.0
-0.05
-0.09
-0.3
0.15
0.2
0.045
0.04
-0.015
-0.04
0.01
-0.015
0.02
-0.145
-0.215
0.27
0.29
0.47
0.19
-0.115
-0.14
-0.05
-0.215
0.155
0.375
-0.015
-0.475
-0.495
-0.185
-0.145
-0.225
-0.12
0.065
-0.02
-0.035
-0.06
-0.015
-0.095
-0.015
-0.19
0.035
0.15
0.095
0.12
0.085
0.045
-0.005
0.21
0.215
0.115
0.035
0.31
0.19
0.055
-0.135
0.105
0.155
-0.02
-0.045
-0.07
-0.015
0.07
0.035
-0.15
0.035
-0.07
-0.045
-0.245
0.105
0.015
-0.015
-0.14
-0.335
0.0
0.225
-0.025
-0.275
0.07
-0.125
0.0
-0.01
0.08
-0.16
0.03
0.045
-0.07
0.105
0.015
-0.105
-0.05
0.055
0.235
0.22
-0.255
-0.66
-0.465
-0.015
-0.405
0.155
0.09
-0.03
-0.025
-0.275
0.015
0.12
0.09
-0.075
-0.07
0.03
0.03
0.01
-0.005
0.03
0.15
0.19
0.115
0.08
0.155
0.18
0.09
-0.075
0.125
0.15
0.035
-0.005
0.01
-0.09
-0.07
0.025
0.105
0.07
-0.17
0.0
-0.035
0.195
0.035
-0.2
0.075
0.02
-0.02
-0.2
-0.005
0.14
-0.065
-0.29
0.03
0.005
-0.055
-0.02
-0.185
0.065
0.065
0.0
-0.26
0.095
0.075
-0.295
-0.025
0.115
0.24
0.11
-0.305
-0.53
-0.6
-0.01
0.02
-0.035
-0.09
-0.225
0.195
0.03
0.005
0.04
-0.01
0.04
0.02
-0.13
-0.06
0.18
0.145
0.085
0.08
0.09
0.085
0.13
0.125
0.06
0.12
0.135
0.075
0.075
0.05
-0.03
-0.065
0.03
0.09
0.025
0.0
0.03
-0.055
-0.125
0.17
0.08
0.04
0.01
-0.005
0.015
-0.025
0.07
0.055
0.015
-0.03
-0.005
-0.01
-0.065
-0.08
-0.045
-0.2
0.07
0.025
0.005
0.065
0.03
0.01
-0.11
-0.02
0.05
0.05
0.095
0.14
0.265
-0.165
-0.595
-0.41
-0.31
0.06
0.025
-0.02
0.02
0.01
0.015
-0.015
0.015
0.015
0.04
0.02
0.0
0.06
0.08
0.055
0.06
0.1
0.015
0.16
0.17
0.105
0.135
0.105
0.13
0.09
-0.07
-0.025
0.08
-0.085
0.005
0.03
0.0
-0.01
0.0
-0.04
0.005
0.045
0.035
0.005
0.02
0.01
-0.1
0.025
0.085
0.025
0.035
-0.01
-0.055
0.05
-0.06
-0.085
-0.07
-0.015
-0.015
-0.05
-0.055
-0.12
0.005
0.12
0.055
-0.065
-0.03
0.035
0.02
0.055
0.06
0.31
0.19
-0.475
-0.515
-0.325
-0.065
-0.04
-0.06
-0.075
-0.11
0.085
0.06
0.005
0.02
0.01
0.0
0.015
0.015
0.025
-0.04
0.08
0.115
0.095
0.035
0.14
0.125
-0.025
0.16
0.16
0.15
0.095
0.07
-0.01
-0.075
-0.045
-0.095
-0.015
0.045
0.04
-0.025
-0.025
0.02
-0.22
0.035
0.1
0.005
-0.005
-0.01
0.005
0.01
-0.15
-0.115
0.095
0.06
0.0
-0.085
-0.105
-0.185
-0.055
-0.115
0.01
0.035
-0.005
-0.075
0.02
-0.035
-0.185
0.055
0.01
0.02
0.02
0.13
0.265
-0.16
-0.635
-0.395
-0.14
-0.03
-0.14
-0.055
0.025
0.0
0.065
0.04
0.06
-0.015
0.0
0.05
0.01
-0.075
0.075
0.125
0.065
0.015
0.085
0.125
0.115
0.165
0.135
0.04
0.12
0.17
0.045
-0.04
0.07
0.05
0.0
0.0
-0.035
0.045
-0.02
0.04
0.03
0.0
-0.04
-0.04
0.045
0.025
0.035
-0.005
-0.045
-0.005
0.055
-0.01
-0.015
0.01
-0.04
0.02
0.03
-0.075
-0.155
-0.01
0.0
-0.04
0.0
0.03
0.0
-0.01
0.02
0.025
-0.035
0.025
0.01
0.015
0.015
0.355
0.105
-0.585
-0.545
-0.275
-0.025
-0.035
-0.01
-0.015
-0.035
-0.08
0.015
0.015
0.055
0.02
-0.02
-0.01
0.035
0.05
-0.06
0.075
0.115
0.105
0.095
0.14
0.125
0.09
0.125
0.185
0.115
0.105
0.01
0.025
0.015
0.01
0.035
0.0
0.015
0.005
-0.01
-0.02
0.03
-0.005
0.025
0.015
0.05
0.02
0.0
-0.075
0.065
0.045
-0.035
0.07
0.015
-0.02
0.06
0.015
-0.01
-0.005
-0.075
0.07
0.025
-0.015
-0.045
-0.105
-0.08
-0.055
0.025
0.08
0.035
0.0
-0.035
0.05
0.0
-0.02
-0.005
0.075
0.065
0.2
0.15
-0.315
-0.46
-0.38
-0.175
-0.065
0.015
0.02
-0.02
-0.015
0.02
-0.03
0.005
0.07
-0.035
-0.03
0.1
0.09
0.055
0.07
0.045
0.08
0.11
0.165
0.125
0.12
0.18
0.15
0.13
0.11
0.08
0.035
-0.04
0.065
0.03
-0.07
0.03
0.07
0.01
0.0
0.01
0.025
0.02
0.005
0.015
-0.065
0.02
0.005
0.015
0.01
0.015
0.02
-0.02
-0.04
-0.045
0.065
0.01
-0.025
0.025
0.07
0.005
-0.055
-0.055
0.03
-0.045
-0.035
0.015
0.035
-0.01
-0.045
-0.02
0.055
0.055
0.02
0.015
-0.045
0.03
0.04
0.045
0.14
0.21
-0.255
-0.5
-0.385
-0.135
-0.085
-0.105
0.02
0.035
0.02
0.01
0.01
0.035
-0.07
-0.02
0.12
0.075
0.035
0.055
0.045
0.095
0.05
-0.035
0.195
0.195
0.145
0.13
0.155
0.095
0.09
0.055
0.075
0.05
-0.025
0.025
0.02
0.02
0.025
0.02
0.03
-0.025
0.04
0.04
-0.015
0.03
0.04
0.04
0.03
-0.02
-0.055
-0.025
0.09
0.065
0.03
-0.015
-0.005
0.02
-0.015
0.005
0.0
0.025
-0.01
0.0
-0.075
-0.05
0.0
-0.025
0.0
0.025
0.02
0.025
-0.005
0.01
-0.07
0.005
0.025
0.065
0.065
0.33
0.11
-0.555
-0.565
-0.34
-0.05
-0.03
-0.01
-0.04
0.0
0.035
0.01
0.01
0.0
-0.055
-0.01
0.075
0.075
0.045
0.065
0.065
0.07
0.07
0.035
0.14
0.175
0.15
0.145
0.055
0.08
0.06
0.045
0.055
0.07
0.025
-0.055
0.015
-0.04
0.02
0.005
-0.05
0.025
0.03
0.03
0.0
-0.02
0.01
-0.03
-0.045
0.045
0.04
-0.03
-0.015
-0.005
-0.02
-0.01
0.0
-0.02
-0.035
-0.01
-0.005
-0.01
-0.06
-0.035
-0.005
-0.04
-0.045
-0.035
-0.01
-0.05
-0.005
0.0
-0.025
-0.01
0.01
0.0
-0.05
0.005
0.005
0.04
0.09
0.245
-0.065
-0.55
-0.525
-0.245
0.01
-0.045
-0.075
-0.07
-0.05
0.08
0.055
0.015
0.0
-0.01
0.015
0.015
0.025
0.0
0.05
0.065
0.065
0.1
0.125
0.115
0.075
0.14
0.15
0.095
0.06
0.075
0.06
0.01
-0.005
-0.015
0.015
0.005
-0.01
0.0
-0.02
-0.06
-0.01
0.035
0.035
0.0
0.01
0.025
0.0
-0.05
-0.04
0.035
0.035
0.02
0.005
-0.015
-0.025
0.0
-0.02
0.02
0.015
-0.01
-0.035
-0.03
-0.035
-0.045
-0.045
-0.035
-0.005
0.01
0.0
0.0
0.0
-0.005
0.015
0.01
-0.1
0.0
0.105
0.365
0.165
-0.505
-0.51
-0.325
-0.16
-0.085
0.03
0.025
-0.005
0.005
-0.005
-0.145
-0.045
0.105
0.075
0.005
-0.115
-0.01
0.115
0.115
0.09
0.05
0.04
0.19
0.15
0.115
0.1
0.195
0.125
0.035
0.105
0.07
-0.035
-0.05
-0.02
0.085
0.035
-0.09
0.07
0.06
-0.005
-0.02
0.045
-0.105
-0.03
-0.085
-0.025
0.095
0.08
0.0
0.05
0.025
-0.01
0.0
-0.01
-0.125
0.03
-0.045
-0.11
0.005
-0.16
-0.07
0.085
0.0
-0.075
0.03
-0.035
-0.005
-0.145
0.0
-0.08
0.135
0.075
0.015
0.13
0.18
-0.11
-0.65
-0.45
-0.105
-0.01
-0.085
-0.005
-0.055
-0.095
0.025
-0.03
0.055
0.075
0.015
0.005
-0.15
-0.015
0.09
0.1
0.03
0.065
0.135
0.105
0.105
0.105
0.09
0.11
0.07
0.055
0.045
-0.01
0.015
-0.01
-0.095
-0.055
0.105
0.06
0.005
0.005
0.0
0.01
0.0
-0.03
-0.08
0.09
0.09
0.07
0.0
0.01
-0.015
0.01
-0.04
-0.095
0.055
0.02
-0.06
-0.1
-0.1
-0.03
-0.045
0.045
-0.01
0.04
0.015
-0.15
-0.025
0.105
0.095
0.07
0.09
0.255
0.175
-0.665
-0.485
-0.275
-0.065
0.05
-0.035
0.02
0.025
0.025
-0.005
0.045
0.07
0.035
0.025
-0.065
0.055
0.135
0.085
0.055
0.07
0.12
0.13
0.125
0.045
0.185
0.175
0.14
0.13
0.08
0.05
0.0
0.015
-0.06
-0.02
0.065
0.045
0.0
-0.06
-0.055
-0.035
0.095
0.03
0.0
0.025
0.04
0.025
0.0
-0.065
0.06
0.075
0.045
-0.05
-0.05
-0.055
-0.135
-0.135
-0.035
0.005
0.0
-0.01
0.025
0.015
0.0
-0.02
-0.02
0.01
-0.055
0.035
0.235
0.08
-0.425
-0.505
-0.31
-0.065
-0.145
-0.01
-0.015
0.005
0.005
0.035
0.025
0.0
0.04
0.02
0.025
0.04
0.055
0.065
0.105
0.05
0.055
0.14
0.095
0.105
0.17
0.165
0.14
0.1
0.035
0.025
0.065
0.0
0.01
-0.02
-0.01
0.045
0.045
-0.1
0.015
0.095
0.03
0.01
-0.035
0.0
0.07
0.03
0.025
-0.08
-0.01
0.07
0.035
0.0
-0.055
-0.055
-0.09
-0.105
-0.13
-0.035
0.0
0.01
0.025
0.005
0.0
-0.02
-0.055
-0.03
0.0
0.02
0.07
0.215
-0.045
-0.465
-0.42
-0.19
-0.055
-0.08
-0.025
-0.005
-0.01
-0.035
-0.135
-0.07
0.045
0.06
0.075
0.01
0.005
-0.055
0.0
0.075
0.095
0.18
0.06
0.145
0.175
0.01
0.125
0.195
0.145
0.055
0.015
0.01
-0.11
0.0
-0.085
-0.005
0.05
0.045
-0.005
0.025
0.025
-0.1
0.03
0.005
0.055
-0.03
-0.11
0.08
0.04
-0.125
0.0
0.01
-0.01
-0.095
-0.08
-0.09
-0.035
-0.025
-0.155
0.035
0.075
0.02
-0.055
-0.02
-0.02
-0.07
-0.155
0.01
0.42
0.11
-0.475
-0.56
-0.34
-0.075
0.025
0.04
0.0
-0.05
-0.085
-0.015
-0.11
0.015
0.045
-0.12
0.05
0.045
0.01
-0.03
0.04
-0.02
0.07
0.07
0.07
0.09
0.145
0.12
0.035
0.095
-0.09
0.04
-0.005
-0.075
-0.005
0.01
-0.05
-0.06
-0.03
-0.075
-0.045
-0.09
-0.065
0.045
0.005
-0.055
-0.045
-0.02
0.035
0.0
-0.005
-0.005
-0.035
-0.055
-0.04
-0.085
-0.17
-0.04
0.02
0.02
0.0
0.0
0.0
-0.01
0.01
-0.105
-0.08
0.055
0.085
0.075
0.345
0.11
-0.515
-0.53
-0.3
-0.045
-0.04
-0.03
0.0
-0.02
0.01
0.0
0.005
-0.015
0.005
-0.005
-0.01
-0.025
0.065
0.04
0.045
0.0
-0.04
0.1
-0.03
0.155
0.185
0.1
0.065
0.06
0.0
-0.03
-0.005
-0.015
0.0
-0.03
-0.035
-0.015
-0.135
-0.12
0.06
0.035
0.005
-0.01
-0.02
-0.005
-0.015
-0.01
-0.005
-0.01
0.0
0.005
-0.04
-0.045
-0.06
-0.09
-0.06
-0.045
-0.01
0.0
0.0
0.005
0.0
-0.005
0.01
0.01
0.0
0.0
0.035
0.13
0.265
-0.15
-0.53
-0.465
-0.195
-0.02
-0.05
-0.01
-0.005
-0.01
-0.005
0.01
0.005
0.01
0.01
0.015
0.025
0.035
0.045
0.06
0.05
0.07
0.095
0.11
0.12
0.145
0.135
0.135
0.12
0.085
0.06
0.035
0.01
0.0
0.01
0.005
0.005
0.01
0.005
0.015
0.02
0.025
0.025
0.02
0.035
0.035
0.02
0.035
0.02
0.03
0.0
0.0
-0.03
-0.05
-0.045
-0.03
0.01
0.015
0.02
0.035
0.025
0.02
0.025
0.025
0.01
0.025
0.045
0.155
0.2
-0.24
-0.455
-0.39
-0.135
0.0
-0.03
-0.005
0.0
0.0
0.0
0.015
0.015
0.01
0.0
0.015
0.015
0.02
0.025
0.035
0.05
0.065
0.075
0.1
0.105
0.12
0.11
0.1
0.1
0.06
0.025
0.015
0.0
-0.005
-0.005
0.0
-0.005
0.0
0.0
0.0
0.005
0.005
0.005
0.01
0.01
0.02
0.01
0.015
0.01
0.01
0.015
0.01
0.0
-0.03
-0.02
-0.07
-0.05
-0.03
-0.02
0.0
0.025
0.01
0.015
0.015
0.015
0.01
0.015
0.01
0.03
0.0
0.27
0.06
-0.43
-0.365
-0.24
-0.02
-0.04
-0.025
-0.015
-0.015
0.0
-0.005
0.0
0.0
0.005
0.005
0.005
0.015
0.02
0.03
0.045
0.05
0.07
0.09
0.115
0.125
0.13
0.125
0.12
0.095
0.075
0.045
0.02
0.01
0.005
0.0
0.005
0.0
0.0
-0.005
0.0
0.0
0.0
0.0
0.0
0.0
0.0
0.0
0.01
0.0
0.0
0.0
0.0
-0.025
-0.045
-0.06
-0.06
-0.035
-0.025
-0.005
0.015
0.0
0.01
0.0
0.0
0.0
0.0
0.0
-0.01
0.015
0.045
0.255
0.105
-0.35
-0.35
-0.155
-0.035
-0.04
-0.035
-0.02
-0.02
-0.01
-0.015
-0.015
-0.01
-0.01
-0.005
0.0
0.005
0.015
0.025
0.035
0.05
0.065
0.085
0.105
0.115
0.12
0.115
0.11
0.085
0.05
0.025
0.0
-0.005
-0.01
-0.01
-0.015
-0.02
-0.015
-0.01
-0.01
-0.01
-0.005
0.0
0.0
-0.005
-0.005
0.0
0.0
0.0
0.0
-0.005
-0.005
-0.005
-0.01
-0.045
-0.04
-0.07
-0.04
-0.025
-0.025
0.0
0.0
-0.005
-0.01
-0.015
-0.015
-0.015
-0.02
-0.025
0.0
-0.01
0.31
0.17
-0.38
-0.41
-0.25
-0.05
-0.065
-0.055
-0.04
-0.04
-0.03
-0.03
-0.025
-0.025
-0.015
-0.015
-0.01
-0.005
0.01
0.02
0.03
0.05
0.065
0.08
0.1
0.105
0.12
0.115
0.11
0.09
0.06
0.035
0.01
0.0
0.0
-0.01
-0.01
-0.015
-0.015
-0.01
-0.01
-0.01
-0.005
-0.005
-0.005
0.0
0.0
-0.005
-0.005
-0.005
-0.01
-0.01
-0.02
-0.025
-0.055
-0.05
-0.08
-0.055
-0.045
-0.04
-0.005
-0.005
-0.02
-0.01
-0.015
-0.02
-0.025
-0.02
-0.025
0.0
-0.01
0.245
0.21
-0.285
-0.44
-0.34
-0.09
-0.065
-0.05
-0.035
-0.04
-0.03
-0.02
-0.01
-0.01
-0.005
-0.01
0.0
0.005
0.015
0.015
0.035
0.045
0.065
0.08
0.095
0.11
0.115
0.115
0.11
0.095
0.065
0.04
0.025
0.005
-0.005
0.0
0.0
0.0
0.0
0.005
0.0
0.005
0.005
0.0
0.01
0.01
0.005
0.01
0.01
0.015
0.01
0.01
0.0
-0.045
-0.03
-0.075
-0.05
-0.045
-0.005
0.0
0.0
0.01
0.0
0.005
0.0
0.0
0.0
0.0
0.05
0.05
0.34
0.115
-0.53
-0.49
-0.26
-0.035
-0.035
-0.02
0.0
0.0
0.0
0.005
0.01
0.01
0.02
0.02
0.025
0.025
0.045
0.045
0.055
0.065
0.08
0.095
0.11
0.12
0.13
0.12
0.115
0.09
0.06
0.03
0.02
0.0
0.0
0.0
0.0
0.0
0.0
0.0
0.0
0.005
0.005
0.005
0.02
0.01
0.01
0.015
0.005
0.01
0.01
0.005
-0.025
-0.03
-0.075
-0.065
-0.045
-0.04
0.0
0.01
0.0
0.005
0.0
0.0
0.0
0.005
0.0
0.01
0.015
0.185
0.165
-0.235
-0.415
-0.355
-0.095
-0.025
-0.035
-0.01
-0.005
0.0
-0.005
0.005
0.0
0.0
0.0
0.005
0.01
0.015
0.025
0.04
0.05
0.065
0.085
0.1
0.11
0.115
0.11
0.11
0.095
0.07
0.04
0.015
0.01
0.0
0.0
0.0
0.0
0.0
-0.005
0.0
0.0
0.01
0.01
0.015
0.015
0.02
0.015
0.015
0.02
0.01
0.01
-0.02
-0.035
-0.06
-0.065
-0.05
-0.045
0.0
0.015
0.0
0.005
0.005
0.005
0.0
0.005
0.0
0.0
0.015
0.085
0.275
0.02
-0.39
-0.385
-0.15
-0.025
-0.035
-0.015
0.0
0.0
0.005
0.01
0.005
0.01
0.01
0.02
0.02
0.025
0.035
0.035
0.055
0.075
0.085
0.1
0.12
0.13
0.13
0.13
0.11
0.095
0.055
0.03
0.015
0.01
0.005
0.005
0.005
0.0
0.0
0.0
0.005
0.005
0.0
0.005
0.015
0.01
0.005
0.01
0.01
0.005
0.005
0.005
-0.025
-0.045
-0.045
-0.05
-0.025
-0.025
0.01
0.025
0.01
0.015
0.01
0.01
0.005
0.0
0.0
0.0
0.02
0.05
0.33
0.14
-0.405
-0.415
-0.195
-0.025
-0.04
-0.025
-0.01
-0.005
-0.005
0.0
0.0
0.0
0.0
0.005
0.01
0.01
0.025
0.03
0.04
0.06
0.075
0.09
0.105
0.115
0.11
0.11
0.11
0.085
0.055
0.035
0.01
0.005
0.0
0.0
-0.005
0.0
0.0
-0.005
0.0
-0.005
0.0
0.0
0.0
0.0
0.0
0.005
0.005
0.0
0.005
0.01
0.005
-0.02
-0.02
-0.05
-0.02
-0.01
-0.005
0.015
0.03
0.015
0.015
0.01
0.005
0.01
0.01
0.0
0.015
0.01
0.2
0.275
-0.105
-0.395
-0.355
-0.1
-0.035
-0.03
-0.015
-0.005
0.005
0.0
0.0
0.0
0.0
0.0
0.01
0.01
0.015
0.025
0.04
0.05
0.06
0.08
0.095
0.1
0.11
0.11
0.11
0.095
0.075
0.04
0.015
0.005
0.0
-0.005
-0.015
-0.015
-0.02
-0.015
-0.01
-0.01
-0.005
-0.005
0.0
0.0
-0.005
-0.005
0.0
-0.005
-0.01
-0.005
-0.01
-0.025
-0.055
-0.05
-0.07
-0.045
-0.035
-0.01
0.0
0.0
-0.01
-0.005
-0.01
-0.01
-0.015
-0.015
-0.015
0.005
0.0
0.325
0.215
-0.4
-0.465
-0.285
-0.06
-0.06
-0.05
-0.04
-0.035
-0.025
-0.015
-0.015
-0.015
-0.005
-0.01
0.0
0.0
0.01
0.02
0.03
0.05
0.06
0.065
0.095
0.1
0.1
0.1
0.085
0.07
0.045
0.025
0.005
-0.005
-0.01
-0.01
-0.015
-0.025
-0.01
-0.01
-0.01
-0.005
-0.005
0.0
0.0
0.0
-0.005
0.0
0.0
0.0
-0.01
-0.04
-0.035
-0.085
-0.06
-0.065
-0.045
-0.005
0.0
-0.01
0.0
-0.005
-0.005
-0.01
-0.005
-0.015
0.01
0.025
0.225
0.24
-0.31
-0.475
-0.365
-0.12
-0.045
-0.045
-0.025
-0.02
-0.015
-0.01
-0.005
0.0
0.0
0.0
0.01
0.005
0.02
0.02
0.03
0.035
0.06
0.08
0.09
0.105
0.1
0.095
0.1
0.08
0.055
0.025
0.01
0.0
-0.01
-0.015
-0.01
-0.005
-0.015
-0.01
0.0
0.0
0.0
0.005
0.01
0.015
0.015
0.015
0.005
0.015
-0.01
-0.04
-0.045
-0.08
-0.07
-0.07
-0.02
-0.005
0.0
0.005
0.01
0.0
0.0
0.01
0.01
0.0
0.05
0.07
0.325
0.06
-0.555
-0.485
-0.24
-0.015
-0.02
-0.025
0.0
0.0
0.0
0.005
0.01
0.005
0.015
0.015
0.025
0.03
0.04
0.045
0.06
0.07
0.09
0.105
0.12
0.125
0.125
0.12
0.12
0.09
0.06
0.04
0.025
0.015
0.005
0.0
0.005
0.01
0.005
0.01
0.015
0.01
0.02
0.025
0.025
0.03
0.02
0.02
0.025
0.02
-0.005
-0.005
-0.045
-0.05
-0.035
-0.02
0.015
0.025
0.02
0.025
0.015
0.02
0.015
0.025
0.015
0.025
0.025
0.16
0.185
-0.18
-0.39
-0.34
-0.1
-0.01
-0.025
-0.01
0.0
0.0
0.0
0.0
0.0
0.005
0.005
0.005
0.015
0.02
0.025
0.04
0.04
0.06
0.075
0.09
0.095
0.11
0.1
0.1
0.08
0.065
0.035
0.015
0.005
0.01
0.0
0.0
0.0
0.0
0.0
0.005
0.005
0.005
0.005
0.015
0.01
0.02
0.02
0.02
0.015
0.02
0.005
-0.025
-0.02
-0.07
-0.05
-0.04
-0.015
0.01
0.005
0.015
0.015
0.005
0.01
0.01
0.01
0.005
0.02
0.0
0.31
0.15
-0.35
-0.365
-0.25
-0.025
-0.035
-0.03
-0.015
-0.005
0.0
0.0
0.0
0.0
0.005
0.01
0.015
0.02
0.025
0.03
0.055
0.06
0.08
0.09
0.105
0.115
0.115
0.115
0.105
0.095
0.06
0.04
0.015
0.01
0.005
0.0
0.0
-0.005
-0.01
-0.01
-0.005
0.0
0.0
0.0
0.005
0.005
0.005
0.0
0.005
0.005
0.0
-0.035
-0.03
-0.065
-0.035
-0.025
-0.01
0.015
0.005
0.0
0.01
0.0
0.0
0.0
-0.005
0.0
0.0
-0.005
0.23
0.225
-0.175
-0.365
-0.33
-0.075
-0.05
-0.045
-0.035
-0.02
-0.025
-0.015
-0.01
-0.01
-0.005
-0.01
0.005
0.0
0.015
0.015
0.03
0.04
0.055
0.075
0.09
0.095
0.105
0.1
0.095
0.085
0.05
0.025
0.005
-0.005
-0.015
-0.015
-0.02
-0.02
-0.015
-0.02
-0.015
-0.015
-0.01
-0.01
-0.005
-0.005
0.0
-0.005
0.0
0.0
-0.015
-0.03
-0.035
-0.035
-0.02
-0.03
0.0
0.015
0.0
-0.005
0.0
-0.01
-0.01
-0.015
-0.015
-0.01
0.005
-0.005
0.32
0.2
-0.375
-0.445
-0.275
-0.055
-0.06
-0.05
-0.035
-0.03
-0.015
-0.02
-0.01
-0.005
0.0
0.005
0.005
0.01
0.01
0.025
0.04
0.05
0.06
0.075
0.095
0.095
0.105
0.1
0.095
0.075
0.05
0.025
0.01
0.0
0.0
-0.01
-0.01
0.0
-0.01
0.0
0.0
0.0
0.0
0.0
0.0
0.0
-0.005
0.0
0.0
-0.005
-0.025
-0.03
-0.04
-0.025
-0.04
0.0
0.01
0.0
0.005
0.005
0.0
-0.01
-0.005
-0.02
-0.015
0.025
0.02
0.31
0.155
-0.475
-0.505
-0.305
-0.06
-0.055
-0.045
-0.02
-0.015
-0.01
-0.01
0.005
0.0
0.015
0.005
0.015
0.02
0.025
0.03
0.05
0.055
0.075
0.08
0.09
0.095
0.105
0.095
0.09
0.07
0.04
0.02
0.005
0.0
0.0
-0.005
-0.005
0.0
0.0
0.0
0.015
0.01
0.005
0.015
0.01
0.02
0.015
0.015
0.015
0.015
-0.015
-0.005
-0.05
-0.045
-0.025
0.0
0.0
0.005
0.01
0.02
0.0
0.01
0.005
0.01
0.005
0.015
0.04
0.21
0.17
-0.365
-0.46
-0.355
-0.115
-0.025
-0.03
-0.01
-0.01
0.0
0.0
0.0
0.0
0.01
0.005
0.02
0.02
0.03
0.04
0.045
0.055
0.08
0.08
0.1
0.095
0.095
0.095
0.095
0.07
0.055
0.03
0.0
0.0
-0.005
-0.005
-0.01
-0.01
-0.01
-0.01
0.0
0.0
0.005
0.005
0.01
0.02
0.015
0.015
0.01
0.01
0.015
-0.01
-0.01
-0.055
-0.05
-0.035
-0.01
0.01
0.025
0.02
0.025
0.02
0.025
0.02
0.025
0.02
0.035
0.025
0.24
0.145
-0.305
-0.36
-0.29
-0.055
-0.015
-0.015
0.0
0.0
0.01
0.01
0.005
0.01
0.01
0.015
0.02
0.02
0.03
0.04
0.05
0.055
0.075
0.09
0.11
0.105
0.11
0.105
0.1
0.09
0.06
0.03
0.015
0.01
0.005
0.0
0.0
0.0
0.0
0.0
0.005
0.0
0.005
0.0
0.01
0.005
0.005
0.005
0.005
0.0
0.0
0.0
-0.03
-0.03
-0.075
-0.05
-0.03
-0.015
0.0
0.005
0.0
0.0
0.0
-0.005
-0.005
-0.005
-0.005
0.01
-0.01
0.26
0.145
-0.3
-0.355
-0.285
-0.05
-0.045
-0.04
-0.025
-0.015
-0.01
-0.01
-0.005
-0.005
0.0
0.0
0.005
0.005
0.015
0.025
0.035
0.045
0.065
0.075
0.095
0.1
0.115
0.105
0.1
0.085
0.06
0.035
0.02
0.005
0.01
0.0
0.0
-0.005
0.0
-0.005
0.0
0.0
0.005
0.0
0.0
0.005
0.0
0.0
0.005
0.0
0.0
0.0
0.0
-0.025
-0.045
-0.045
-0.055
-0.025
-0.01
-0.005
0.01
0.0
0.0
0.0
0.0
0.0
-0.01
-0.005
-0.01
0.01
0.0
0.325
0.165
-0.395
-0.41
-0.245
-0.05
-0.06
-0.045
-0.04
-0.025
-0.025
-0.02
-0.01
-0.025
-0.02
-0.015
-0.01
-0.005
-0.005
0.005
0.015
0.025
0.05
0.06
0.075
0.08
0.09
0.09
0.075
0.06
0.035
0.01
0.0
-0.01
-0.015
-0.015
-0.02
-0.015
-0.015
-0.015
-0.01
-0.01
-0.005
0.0
0.005
0.0
0.0
-0.01
0.0
0.0
-0.005
-0.005
-0.005
-0.04
-0.035
-0.08
-0.06
-0.035
-0.03
0.0
0.0
0.0
0.0
0.0
-0.01
0.0
0.0
0.0
0.005
0.01
0.235
0.225
-0.28
-0.46
-0.34
-0.09
-0.05
-0.045
-0.025
-0.02
-0.005
-0.01
-0.005
-0.005
0.0
-0.005
0.01
0.01
0.015
0.015
0.025
0.045
0.055
0.065
0.075
0.09
0.09
0.08
0.08
0.075
0.05
0.03
0.015
0.01
0.005
-0.005
0.0
-0.005
0.0
0.0
0.01
0.01
0.01
0.015
0.015
0.005
0.015
0.025
0.01
0.005
-0.005
-0.025
-0.035
-0.07
-0.06
-0.055
-0.025
-0.005
0.01
0.0
0.005
0.0
0.005
0.0
0.005
-0.005
0.035
0.055
0.315
0.115
-0.56
-0.5
-0.275
-0.04
-0.04
-0.025
-0.01
-0.005
-0.005
0.0
0.01
0.0
0.015
0.015
0.02
0.015
0.035
0.035
0.045
0.06
0.07
0.08
0.095
0.105
0.095
0.095
0.085
0.065
0.04
0.02
0.01
0.0
0.0
0.0
0.0
0.0
0.005
0.005
0.015
0.01
0.01
0.02
0.015
0.015
0.02
0.03
0.02
0.02
0.0
-0.025
-0.03
-0.07
-0.06
-0.055
-0.01
0.0
0.01
0.01
0.015
0.015
0.015
0.01
0.01
0.005
0.055
0.065
0.32
0.03
-0.59
-0.47
-0.24
-0.01
-0.02
-0.02
0.0
0.0
0.015
0.01
0.01
0.01
0.015
0.015
0.02
0.035
0.04
0.04
0.05
0.06
0.08
0.08
0.1
0.105
0.1
0.09
0.08
0.065
0.04
0.02
0.015
0.005
0.0
-0.005
0.0
0.0
0.0
0.0
0.0
0.01
0.01
0.01
0.01
0.005
0.005
0.01
0.005
0.0
0.0
-0.03
-0.025
-0.07
-0.07
-0.06
-0.03
-0.01
0.005
0.005
0.005
0.0
0.005
0.005
0.005
0.0
0.025
0.015
0.235
0.07
-0.445
-0.4
-0.28
-0.035
-0.025
-0.025
0.0
0.0
0.0
0.0
0.005
0.01
0.015
0.005
0.015
0.01
0.025
0.02
0.04
0.045
0.065
0.075
0.085
0.095
0.1
0.1
0.09
0.065
0.055
0.03
0.015
0.01
0.015
0.01
0.005
0.005
0.005
0.01
0.005
0.015
0.02
0.02
0.02
0.025
0.025
0.025
0.02
0.025
0.02
0.025
-0.01
-0.02
-0.045
-0.05
-0.03
-0.025
0.005
0.025
0.015
0.025
0.02
0.02
0.025
0.02
0.015
0.025
0.025
0.145
0.18
-0.155
-0.375
-0.33
-0.08
-0.005
-0.01
0.0
0.0
0.015
0.015
0.015
0.015
0.02
0.02
0.025
0.025
0.03
0.03
0.045
0.05
0.075
0.08
0.095
0.11
0.11
0.11
0.105
0.09
0.07
0.045
0.025
0.01
0.01
0.0
0.0
0.0
0.0
0.0
0.0
0.0
0.01
0.01
0.015
0.02
0.015
0.02
0.015
0.015
0.02
0.01
0.005
-0.025
-0.035
-0.065
-0.05
-0.03
-0.025
0.005
0.015
0.0
0.005
0.0
0.0
0.0
0.0
-0.005
0.0
0.0
0.17
0.2
-0.115
-0.365
-0.35
-0.1
-0.05
-0.04
-0.03
-0.02
-0.015
-0.01
-0.01
-0.005
-0.01
0.0
0.0
0.0
0.005
0.02
0.03
0.04
0.06
0.07
0.08
0.09
0.095
0.095
0.09
0.075
0.055
0.03
0.01
-0.005
-0.005
-0.01
-0.01
-0.02
-0.015
-0.01
-0.01
-0.02
-0.015
-0.01
-0.01
-0.005
-0.01
-0.01
-0.005
-0.01
-0.005
-0.035
-0.045
-0.085
-0.065
-0.055
-0.055
-0.01
0.0
-0.01
-0.015
-0.015
-0.01
-0.015
-0.015
-0.02
-0.01
0.005
0.135
0.265
-0.1
-0.46
-0.41
-0.165
-0.05
-0.055
-0.045
-0.03
-0.02
-0.03
-0.005
-0.015
0.0
0.0
0.005
0.0
0.005
0.02
0.025
0.035
0.045
0.055
0.07
0.075
0.075
0.07
0.07
0.055
0.04
0.02
0.0
-0.015
-0.015
-0.015
-0.02
-0.025
-0.015
-0.01
-0.015
-0.01
-0.01
0.0
-0.005
-0.005
0.0
-0.005
0.0
-0.04
-0.035
-0.07
-0.08
-0.08
-0.065
-0.015
-0.01
-0.005
0.005
-0.01
0.0
-0.01
0.0
-0.01
-0.005
0.035
0.125
0.26
-0.13
-0.525
-0.465
-0.195
-0.03
-0.04
-0.025
-0.015
-0.015
0.0
0.0
0.0
0.01
0.0
0.005
0.01
0.015
0.02
0.03
0.04
0.055
0.07
0.08
0.09
0.095
0.09
0.08
0.065
0.055
0.015
0.005
0.0
0.0
-0.015
-0.01
-0.01
0.0
0.0
0.01
0.015
0.015
0.02
0.015
0.015
0.015
0.015
0.015
-0.01
0.0
-0.05
-0.055
-0.055
-0.035
0.0
0.015
0.01
0.02
0.005
0.005
0.005
0.015
0.01
0.03
0.04
0.21
0.155
-0.395
-0.455
-0.36
-0.12
-0.015
-0.03
-0.01
-0.01
0.0
0.0
0.01
0.0
0.01
0.01
0.02
0.02
0.03
0.03
0.05
0.055
0.06
0.075
0.09
0.085
0.095
0.085
0.08
0.055
0.035
0.015
0.005
-0.005
-0.01
-0.015
-0.01
-0.005
-0.01
-0.01
0.0
0.005
0.0
0.01
0.005
0.005
0.005
0.0
0.01
-0.01
-0.03
-0.035
-0.075
-0.07
-0.06
-0.025
0.0
0.0
0.0
0.005
0.0
0.0
0.0
0.0
0.0
0.025
0.02
0.285
0.06
-0.48
-0.405
-0.24
-0.02
-0.04
-0.025
-0.01
-0.01
0.0
-0.005
0.0
0.0
0.0
0.0
0.005
0.01
0.025
0.03
0.045
0.055
0.065
0.075
0.09
0.09
0.085
0.08
0.075
0.055
0.03
0.01
0.0
0.0
-0.01
-0.005
-0.01
-0.01
-0.01
-0.01
-0.005
-0.01
-0.005
-0.005
-0.005
-0.005
-0.005
0.0
-0.01
-0.01
-0.035
-0.055
-0.06
-0.08
-0.06
-0.055
-0.015
0.0
-0.01
0.0
0.0
-0.01
-0.005
-0.005
-0.01
0.0
0.01
0.01
0.285
0.095
-0.405
-0.38
-0.205
-0.03
-0.045
-0.035
-0.02
-0.01
-0.01
-0.01
-0.01
-0.005
-0.005
-0.005
0.0
0.005
0.01
0.015
0.03
0.04
0.06
0.075
0.08
0.1
0.095
0.09
0.09
0.065
0.035
0.015
0.005
-0.005
-0.005
-0.01
-0.005
-0.005
-0.005
-0.01
-0.005
0.0
-0.005
0.0
0.0
0.0
0.005
0.0
0.0
0.0
-0.005
-0.005
-0.005
-0.04
-0.055
-0.055
-0.055
-0.04
-0.03
0.0
0.015
0.0
0.0
0.005
0.0
0.0
0.0
0.0
-0.015
0.01
0.035
0.305
0.11
-0.4
-0.405
-0.19
-0.035
-0.04
-0.025
-0.02
-0.005
-0.005
-0.01
-0.005
-0.01
-0.005
-0.005
0.0
0.01
0.015
0.015
0.035
0.04
0.06
0.08
0.085
0.09
0.09
0.09
0.085
0.065
0.04
0.02
0.0
0.0
-0.015
-0.015
-0.02
-0.02
-0.015
-0.01
-0.005
0.0
0.0
0.0
0.0
0.0
0.0
0.0
0.0
0.0
-0.005
-0.005
-0.01
0.0
0.0
-0.005
-0.03
-0.045
-0.045
-0.045
-0.04
-0.035
-0.015
0.01
-0.01
0.0
0.0
-0.015
-0.015
-0.01
-0.015
-0.02
0.005
0.08
0.295
0.015
-0.46
-0.435
-0.18
-0.045
-0.055
-0.04
-0.025
-0.01
-0.015
-0.005
-0.005
-0.005
0.0
0.005
0.01
0.015
0.03
0.035
0.035
0.05
0.06
0.075
0.075
0.095
0.085
0.09
0.085
0.055
0.04
0.015
0.0
0.005
0.0
-0.01
-0.005
-0.005
0.0
0.0
0.0
0.005
0.005
0.01
0.0
0.01
0.005
0.0
0.0
0.0
0.0
0.005
0.0
0.0
-0.015
-0.04
-0.03
-0.07
-0.045
-0.035
-0.015
0.0
0.005
0.0
0.015
0.0
0.0
0.0
0.0
-0.005
0.04
0.045
0.335
0.105
-0.565
-0.51
-0.275
-0.045
-0.04
-0.03
-0.01
-0.005
0.0
0.0
0.005
0.0
0.005
0.015
0.025
0.035
0.03
0.04
0.045
0.065
0.075
0.08
0.1
0.095
0.095
0.09
0.08
0.06
0.05
0.01
0.01
0.015
0.0
-0.01
0.01
0.01
0.005
0.005
0.015
0.025
0.03
0.03
0.025
0.03
0.025
0.035
0.03
0.03
0.015
0.005
-0.025
0.0
-0.075
-0.065
-0.04
-0.02
0.01
0.015
0.015
0.03
0.02
0.02
0.025
0.025
0.01
0.06
0.065
0.295
0.11
-0.565
-0.46
-0.285
-0.055
-0.005
-0.01
0.005
0.005
0.02
0.01
0.01
0.005
0.02
0.02
0.03
0.02
0.045
0.045
0.05
0.055
0.08
0.095
0.105
0.1
0.115
0.095
0.09
0.07
0.05
0.02
0.005
0.0
0.0
0.0
0.0
0.0
0.0
0.0
0.005
0.005
0.01
0.015
0.015
0.015
0.02
0.015
0.01
0.01
0.005
0.01
-0.025
-0.025
-0.07
-0.06
-0.055
-0.03
-0.005
0.015
0.01
0.01
0.005
0.015
0.01
0.005
0.0
0.025
0.025
0.22
0.11
-0.38
-0.395
-0.32
-0.07
-0.025
-0.025
-0.01
-0.005
0.0
0.0
0.01
0.0
0.005
0.0
0.015
0.015
0.025
0.035
0.04
0.05
0.07
0.075
0.085
0.09
0.09
0.085
0.075
0.05
0.035
0.015
0.005
0.0
0.0
-0.005
-0.005
0.0
0.005
0.0
0.0
0.005
0.01
0.005
0.015
0.01
0.01
0.01
0.005
0.01
0.005
0.01
0.0
-0.02
-0.045
-0.055
-0.07
-0.055
-0.045
0.0
0.01
-0.005
0.0
0.005
-0.005
0.0
0.0
-0.005
-0.01
0.015
0.035
0.275
0.03
-0.46
-0.41
-0.21
-0.035
-0.045
-0.03
-0.02
-0.015
-0.005
0.0
0.0
0.0
0.005
0.0
0.015
0.01
0.025
0.03
0.045
0.06
0.07
0.085
0.095
0.1
0.1
0.095
0.085
0.065
0.045
0.03
0.015
0.01
0.0
0.0
0.0
0.0
0.0
0.005
0.0
0.0
0.01
0.01
0.01
0.005
0.01
0.005
0.01
0.0
0.01
0.005
0.0
-0.025
-0.045
-0.055
-0.065
-0.035
-0.04
0.0
0.005
0.0
0.0
0.0
-0.005
-0.005
-0.005
-0.005
-0.01
0.005
0.025
0.31
0.085
-0.44
-0.42
-0.215
-0.04
-0.05
-0.04
-0.03
-0.02
-0.02
-0.005
-0.01
-0.005
0.0
0.0
0.005
0.015
0.02
0.03
0.035
0.055
0.07
0.08
0.095
0.1
0.11
0.095
0.095
0.075
0.055
0.025
0.01
0.01
0.0
0.0
0.0
0.0
0.0
0.0
0.005
0.0
0.0
0.005
0.005
0.0
0.0
0.0
0.005
0.0
0.0
0.0
0.0
-0.005
-0.045
-0.04
-0.075
-0.05
-0.035
-0.025
0.005
0.01
0.005
0.0
0.01
0.0
0.0
0.0
-0.005
0.0
0.01
0.13
0.265
-0.045
-0.41
-0.39
-0.15
-0.04
-0.045
-0.025
-0.02
-0.02
-0.015
-0.015
-0.005
-0.01
-0.005
0.0
0.0
0.015
0.01
0.02
0.035
0.05
0.06
0.08
0.09
0.09
0.085
0.085
0.085
0.06
0.035
0.015
0.0
-0.005
-0.01
-0.005
-0.015
-0.015
-0.005
-0.01
-0.005
-0.005
0.0
0.0
0.0
0.0
0.0
-0.005
0.0
0.0
0.0
0.0
-0.005
-0.01
-0.005
-0.035
-0.04
-0.06
-0.055
-0.03
-0.03
0.0
0.01
0.005
0.01
0.0
0.0
-0.005
0.0
-0.01
0.0
0.02
0.135
0.295
-0.075
-0.475
-0.425
-0.17
-0.035
-0.045
-0.025
-0.015
-0.005
-0.01
0.0
0.0
0.0
0.01
0.01
0.015
0.02
0.03
0.045
0.05
0.065
0.065
0.085
0.09
0.09
0.095
0.09
0.07
0.05
0.04
0.01
0.0
0.0
-0.015
-0.01
-0.005
-0.01
-0.005
0.0
0.0
0.005
-0.005
0.01
0.02
0.01
0.01
0.01
0.0
0.005
0.0
0.015
-0.035
-0.03
-0.065
-0.07
-0.055
-0.04
0.0
0.0
0.0
0.015
0.0
0.0
0.0
0.005
0.0
0.0
0.04
0.165
0.245
-0.22
-0.515
-0.44
-0.175
-0.02
-0.035
-0.025
-0.015
0.0
-0.005
0.01
0.0
0.015
0.005
0.02
0.015
0.03
0.04
0.045
0.045
0.06
0.08
0.085
0.095
0.1
0.09
0.085
0.07
0.05
0.03
0.01
0.0
-0.005
-0.01
-0.01
-0.005
0.0
-0.005
0.0
0.01
0.015
0.005
0.01
0.01
0.005
0.005
0.005
0.005
0.01
0.01
-0.015
-0.035
-0.05
-0.075
-0.075
-0.05
-0.005
0.0
0.0
0.01
0.02
0.01
0.015
0.01
0.015
0.015
0.06
0.105
0.31
-0.02
-0.55
-0.455
-0.195
0.01
-0.005
0.0
0.01
0.015
0.025
0.025
0.03
0.025
0.035
0.03
0.03
0.045
0.05
0.045
0.07
0.075
0.075
0.09
0.105
0.105
0.105
0.095
0.075
0.065
0.03
0.015
0.005
0.0
-0.005
-0.005
-0.005
0.0
0.0
0.0
0.0
0.005
0.01
0.01
0.01
0.005
0.01
0.01
0.0
0.005
0.005
0.0
0.0
-0.035
-0.03
-0.075
-0.06
-0.04
-0.015
0.005
0.015
0.01
0.02
0.005
0.005
0.01
0.01
0.01
0.025
0.015
0.27
0.095
-0.425
-0.405
-0.29
-0.035
-0.025
-0.015
0.0
0.0
0.015
0.005
0.01
0.01
0.02
0.015
0.03
0.025
0.03
0.04
0.055
0.06
0.08
0.08
0.095
0.095
0.105
0.1
0.085
0.065
0.045
0.02
0.015
0.0
0.005
0.0
0.0
0.0
0.005
0.005
0.0
0.005
0.01
0.01
0.01
0.015
0.01
0.015
0.005
0.005
0.015
0.005
0.0
0.005
-0.025
-0.04
-0.075
-0.065
-0.035
-0.02
0.005
0.025
0.01
0.01
0.005
0.0
0.01
0.005
0.0
0.0
0.005
0.15
0.2
-0.135
-0.39
-0.355
-0.105
-0.035
-0.035
-0.02
-0.015
-0.005
-0.005
0.0
0.0
0.0
0.0
0.01
0.01
0.02
0.035
0.035
0.045
0.065
0.08
0.095
0.1
0.105
0.105
0.1
0.08
0.06
0.035
0.015
0.01
0.0
0.0
-0.005
-0.005
0.0
-0.01
0.0
0.0
0.0
0.005
0.005
0.0
0.0
0.0
0.0
0.0
0.0
-0.005
0.0
-0.01
-0.04
-0.035
-0.08
-0.05
-0.035
-0.015
0.0
0.0
0.0
0.0
0.0
-0.005
-0.005
0.0
-0.01
0.0
0.0
0.2
0.21
-0.19
-0.4
-0.345
-0.095
-0.05
-0.055
-0.025
-0.025
-0.015
-0.015
-0.005
-0.01
-0.005
-0.005
0.0
0.005
0.005
0.02
0.035
0.04
0.06
0.075
0.085
0.095
0.105
0.1
0.095
0.085
0.06
0.03
0.015
0.0
-0.005
-0.01
-0.005
-0.005
-0.015
-0.005
0.0
0.0
0.0
0.0
0.0
0.005
0.005
0.005
0.0
0.005
0.0
0.005
-0.005
-0.04
-0.035
-0.075
-0.055
-0.05
-0.03
0.0
0.0
0.0
0.0
-0.01
-0.015
-0.015
-0.01
-0.02
-0.015
0.0
0.135
0.27
-0.045
-0.425
-0.395
-0.145
-0.055
-0.05
-0.035
-0.02
-0.015
-0.01
-0.01
-0.015
-0.005
-0.01
-0.005
0.0
0.005
0.01
0.02
0.02
0.045
0.055
0.065
0.075
0.085
0.07
0.07
0.065
0.04
0.015
0.0
0.0
-0.01
-0.015
-0.02
-0.02
-0.01
-0.015
-0.005
-0.005
-0.005
-0.005
-0.005
0.005
0.005
0.0
0.0
0.0
0.0
0.005
-0.02
-0.03
-0.06
-0.065
-0.055
-0.055
0.0
0.005
0.0
0.0
0.0
0.005
0.01
0.01
0.005
0.0
0.055
0.09
0.36
0.07
-0.54
-0.49
-0.225
-0.01
-0.02
-0.005
0.0
0.0
0.01
0.015
0.015
0.025
0.015
0.035
0.03
0.035
0.045
0.05
0.055
0.06
0.08
0.09
0.1
0.095
0.105
0.095
0.075
0.05
0.035
0.005
-0.005
-0.01
-0.01
-0.02
-0.02
-0.015
-0.015
-0.005
-0.005
0.0
0.005
0.0
0.01
-0.005
0.0
0.0
0.0
-0.005
-0.015
-0.01
-0.01
-0.01
-0.015
-0.005
-0.005
-0.005
-0.005
0.0
0.0
0.0
0.005
0.0
0.005
0.005
0.005
0.015
0.01
0.01
0.01
0.01
0.01
0.015
0.005
0.01
0.005
0.01
0.005
0.01
-0.01
-0.015
-0.015
-0.02
-0.005
-0.015
0.03
0.01
0.01
0.015
0.015
0.005
0.005
0.005
0.005
0.005
0.035
0.055
0.245
-0.01
-0.555
-0.45
-0.24
-0.045
-0.025
-0.025
-0.01
-0.005
0.0
0.005
0.005
0.01
0.015
0.015
0.015
0.02
0.025
0.025
0.025
0.035
0.04
0.045
0.05
0.06
0.065
0.07
0.075
0.07
0.06
0.04
0.02
0.01
0.0
-0.005
-0.005
-0.005
-0.01
-0.005
-0.01
-0.005
-0.01
-0.01
-0.005
0.0
0.0
0.0
0.0
0.005
0.01
0.01
0.005
0.015
0.01
0.015
0.01
0.02
0.015
0.015
0.015
0.02
0.015
0.02
0.015
0.015
0.015
0.0
-0.01
0.015
0.005
0.0
0.01
0.03
0.025
0.025
0.03
0.025
0.015
0.01
0.01
0.01
0.01
0.035
0.05
0.245
0.025
-0.485
-0.45
-0.255
-0.06
-0.015
-0.025
-0.01
0.0
0.005
0.005
0.01
0.005
0.01
0.015
0.02
0.015
0.025
0.02
0.03
0.03
0.035
0.045
0.05
0.06
0.07
0.075
0.075
0.075
0.065
0.05
0.03
0.005
0.0
-0.005
-0.005
-0.01
-0.005
-0.01
-0.005
-0.005
-0.005
-0.005
0.0
0.0
0.0
0.0
0.005
0.0
0.005
0.005
0.01
0.005
0.005
0.01
0.01
0.01
0.01
0.01
0.015
0.005
0.015
0.01
0.015
0.01
0.01
0.01
0.015
0.0
-0.005
0.035
0.0
0.0
0.015
0.03
0.015
0.015
0.015
0.005
0.005
0.0
0.0
0.0
0.0
0.025
0.125
0.18
-0.215
-0.535
-0.375
-0.155
0.0
-0.04
-0.03
-0.015
-0.01
-0.005
0.0
0.0
0.005
0.01
0.01
0.01
0.015
0.02
0.02
0.025
0.03
0.035
0.045
0.055
0.055
0.06
0.065
0.065
0.06
0.045
0.03
0.015
0.0
-0.005
-0.01
-0.01
-0.01
-0.01
-0.01
-0.01
-0.005
-0.01
-0.005
-0.005
-0.005
0.0
0.0
0.0
0.0
0.0
0.0
0.0
0.005
0.005
0.005
0.01
0.01
0.01
0.015
0.01
0.015
0.01
0.01
0.015
0.01
0.01
0.01
0.01
-0.01
0.015
0.015
-0.005
0.02
0.03
0.02
0.015
0.015
0.015
0.01
0.005
0.005
0.0
0.005
0.015
0.035
0.2
0.06
-0.4
-0.46
-0.29
-0.085
-0.015
-0.03
-0.02
-0.01
0.0
0.0
0.005
0.005
0.01
0.01
0.015
0.02
0.015
0.02
0.03
0.035
0.035
0.045
0.05
0.06
0.065
0.065
0.07
0.07
0.06
0.05
0.03
0.01
0.0
-0.005
-0.01
-0.015
-0.01
-0.01
-0.01
-0.01
-0.005
-0.005
-0.005
0.0
-0.005
0.0
0.0
0.0
0.0
0.005
0.0
0.005
0.005
0.005
0.0
0.01
0.005
0.01
0.01
0.01
0.005
0.01
0.01
0.01
0.005
0.01
0.01
0.01
0.005
0.01
0.005
-0.015
0.04
0.0
-0.005
0.02
0.045
0.015
0.02
0.015
0.01
0.005
0.005
0.005
0.0
0.0
0.04
0.1
0.225
-0.135
-0.56
-0.395
-0.165
0.0
-0.04
-0.02
-0.01
0.0
0.0
0.0
0.005
0.01
0.01
0.01
0.02
0.025
0.03
0.025
0.035
0.035
0.045
0.05
0.06
0.065
0.07
0.075
0.075
0.075
0.06
0.04
0.02
0.005
0.0
-0.005
-0.005
-0.005
-0.005
-0.005
0.0
-0.005
0.0
-0.005
0.0
0.0
0.005
0.005
0.005
0.005
0.005
0.005
0.005
0.005
0.01
0.01
0.005
0.01
0.01
0.015
0.01
0.015
0.015
0.01
0.015
0.01
0.015
0.015
0.015
0.01
0.015
0.015
0.015
0.015
0.0
0.02
0.025
0.0
0.025
0.035
0.03
0.02
0.025
0.025
0.015
0.01
0.01
0.005
0.0
0.035
0.05
0.255
-0.04
-0.545
-0.425
-0.225
-0.03
-0.03
-0.03
-0.015
-0.01
0.0
0.0
0.0
0.0
0.005
0.005
0.01
0.015
0.02
0.015
0.025
0.025
0.03
0.04
0.05
0.055
0.06
0.07
0.065
0.065
0.05
0.04
0.02
0.005
-0.005
-0.01
-0.01
-0.005
-0.005
-0.005
-0.01
-0.005
-0.01
-0.005
-0.005
0.0
0.0
0.0
0.0
0.0
0.005
0.005
0.005
0.005
0.01
0.01
0.005
0.01
0.01
0.015
0.01
0.01
0.015
0.01
0.015
0.01
0.01
0.015
0.015
0.01
0.015
0.01
0.01
0.005
0.0
0.035
0.0
0.01
0.025
0.04
0.02
0.02
0.025
0.01
0.005
0.005
0.005
0.0
0.025
0.04
0.21
0.02
-0.445
-0.455
-0.28
-0.075
-0.025
-0.035
-0.02
-0.01
-0.005
-0.005
0.0
0.0
0.005
0.005
0.005
0.01
0.015
0.02
0.025
0.035
0.035
0.045
0.05
0.055
0.06
0.07
0.065
0.065
0.055
0.04
0.02
0.005
-0.01
-0.01
-0.02
-0.01
-0.015
-0.01
-0.015
-0.005
-0.01
-0.005
-0.005
-0.005
-0.005
0.0
0.0
0.005
0.0
0.0
0.0
0.005
0.0
0.005
0.0
0.01
0.005
0.01
0.01
0.005
0.005
0.01
0.005
0.01
0.005
0.01
0.0
0.01
0.0
0.01
0.005
-0.01
0.035
0.0
-0.01
0.03
0.04
0.015
0.01
0.02
0.005
0.005
0.0
0.005
0.0
0.01
0.035
0.165
0.09
-0.325
-0.49
-0.325
-0.12
-0.005
-0.04
-0.02
-0.01
0.0
0.0
0.005
0.005
0.005
0.01
0.015
0.01
0.025
0.02
0.03
0.03
0.04
0.04
0.055
0.055
0.065
0.065
0.075
0.065
0.06
0.045
0.03
0.01
0.0
0.0
-0.005
-0.01
-0.005
-0.01
0.0
-0.005
0.0
-0.005
0.0
0.0
0.0
0.0
0.005
0.005
0.01
0.01
0.015
0.015
0.01
0.015
0.015
0.015
0.015
0.015
0.015
0.01
0.01
0.01
0.015
0.015
0.015
0.01
0.015
0.01
0.01
0.01
-0.01
0.025
0.015
-0.01
0.025
0.03
0.02
0.015
0.02
0.015
0.01
0.005
0.005
0.0
0.0
0.04
0.09
0.24
-0.115
-0.59
-0.42
-0.18
-0.005
-0.045
-0.025
-0.015
-0.01
-0.005
-0.005
0.0
0.0
0.0
0.005
0.005
0.01
0.015
0.02
0.02
0.025
0.03
0.04
0.045
0.055
0.055
0.06
0.06
0.055
0.04
0.025
0.005
-0.005
-0.015
-0.015
-0.02
-0.015
-0.02
-0.01
-0.02
-0.01
-0.015
-0.01
-0.01
-0.005
-0.005
0.0
0.0
0.005
0.0
0.01
0.005
0.005
0.005
0.01
0.005
0.01
0.005
0.015
0.01
0.01
0.0
0.015
0.0
0.01
0.005
0.01
0.01
0.01
0.005
-0.015
0.02
0.01
-0.01
0.02
0.035
0.025
0.02
0.025
0.015
0.01
0.005
0.0
0.0
0.0
0.035
0.065
0.255
-0.06
-0.59
-0.43
-0.21
-0.01
-0.035
-0.025
-0.02
-0.005
0.0
0.0
0.0
0.0
0.005
0.01
0.01
0.015
0.015
0.02
0.02
0.03
0.035
0.045
0.05
0.06
0.06
0.07
0.075
0.07
0.055
0.045
0.015
0.0
-0.005
0.0
-0.01
-0.005
-0.01
-0.005
-0.01
-0.005
-0.01
-0.005
-0.005
0.0
-0.005
0.0
0.0
0.005
0.0
0.01
0.005
0.01
0.005
0.015
0.01
0.01
0.0
0.015
0.005
0.01
0.005
0.015
0.005
0.01
0.005
0.01
0.005
0.015
0.005
0.015
0.005
0.015
0.005
-0.005
0.03
0.005
-0.02
0.025
0.04
0.015
0.01
0.02
0.005
0.01
0.0
0.005
0.0
0.0
0.03
0.11
0.185
-0.175
-0.54
-0.38
-0.15
0.0
-0.045
-0.02
-0.02
0.0
0.0
0.0
0.0
0.01
0.01
0.015
0.01
0.02
0.02
0.025
0.025
0.035
0.035
0.05
0.05
0.06
0.065
0.07
0.07
0.065
0.045
0.03
0.005
0.0
-0.01
-0.005
-0.015
-0.015
-0.01
-0.01
-0.015
-0.01
-0.015
-0.005
-0.01
-0.01
-0.01
0.0
-0.005
0.0
-0.005
0.0
-0.005
0.005
0.0
0.005
0.0
0.0
0.0
0.005
0.0
0.01
0.0
0.01
0.0
0.005
0.0
0.01
0.0
0.01
0.0
0.01
0.0
0.01
0.0
0.01
0.0
-0.005
0.03
0.0
-0.01
0.02
0.03
0.025
0.01
0.02
0.005
0.005
0.0
0.005
0.0
0.025
0.035
0.225
0.005
-0.455
-0.44
-0.26
-0.07
-0.015
-0.035
-0.015
-0.02
0.0
-0.005
0.0
0.0
0.01
0.0
0.01
0.005
0.015
0.01
0.025
0.02
0.035
0.03
0.045
0.045
0.065
0.055
0.065
0.055
0.055
0.025
0.015
-0.005
-0.01
-0.02
-0.02
-0.03
-0.015
-0.03
-0.02
-0.035
-0.02
-0.025
-0.02
-0.025
-0.015
-0.02
-0.015
-0.015
-0.01
-0.015
-0.005
-0.01
0.0
-0.01
0.0
-0.01
0.0
-0.01
0.0
-0.005
0.0
-0.01
0.0
-0.005
0.0
-0.005
0.0
-0.005
0.0
-0.005
0.0
-0.005
0.0
-0.005
-0.025
0.015
-0.01
-0.025
0.01
0.025
0.005
0.0
0.005
-0.005
0.0
-0.01
0.0
-0.015
0.005
0.01
0.185
0.025
-0.405
-0.46
-0.295
-0.1
-0.025
-0.05
-0.025
-0.03
-0.015
-0.02
-0.005
-0.015
-0.005
-0.005
0.005
0.0
0.01
0.005
0.015
0.01
0.025
0.02
0.04
0.04
0.055
0.05
0.06
0.05
0.055
0.03
0.015
-0.005
-0.01
-0.025
-0.02
-0.03
-0.02
-0.02
-0.02
-0.025
-0.02
-0.025
-0.015
-0.02
-0.015
-0.02
-0.01
-0.015
-0.005
-0.01
-0.005
-0.01
-0.005
-0.01
-0.01
-0.015
-0.005
-0.01
-0.005
-0.015
-0.005
-0.01
-0.005
-0.01
-0.005
-0.005
-0.005
-0.015
-0.005
-0.01
-0.01
-0.01
-0.015
-0.025
0.015
-0.025
-0.015
0.0
0.015
0.0
0.0
0.0
-0.005
-0.01
-0.01
-0.015
-0.01
0.01
0.03
0.235
-0.035
-0.545
-0.435
-0.25
-0.045
-0.05
-0.04
-0.035
-0.025
-0.02
-0.015
-0.01
0.0
0.0
0.005
0.01
0.015
0.015
0.025
0.03
0.04
0.04
0.055
0.055
0.065
0.065
0.075
0.07
0.075
0.06
0.05
0.025
0.015
0.0
0.0
0.0
0.0
0.0
0.005
0.0
0.0
0.0
0.01
0.0
0.01
0.005
0.015
0.005
0.015
0.005
0.015
0.005
0.015
0.005
0.015
0.005
0.02
0.005
0.02
0.01
0.02
0.005
0.015
0.005
0.01
0.0
0.01
0.0
-0.02
0.03
0.0
-0.015
0.02
0.035
0.015
0.01
0.015
0.0
0.0
0.0
0.0
-0.005
0.0
0.015
0.145
0.105
-0.275
-0.495
-0.33
-0.125
-0.01
-0.045
-0.03
-0.02
-0.005
-0.01
0.0
0.0
0.005
0.005
0.01
0.01
0.015
0.015
0.025
0.02
0.035
0.035
0.045
0.05
0.065
0.065
0.075
0.065
0.07
0.045
0.03
0.005
0.0
-0.01
-0.01
-0.015
-0.01
-0.015
-0.005
-0.015
-0.005
-0.01
-0.01
-0.015
-0.005
-0.005
-0.005
-0.01
0.0
-0.005
0.0
0.0
0.0
0.0
0.0
0.0
0.0
0.0
0.005
0.0
0.01
0.0
0.0
0.0
-0.005
-0.03
0.035
-0.01
-0.01
0.005
0.03
0.0
0.01
0.005
0.005
-0.005
0.0
0.0
0.0
-0.005
0.02
0.12
0.145
-0.23
-0.495
-0.35
-0.13
-0.02
-0.045
-0.035
-0.02
-0.02
-0.005
-0.005
0.0
0.0
0.005
0.0
0.01
0.01
0.02
0.015
0.025
0.025
0.035
0.04
0.06
0.06
0.07
0.07
0.07
0.06
0.05
0.025
0.01
-0.01
-0.005
-0.02
-0.01
-0.02
-0.01
-0.015
-0.015
-0.015
-0.01
-0.015
-0.005
-0.015
-0.005
-0.01
0.0
-0.005
0.0
-0.005
0.005
0.0
0.005
0.0
0.01
0.0
0.015
0.005
0.01
0.0
0.01
0.0
0.01
0.0
0.01
-0.01
-0.02
0.03
-0.005
-0.01
0.02
0.035
0.015
0.01
0.015
0.0
0.005
0.0
0.0
-0.01
-0.005
0.015
0.045
0.245
-0.065
-0.555
-0.405
-0.2
-0.015
-0.05
-0.035
-0.025
-0.02
-0.015
-0.005
-0.01
-0.005
0.0
0.0
0.0
0.005
0.01
0.015
0.015
0.025
0.03
0.035
0.04
0.055
0.055
0.065
0.065
0.065
0.05
0.035
0.005
0.0
-0.015
-0.02
-0.03
-0.025
-0.02
-0.02
-0.025
-0.025
-0.025
-0.025
-0.02
-0.02
-0.025
-0.015
-0.02
-0.015
-0.02
-0.015
-0.015
-0.01
-0.015
-0.01
-0.015
-0.01
-0.01
-0.005
-0.01
-0.005
-0.005
-0.005
-0.015
-0.01
-0.01
-0.005
-0.01
-0.005
-0.01
-0.035
-0.015
0.0
-0.025
-0.005
0.0
0.005
0.0
0.0
-0.005
-0.005
-0.015
-0.015
-0.015
-0.015
-0.015
-0.01
0.0
0.085
0.135
-0.225
-0.54
-0.375
-0.15
-0.025
-0.06
-0.035
-0.035
-0.025
-0.02
-0.015
-0.01
-0.01
0.0
0.0
0.0
0.01
0.01
0.01
0.015
0.025
0.02
0.025
0.035
0.045
0.045
0.05
0.05
0.04
0.03
0.005
-0.015
-0.02
-0.035
-0.03
-0.03
-0.03
-0.035
-0.02
-0.025
-0.03
-0.02
-0.025
-0.02
-0.01
-0.02
-0.01
-0.015
-0.01
-0.015
-0.01
-0.015
-0.005
-0.01
-0.005
0.0
-0.005
0.0
0.0
-0.005
0.0
-0.005
0.0
0.0
0.0
-0.005
0.005
-0.01
-0.02
0.005
-0.01
-0.02
0.005
0.015
0.015
0.015
0.01
0.01
0.005
0.0
0.0
0.0
0.005
0.005
0.01
0.005
0.0
0.0
0.005
-0.005
-0.005
-0.005
-0.005
-0.005
-0.01
-0.005
0.0
0.0
-0.005
0.0
0.005
0.0
0.0
0.005
0.0
0.05
0.065
0.18
-0.28
-0.775
-0.455
-0.16
0.015
-0.035
-0.005
0.0
0.005
0.03
0.025
0.02
0.03
0.04
0.03
0.045
0.03
0.045
0.05
0.065
0.06
0.055
0.075
0.08
0.09
0.09
0.1
0.085
0.1
0.085
0.045
0.04
0.02
0.005
0.0
0.005
0.0
0.0
0.0
0.0
0.0
-0.005
0.0
0.015
0.01
-0.015
0.01
-0.035
-0.035
-0.005
-0.005
0.01
0.015
0.01
0.02
0.015
0.01
0.005
0.01
0.01
0.01
0.005
0.005
0.0
0.0
0.0
0.005
0.0
0.005
0.0
0.005
0.0
0.015
0.005
0.015
0.015
0.01
0.015
0.02
0.015
0.035
0.05
0.165
-0.04
-0.575
-0.535
-0.3
-0.035
0.0
-0.025
0.0
0.0
0.015
0.01
0.015
0.005
0.02
0.01
0.015
0.02
0.025
0.02
0.03
0.03
0.045
0.045
0.05
0.055
0.075
0.07
0.07
0.07
0.05
0.03
0.005
-0.015
-0.02
-0.03
-0.025
-0.025
-0.015
-0.02
-0.015
-0.01
-0.015
-0.01
-0.015
-0.015
-0.025
-0.03
-0.03
-0.075
-0.06
-0.03
-0.03
-0.01
-0.005
-0.005
-0.01
-0.01
-0.01
-0.01
-0.015
-0.01
-0.01
-0.01
-0.02
-0.015
-0.02
-0.025
-0.025
-0.03
-0.025
-0.03
-0.035
-0.035
-0.03
-0.03
-0.03
-0.03
-0.03
-0.035
-0.005
0.03
-0.01
-0.36
-0.565
-0.33
-0.11
-0.03
-0.045
-0.03
-0.02
-0.02
-0.015
-0.015
-0.015
-0.015
-0.01
-0.01
-0.005
0.0
-0.005
0.0
0.0
0.005
0.01
0.02
0.03
0.03
0.035
0.035
0.03
0.02
0.0
-0.015
-0.04
-0.045
-0.045
-0.035
-0.035
-0.03
-0.03
-0.02
-0.025
-0.03
-0.025
-0.03
-0.02
-0.02
-0.025
-0.035
-0.03
-0.055
-0.06
-0.06
-0.03
-0.005
-0.015
-0.005
0.0
-0.005
-0.005
-0.005
-0.005
0.0
-0.005
0.0
-0.005
-0.005
-0.01
-0.005
-0.01
-0.01
-0.015
-0.015
-0.015
-0.01
-0.01
-0.01
-0.01
-0.01
-0.005
-0.005
0.01
0.095
0.005
-0.32
-0.49
-0.285
-0.06
-0.01
-0.02
-0.005
0.0
0.0
0.0
0.005
0.01
0.01
0.01
0.01
0.01
0.01
0.015
0.015
0.02
0.03
0.03
0.04
0.045
0.055
0.06
0.06
0.055
0.045
0.03
0.005
-0.01
-0.015
-0.02
-0.015
-0.015
-0.005
-0.005
-0.005
-0.005
0.0
-0.005
0.0
-0.005
0.0
0.0
-0.005
-0.015
-0.01
-0.05
-0.025
-0.035
-0.01
0.005
0.005
0.01
0.0
0.0
0.0
0.0
0.0
0.0
0.0
0.005
0.005
0.0
0.0
0.0
0.0
0.0
0.0
-0.005
0.0
0.0
0.0
0.0
0.0
0.01
0.005
0.0
0.035
0.085
0.1
-0.32
-0.605
-0.335
-0.07
0.02
0.0
0.0
0.015
0.02
0.03
0.03
0.035
0.035
0.04
0.04
0.045
0.035
0.04
0.045
0.05
0.05
0.055
0.06
0.075
0.07
0.075
0.09
0.08
0.065
0.055
0.025
0.01
-0.005
0.005
0.005
0.0
0.01
0.01
0.01
0.015
0.015
0.02
0.02
0.02
0.0
0.0
-0.04
-0.045
-0.05
-0.045
-0.03
0.015
0.015
0.03
0.04
0.04
0.035
0.04
0.04
0.035
0.035
0.035
0.035
0.04
0.03
0.03
0.035
0.03
0.03
0.035
0.035
0.03
0.03
0.04
0.04
0.035
0.045
0.04
0.035
0.04
0.08
0.09
0.24
-0.145
-0.715
-0.455
-0.18
0.015
0.0
0.01
0.04
0.03
0.025
0.045
0.04
0.05
0.05
0.05
0.07
0.07
0.07
0.075
0.09
0.08
0.095
0.12
0.115
0.135
0.135
0.14
0.125
0.15
0.125
0.095
0.1
0.06
0.08
0.05
0.045
0.06
0.05
0.075
0.04
0.04
0.0
-0.025
-0.015
-0.01
-0.06
0.025
0.035
0.06
0.055
0.06
0.055
0.065
0.06
0.055
0.05
0.05
0.06
0.065
0.055
0.06
0.06
0.055
0.05
0.055
0.055
0.06
0.045
0.055
0.05
0.06
0.055
0.065
0.045
0.06
0.045
0.08
0.09
0.195
-0.03
-0.56
-0.505
-0.285
-0.02
0.04
0.02
0.03
0.04
0.055
0.05
0.06
0.05
0.06
0.05
0.055
0.055
0.06
0.055
0.075
0.065
0.08
0.08
0.095
0.1
0.105
0.095
0.12
0.1
0.105
0.065
0.06
0.025
0.03
0.0
0.02
0.015
-0.005
-0.005
-0.055
-0.06
-0.055
-0.075
-0.065
0.0
0.025
0.015
0.045
0.03
0.045
0.045
0.05
0.04
0.05
0.04
0.04
0.04
0.05
0.035
0.035
0.035
0.045
0.025
0.02
0.015
0.04
0.03
0.035
0.025
0.03
0.04
0.04
0.035
0.025
0.055
0.09
0.075
-0.375
-0.62
-0.345
-0.09
0.025
-0.03
0.045
0.07
0.055
0.07
0.055
0.045
0.08
0.04
0.015
0.01
0.05
0.06
0.11
0.095
0.09
0.065
0.03
0.015
0.115
0.12
0.095
0.115
0.115
0.07
0.04
-0.02
-0.07
-0.01
-0.05
-0.105
-0.035
0.07
0.035
-0.015
-0.03
-0.075
-0.05
0.03
0.055
0.03
0.015
0.01
0.065
0.02
0.025
0.07
0.07
0.04
0.1
0.07
0.05
0.035
-0.025
-0.04
0.03
0.025
0.01
-0.005
0.095
0.005
0.1
0.04
0.0
0.045
0.035
0.01
0.06
0.13
0.205
-0.23
-0.7
-0.385
-0.135
0.055
0.015
0.0
0.055
0.03
0.045
0.05
0.08
0.02
0.07
0.06
0.035
0.06
0.07
0.05
0.09
0.115
0.02
0.0
0.115
0.115
0.09
0.095
0.095
0.08
0.065
0.03
0.005
0.02
0.025
-0.06
-0.01
-0.055
-0.075
-0.055
-0.045
-0.09
0.03
0.035
0.03
0.01
0.06
0.025
0.01
0.09
0.04
0.07
0.04
0.055
0.025
0.055
0.015
0.02
0.03
0.005
0.035
0.01
0.05
-0.005
0.025
0.025
0.035
0.01
0.035
0.0
0.025
0.01
0.07
0.12
0.175
-0.355
-0.7
-0.415
-0.155
0.03
0.0
0.02
0.03
0.025
0.02
0.015
0.04
0.03
0.065
0.04
0.005
0.045
0.045
0.045
0.04
0.045
0.065
0.065
0.06
0.08
0.08
0.075
0.085
0.035
0.055
0.025
-0.025
-0.02
-0.005
-0.065
-0.075
-0.085
-0.08
-0.075
0.005
-0.005
0.05
0.035
0.035
0.045
0.03
0.055
0.045
0.04
0.08
0.04
0.055
0.045
0.03
0.025
0.055
0.04
0.035
0.05
0.03
0.03
0.04
0.025
0.05
0.025
0.035
0.02
0.055
0.025
0.075
0.085
0.17
-0.115
-0.625
-0.46
-0.245
-0.055
0.05
0.01
0.025
0.04
0.06
0.03
0.045
0.035
0.04
0.025
0.085
0.045
0.05
0.045
0.05
0.08
0.075
0.045
0.075
0.07
0.09
0.085
0.105
0.08
0.06
0.03
-0.01
-0.04
-0.035
-0.07
-0.085
-0.085
-0.105
-0.075
0.0
0.0
0.05
0.02
0.01
0.03
0.055
0.045
0.05
0.03
0.035
0.04
0.05
0.03
0.055
0.04
0.02
0.04
0.025
0.02
0.04
0.025
0.025
0.035
0.045
0.03
0.015
0.05
0.06
0.015
0.055
0.065
0.18
-0.24
-0.7
-0.415
-0.13
0.02
-0.015
0.015
0.065
0.055
0.03
0.025
0.06
0.03
0.07
0.085
0.055
0.07
0.095
0.06
0.135
0.075
0.075
0.06
0.12
0.08
0.105
0.075
0.1
0.09
0.03
0.0
-0.015
-0.075
-0.155
-0.125
-0.115
-0.125
-0.1
0.005
0.005
-0.02
0.0
0.015
0.035
0.04
0.085
0.09
0.08
0.05
0.085
0.06
0.105
0.015
0.07
0.065
0.065
0.06
0.03
0.045
0.035
0.005
0.035
0.04
0.04
0.065
0.105
0.015
0.0
0.07
0.105
0.115
-0.405
-0.59
-0.34
-0.095
0.02
-0.005
-0.005
-0.025
0.03
0.035
0.02
-0.025
0.0
0.0
0.005
0.005
0.03
0.0
-0.005
0.055
0.06
0.03
0.055
0.065
0.065
0.11
0.085
0.035
0.035
-0.02
0.035
-0.045
-0.065
-0.1
-0.075
-0.065
0.0
0.045
0.0
0.035
0.025
0.02
0.05
0.055
0.045
0.04
0.05
0.035
0.045
0.005
0.0
0.04
0.0
0.015
0.045
-0.025
0.04
0.015
0.04
-0.005
0.01
0.005
0.025
0.025
0.035
0.05
0.045
0.11
0.16
-0.06
-0.495
-0.4
-0.245
-0.04
0.01
0.02
0.06
0.07
0.03
0.05
0.055
0.045
0.11
0.07
0.085
0.05
0.07
0.115
0.115
0.11
0.13
0.12
0.1
0.09
0.1
0.09
0.11
0.09
0.035
-0.095
0.02
-0.03
-0.11
-0.155
-0.125
-0.19
-0.16
0.02
0.185
0.185
0.06
0.105
0.11
0.035
0.085
0.145
0.085
0.065
0.12
0.07
0.0
-0.025
0.06
0.085
0.105
0.025
0.015
0.0
0.01
0.05
0.01
0.08
0.095
0.035
0.005
0.055
0.105
0.185
-0.34
-0.725
-0.425
-0.11
0.075
-0.025
-0.01
0.05
0.045
0.02
-0.06
-0.11
0.005
0.025
0.065
0.085
0.05
0.03
0.025
-0.005
-0.005
0.03
0.005
0.01
0.015
0.06
0.075
0.015
-0.045
-0.11
-0.035
-0.13
-0.19
-0.215
-0.08
-0.09
-0.075
-0.06
-0.03
-0.045
-0.025
-0.05
-0.105
-0.005
0.0
0.0
-0.015
0.0
0.005
0.005
-0.005
0.005
0.0
0.0
-0.035
0.03
0.075
0.04
0.045
0.005
0.0
0.065
0.075
0.065
0.11
0.095
0.245
-0.09
-0.545
-0.335
-0.105
0.085
0.085
0.025
0.065
0.105
0.16
0.075
0.095
0.12
0.08
0.04
0.12
0.11
0.07
0.01
0.145
0.13
0.105
0.105
0.1
0.105
0.105
0.1
0.1
0.065
0.035
0.005
-0.08
-0.065
-0.06
-0.065
-0.035
-0.02
-0.01
0.01
0.035
0.035
0.02
0.02
0.025
0.035
-0.005
0.01
0.035
0.02
0.015
0.005
0.01
0.01
0.015
0.005
0.005
0.005
0.005
-0.005
0.005
-0.025
-0.03
0.0
0.0
0.0
0.04
0.09
-0.305
-0.565
-0.295
-0.11
0.01
-0.02
-0.005
0.0
0.02
0.005
-0.005
-0.035
0.055
0.065
0.045
0.045
0.04
0.05
0.055
0.07
0.065
0.075
0.085
0.085
0.095
0.105
0.1
0.075
0.05
0.03
-0.05
-0.05
-0.05
-0.055
-0.02
0.01
0.025
0.025
0.035
0.03
0.04
0.035
0.035
0.035
0.045
0.04
0.04
0.04
0.04
0.03
0.035
0.025
0.035
0.025
0.025
0.015
0.025
0.015
0.015
0.015
0.02
0.015
0.02
0.05
0.115
0.075
-0.29
-0.455
-0.235
-0.03
0.03
0.02
0.03
0.03
0.04
0.03
0.04
0.04
0.045
0.04
0.05
0.05
0.05
0.045
0.06
0.055
0.07
0.07
0.08
0.085
0.09
0.095
0.095
0.065
0.035
0.005
-0.055
-0.055
-0.055
-0.065
-0.02
-0.005
0.005
0.005
0.01
0.01
0.01
0.015
0.02
0.02
0.02
0.025
0.03
0.03
0.025
0.02
0.025
0.02
0.02
0.015
0.02
0.015
0.015
0.01
0.015
0.015
0.015
0.005
0.04
0.035
0.235
-0.105
-0.545
-0.325
-0.13
0.03
0.0
0.01
0.02
0.025
0.03
0.03
0.035
0.03
0.035
0.03
0.035
0.035
0.045
0.04
0.05
0.05
0.055
0.065
0.07
0.075
0.08
0.085
0.085
0.045
0.03
-0.025
-0.045
-0.055
-0.075
-0.065
0.0
0.0
0.0
0.0
0.0
0.0
0.0
0.01
0.005
0.01
0.01
0.01
0.01
0.01
0.005
0.005
0.0
0.005
0.0
0.005
0.0
0.0
0.0
0.0
-0.005
0.0
-0.01
0.0
0.01
0.125
0.035
-0.355
-0.445
-0.255
-0.025
-0.01
-0.02
0.0
0.0
0.01
0.015
0.015
0.015
0.025
0.025
0.025
0.03
0.035
0.035
0.035
0.045
0.065
0.06
0.075
0.075
0.085
0.085
0.09
0.06
0.04
0.005
-0.055
-0.045
-0.055
-0.085
-0.035
-0.005
0.0
0.0
0.01
0.01
0.005
0.005
0.015
0.01
0.01
0.015
0.01
0.0
0.005
0.0
0.0
-0.005
-0.01
-0.005
-0.005
-0.01
-0.005
-0.015
-0.01
-0.015
-0.01
-0.01
0.015
0.03
0.205
-0.075
-0.665
-0.495
-0.225
-0.025
-0.01
-0.015
-0.005
0.0
0.01
0.005
0.02
0.015
0.02
0.02
0.035
0.025
0.045
0.04
0.045
0.05
0.055
0.065
0.07
0.07
0.085
0.085
0.085
0.06
0.04
-0.005
-0.055
-0.07
-0.085
-0.095
-0.02
-0.01
0.0
0.005
0.01
0.01
0.02
0.02
0.02
0.02
0.03
0.03
0.025
0.02
0.02
0.025
0.02
0.015
0.015
0.015
0.015
0.01
0.01
0.01
0.015
0.005
0.005
0.005
0.06
0.07
0.19
-0.2
-0.64
-0.39
-0.12
0.02
-0.01
0.0
0.015
0.015
0.02
0.015
0.02
0.02
0.025
0.02
0.03
0.03
0.04
0.04
0.045
0.045
0.055
0.06
0.075
0.07
0.08
0.075
0.075
0.06
0.025
-0.005
-0.035
-0.085
-0.08
-0.085
-0.085
-0.02
-0.015
-0.01
0.0
0.0
0.005
0.0
0.0
0.005
0.005
0.01
0.005
0.005
0.01
0.01
0.01
0.005
0.005
0.005
0.005
0.0
0.005
0.0
0.0
0.0
0.0
0.01
0.02
0.16
-0.085
-0.45
-0.35
-0.185
0.015
-0.01
0.0
0.005
0.01
0.02
0.015
0.02
0.02
0.02
0.02
0.02
0.025
0.025
0.035
0.04
0.045
0.05
0.055
0.06
0.07
0.07
0.07
0.07
0.055
0.04
0.0
-0.03
-0.03
-0.095
-0.08
-0.085
-0.085
-0.04
-0.02
-0.015
-0.005
-0.005
-0.005
-0.005
0.0
0.0
0.0
0.0
0.0
0.0
-0.005
-0.015
-0.01
0.02
0.085
0.14
-0.23
-0.555
-0.39
-0.165
-0.035
-0.04
-0.01
-0.01
0.0
0.0
0.015
0.015
0.02
0.02
0.02
0.02
0.03
0.03
0.04
0.045
0.06
0.065
0.08
0.09
0.105
0.11
0.11
0.1
0.09
0.06
0.035
0.005
0.005
-0.005
-0.005
-0.01
-0.005
-0.01
-0.005
-0.01
-0.005
-0.025
-0.035
-0.05
-0.075
-0.075
-0.08
-0.055
-0.01
0.0
0.005
0.005
0.005
0.0
0.0
0.0
-0.005
0.035
0.04
0.22
-0.09
-0.605
-0.405
-0.21
-0.015
-0.035
-0.025
-0.01
0.0
0.0
0.0
0.0
0.005
0.005
0.01
0.01
0.015
0.02
0.03
0.035
0.04
0.05
0.06
0.07
0.08
0.085
0.095
0.09
0.085
0.065
0.045
0.015
0.0
-0.01
-0.01
-0.015
-0.01
-0.015
-0.015
-0.02
-0.015
-0.025
-0.025
-0.025
-0.02
-0.025
-0.02
-0.025
-0.035
-0.065
-0.06
-0.11
-0.095
-0.105
-0.09
-0.04
-0.025
-0.025
-0.02
-0.03
-0.015
-0.03
-0.02
-0.035
0.0
0.05
0.155
-0.145
-0.475
-0.375
-0.16
-0.02
-0.04
-0.04
-0.02
-0.015
0.0
-0.01
-0.005
-0.01
0.0
0.0
0.005
0.0
0.01
0.005
0.02
0.02
0.04
0.035
0.055
0.05
0.065
0.06
0.06
0.05
0.045
0.01
0.0
-0.005
-0.005
-0.02
-0.01
-0.02
-0.01
-0.02
-0.01
-0.02
-0.01
-0.015
-0.01
-0.02
-0.005
-0.01
0.0
-0.005
0.0
-0.005
0.0
-0.015
-0.05
-0.04
-0.08
-0.06
-0.05
-0.045
0.0
-0.005
0.01
0.005
0.005
0.0
0.005
0.0
0.0
0.02
0.08
0.195
-0.105
-0.495
-0.365
-0.15
0.005
-0.03
-0.01
-0.005
0.005
0.005
0.01
0.01
0.015
0.015
0.02
0.02
0.035
0.03
0.045
0.04
0.055
0.05
0.065
0.075
0.085
0.085
0.095
0.09
0.09
0.065
0.055
0.025
0.015
0.0
0.005
0.0
0.005
0.0
0.005
0.0
0.005
0.0
0.005
0.0
0.005
0.0
0.015
0.005
0.01
0.005
0.015
0.005
0.01
0.005
0.015
0.01
0.015
0.005
0.01
-0.015
-0.01
-0.04
-0.01
-0.02
-0.025
0.0
0.02
0.01
0.025
0.01
0.015
0.005
0.01
0.0
0.03
0.08
0.21
-0.115
-0.505
-0.385
-0.145
0.0
-0.03
-0.025
-0.005
-0.005
0.0
0.0
0.005
0.005
0.015
0.005
0.02
0.01
0.025
0.02
0.035
0.03
0.05
0.05
0.065
0.065
0.08
0.075
0.085
0.07
0.065
0.04
0.03
0.005
0.005
0.0
0.0
0.0
0.0
-0.005
0.0
-0.005
0.0
0.0
0.0
0.0
0.005
0.0
0.005
0.0
0.01
0.005
0.01
0.0
0.015
0.005
0.015
0.01
0.015
0.005
0.015
0.005
0.015
0.01
-0.005
-0.015
-0.025
-0.02
0.0
-0.02
0.025
0.01
0.02
0.015
0.015
0.01
0.015
0.0
0.025
0.03
0.19
0.05
-0.355
-0.435
-0.28
-0.08
-0.01
-0.035
-0.01
-0.01
0.0
0.0
0.005
0.0
0.01
0.005
0.02
0.01
0.025
0.025
0.035
0.035
0.05
0.05
0.065
0.06
0.075
0.07
0.08
0.07
0.07
0.05
0.04
0.015
0.01
0.0
0.0
-0.005
0.0
0.0
0.0
-0.005
0.0
0.0
0.0
0.0
0.005
0.0
0.01
0.0
0.01
0.005
0.01
0.005
0.015
0.005
0.01
0.005
0.015
0.005
0.015
0.005
0.015
0.01
0.02
0.005
0.005
-0.015
-0.03
-0.01
-0.02
-0.035
0.0
0.015
0.01
0.01
0.01
0.005
0.01
0.0
0.0
0.03
0.095
0.195
-0.15
-0.535
-0.375
-0.16
0.005
-0.04
-0.02
-0.015
-0.005
0.0
0.0
0.0
0.005
0.0
0.01
0.005
0.01
0.015
0.02
0.025
0.035
0.035
0.05
0.05
0.065
0.065
0.075
0.065
0.065
0.045
0.035
0.01
0.005
-0.005
0.0
-0.005
-0.005
-0.01
-0.005
-0.015
0.0
-0.005
0.0
-0.005
0.0
-0.005
0.005
0.0
0.005
0.0
0.01
0.0
0.01
0.0
0.01
0.005
0.01
0.0
0.01
0.0
0.01
0.0
0.01
0.005
0.01
0.005
0.01
-0.015
-0.025
-0.015
-0.02
-0.025
0.0
0.025
0.015
0.015
0.015
0.01
0.01
0.005
0.005
0.04
0.085
0.245
-0.08
-0.555
-0.395
-0.175
0.0
-0.035
-0.015
-0.01
0.0
0.0
0.005
0.0
0.01
0.005
0.015
0.015
0.02
0.02
0.03
0.03
0.035
0.04
0.05
0.05
0.065
0.065
0.07
0.07
0.065
0.045
0.035
0.015
0.005
-0.005
-0.005
-0.015
-0.005
-0.015
-0.01
-0.01
-0.01
-0.015
-0.005
-0.01
0.0
-0.005
0.0
0.0
0.0
0.0
0.005
0.0
0.0
0.0
0.0
0.0
0.005
0.0
0.005
0.0
0.01
0.0
0.0
0.0
0.005
0.0
0.01
0.0
0.005
0.005
-0.01
-0.025
-0.035
-0.03
-0.02
-0.03
0.02
0.0
0.01
0.01
0.01
0.0
0.01
0.0
0.035
0.045
0.245
-0.015
-0.51
-0.43
-0.235
-0.035
-0.02
-0.025
-0.005
-0.005
0.0
0.0
0.015
0.005
0.015
0.01
0.02
0.015
0.025
0.025
0.035
0.035
0.045
0.035
0.06
0.055
0.06
0.06
0.07
0.055
0.05
0.025
0.015
0.0
-0.005
-0.01
-0.01
-0.015
-0.01
-0.015
-0.01
-0.005
0.0
-0.005
0.0
0.0
0.005
-0.005
0.005
0.005
0.01
0.0
0.015
0.005
0.005
0.005
0.01
0.005
0.015
0.005
0.015
0.01
0.015
0.01
0.01
0.01
0.015
0.01
-0.01
-0.02
-0.02
-0.045
-0.03
0.0
0.03
0.015
0.03
0.02
0.025
0.015
0.015
0.005
0.08
0.1
0.255
-0.1
-0.63
-0.485
-0.185
0.0
-0.005
-0.005
0.01
0.01
0.02
0.015
0.03
0.02
0.03
0.03
0.04
0.035
0.045
0.035
0.045
0.045
0.06
0.065
0.07
0.075
0.08
0.075
0.085
0.07
0.065
0.035
0.02
0.005
0.0
-0.005
0.0
0.0
0.0
0.0
0.0
0.0
0.005
0.0
0.015
0.005
0.015
0.01
0.015
0.01
0.02
0.015
0.02
0.015
0.025
0.02
0.025
0.015
0.025
0.02
0.025
0.015
0.025
0.02
0.02
-0.005
-0.03
-0.025
-0.025
-0.025
0.005
0.02
0.025
0.025
0.035
0.025
0.03
0.025
0.035
0.06
0.165
0.125
-0.31
-0.5
-0.36
-0.13
0.025
-0.015
0.005
0.005
0.02
0.015
0.025
0.025
0.03
0.03
0.035
0.03
0.035
0.035
0.04
0.04
0.05
0.05
0.065
0.065
0.075
0.075
0.08
0.07
0.06
0.035
0.02
0.005
-0.005
-0.005
-0.005
-0.005
-0.005
-0.005
0.0
-0.005
0.0
0.0
0.0
0.0
0.005
0.0
0.005
0.005
0.01
0.01
0.01
0.01
0.01
0.01
0.015
0.01
0.01
0.01
0.015
0.01
0.02
0.01
0.02
0.01
-0.005
-0.025
-0.03
-0.025
0.0
-0.015
0.02
0.015
0.025
0.025
0.02
0.02
0.02
0.015
0.035
0.04
0.205
-0.035
-0.445
-0.385
-0.24
-0.03
-0.005
-0.015
0.0
0.0
0.015
0.015
0.015
0.01
0.02
0.02
0.02
0.02
0.025
0.03
0.035
0.035
0.045
0.05
0.06
0.065
0.07
0.075
0.075
0.065
0.055
0.035
0.02
0.005
0.0
-0.005
0.0
0.0
0.0
0.0
0.0
0.0
0.0
0.0
0.0
0.0
0.005
0.005
0.005
0.005
0.005
0.005
0.005
0.01
0.005
0.01
0.005
0.01
0.01
0.005
0.01
0.005
0.01
0.01
0.01
0.01
0.015
0.015
-0.005
-0.025
-0.005
-0.015
-0.005
0.0
0.04
0.015
0.02
0.02
0.015
0.015
0.01
0.005
0.03
0.04
0.225
-0.03
-0.485
-0.405
-0.24
-0.035
-0.02
-0.02
-0.01
-0.005
0.0
0.0
0.005
0.005
0.01
0.01
0.015
0.015
0.015
0.02
0.025
0.03
0.035
0.045
0.055
0.065
0.07
0.07
0.07
0.06
0.055
0.035
0.015
0.0
-0.005
-0.005
-0.01
-0.015
-0.01
-0.01
-0.01
-0.01
-0.01
-0.01
-0.01
-0.005
-0.005
0.0
0.0
0.0
0.0
0.0
0.0
0.0
0.0
0.0
0.005
0.0
0.005
0.005
0.005
0.005
0.005
0.005
0.005
0.005
0.0
0.01
0.005
0.005
0.0
-0.02
-0.01
0.0
-0.015
0.0
0.025
0.015
0.015
0.015
0.01
0.01
0.005
0.005
0.01
0.03
0.165
0.055
-0.34
-0.445
-0.3
-0.09
-0.01
-0.035
-0.02
-0.01
-0.005
0.0
0.005
0.0
0.005
0.005
0.01
0.015
0.02
0.025
0.025
0.03
0.04
0.05
0.055
0.06
0.065
0.07
0.07
0.07
0.06
0.04
0.02
0.01
0.0
-0.005
-0.005
-0.005
-0.01
-0.005
-0.01
-0.005
-0.005
-0.005
-0.005
0.0
-0.005
0.0
0.0
0.0
0.0
0.005
0.0
0.01
0.005
0.01
0.005
0.01
0.01
0.015
0.01
0.015
0.01
0.01
0.005
0.015
0.01
0.015
0.01
0.015
0.01
0.015
0.015
0.015
-0.005
-0.015
0.01
-0.01
-0.015
0.02
0.04
0.02
0.025
0.02
0.015
0.015
0.01
0.005
0.04
0.095
0.22
-0.13
-0.525
-0.365
-0.155
0.015
-0.025
-0.01
-0.005
0.0
0.005
0.01
0.01
0.01
0.01
0.015
0.015
0.025
0.025
0.03
0.035
0.04
0.045
0.055
0.06
0.065
0.07
0.075
0.07
0.06
0.05
0.03
0.015
0.005
-0.005
0.0
-0.005
0.0
0.0
0.0
-0.005
0.0
0.0
0.0
0.0
0.0
0.0
0.01
0.005
0.005
0.005
0.01
0.005
0.01
0.005
0.01
0.01
0.01
0.005
0.01
0.01
0.01
0.005
0.015
0.005
0.015
0.01
0.02
0.01
0.015
0.01
0.015
0.015
0.005
-0.01
-0.025
-0.005
-0.02
-0.025
0.015
0.015
0.02
0.015
0.02
0.015
0.01
0.005
0.01
0.045
0.11
0.185
-0.175
-0.51
-0.365
-0.145
0.005
-0.03
-0.015
-0.005
0.0
0.0
0.005
0.005
0.01
0.01
0.015
0.015
0.015
0.02
0.025
0.025
0.03
0.035
0.045
0.045
0.06
0.055
0.06
0.055
0.05
0.035
0.02
0.0
0.0
-0.015
-0.01
-0.01
-0.01
-0.015
-0.01
-0.01
-0.005
-0.01
-0.005
-0.005
0.0
0.0
0.0
0.0
0.005
0.0
0.005
0.005
0.01
0.005
0.015
0.005
0.01
0.01
0.015
0.005
0.01
0.005
0.01
0.005
0.015
0.005
0.015
0.005
0.0
-0.015
-0.03
-0.01
-0.015
-0.03
0.015
0.02
0.015
0.02
0.02
0.015
0.015
0.005
0.01
0.05
0.105
0.24
-0.12
-0.555
-0.415
-0.175
0.005
-0.02
-0.01
0.0
0.01
0.01
0.015
0.01
0.02
0.015
0.025
0.03
0.035
0.035
0.04
0.045
0.05
0.05
0.06
0.065
0.07
0.075
0.07
0.065
0.07
0.04
0.03
0.01
0.0
-0.015
-0.005
-0.005
0.0
-0.01
0.0
0.0
0.0
-0.005
0.0
0.0
-0.005
0.0
0.01
0.005
0.01
0.005
0.01
0.01
0.005
0.01
0.02
0.01
0.01
0.005
0.02
0.005
0.01
0.01
0.02
0.005
0.02
-0.015
-0.015
-0.04
-0.045
-0.025
-0.01
0.015
0.01
0.02
0.015
0.015
0.02
0.02
0.02
0.02
0.07
0.17
0.14
-0.34
-0.51
-0.39
-0.125
0.015
-0.01
0.0
0.015
0.02
0.025
0.025
0.035
0.03
0.035
0.04
0.05
0.05
0.05
0.05
0.055
0.065
0.065
0.07
0.09
0.085
0.09
0.085
0.09
0.075
0.055
0.035
0.015
-0.01
0.0
-0.005
0.0
-0.005
-0.005
-0.005
-0.005
-0.01
0.0
0.0
0.0
0.0
0.005
0.0
0.01
0.005
0.01
0.005
0.015
0.005
0.015
0.005
0.015
0.01
0.015
0.01
0.02
0.01
0.015
0.01
-0.01
-0.035
-0.025
-0.055
-0.03
-0.01
0.025
0.01
0.025
0.02
0.03
0.02
0.025
0.02
0.05
0.055
0.23
-0.01
-0.525
-0.435
-0.26
-0.06
0.015
-0.005
0.01
0.005
0.025
0.02
0.03
0.025
0.035
0.03
0.04
0.035
0.045
0.035
0.05
0.045
0.06
0.05
0.07
0.07
0.08
0.07
0.08
0.065
0.055
0.025
0.015
-0.005
-0.005
-0.015
-0.005
-0.015
-0.005
-0.01
-0.005
-0.015
0.0
-0.01
0.0
-0.01
0.0
0.0
0.005
0.0
0.005
0.0
0.01
0.005
0.01
0.005
0.015
0.0
0.015
0.005
0.015
0.005
0.015
0.005
0.015
0.01
0.0
-0.03
-0.04
-0.015
-0.02
-0.035
0.0
0.02
0.015
0.015
0.015
0.005
0.01
0.0
0.01
0.03
0.035
0.225
-0.11
-0.54
-0.355
-0.195
0.005
-0.035
-0.01
-0.01
-0.005
-0.005
0.0
0.0
0.005
0.005
0.01
0.01
0.015
0.015
0.02
0.015
0.025
0.03
0.04
0.04
0.055
0.055
0.065
0.055
0.06
0.035
0.03
0.0
-0.005
-0.015
-0.01
-0.015
-0.01
-0.015
-0.01
-0.015
-0.01
-0.015
-0.005
-0.01
-0.005
-0.01
0.0
-0.005
0.0
-0.005
0.0
0.0
0.0
0.0
0.005
0.0
0.01
0.0
0.005
0.0
0.01
0.005
0.01
0.005
0.01
0.01
0.015
0.005
0.015
0.0
-0.015
-0.04
-0.005
-0.025
-0.02
0.005
0.03
0.015
0.03
0.015
0.02
0.01
0.02
0.01
0.05
0.05
0.26
-0.06
-0.51
-0.375
-0.195
0.0
-0.01
-0.01
0.005
0.0
0.015
0.01
0.02
0.01
0.025
0.015
0.03
0.02
0.03
0.025
0.035
0.035
0.05
0.045
0.065
0.06
0.075
0.07
0.08
0.065
0.06
0.035
0.025
0.0
0.0
-0.01
0.0
-0.01
-0.005
-0.01
0.0
-0.015
0.0
-0.01
0.0
-0.005
0.0
-0.005
0.005
0.0
0.005
0.0
0.005
0.005
0.01
0.005
0.015
0.005
0.015
0.005
0.015
0.005
0.015
0.005
0.01
0.005
0.01
0.005
0.015
0.005
0.02
0.01
0.02
0.01
0.02
-0.01
-0.01
-0.025
-0.01
-0.01
-0.005
0.02
0.015
0.015
0.03
0.01
0.02
0.01
0.015
0.005
0.05
0.09
0.215
-0.15
-0.51
-0.365
-0.145
0.01
-0.015
-0.01
0.005
0.0
0.015
0.005
0.02
0.01
0.025
0.015
0.025
0.02
0.03
0.03
0.04
0.035
0.05
0.05
0.07
0.065
0.075
0.065
0.075
0.06
0.05
0.025
0.015
0.0
-0.005
-0.015
-0.01
-0.015
-0.005
-0.015
-0.005
-0.01
-0.005
-0.01
0.0
-0.005
0.0
0.0
0.005
0.0
0.005
0.0
0.01
0.0
0.005
0.0
0.01
0.005
0.01
0.005
0.01
0.0
0.01
0.005
0.01
0.005
0.01
0.005
0.01
0.0
0.01
-0.01
-0.015
-0.03
-0.005
-0.02
-0.005
0.015
0.02
0.01
0.025
0.01
0.02
0.005
0.015
0.0
0.045
0.08
0.25
-0.105
-0.555
-0.4
-0.17
0.0
-0.025
-0.02
0.0
0.0
0.01
0.0
0.015
0.01
0.02
0.01
0.025
0.015
0.025
0.025
0.035
0.03
0.04
0.045
0.055
0.055
0.07
0.06
0.07
0.055
0.045
0.015
0.01
-0.01
-0.01
-0.02
-0.015
-0.02
-0.015
-0.02
-0.015
-0.02
-0.01
-0.015
-0.005
-0.015
0.0
-0.01
0.0
-0.01
0.0
0.0
0.0
0.0
0.005
0.0
0.005
0.0
0.005
0.0
0.005
0.0
0.005
0.0
0.005
0.0
0.01
0.0
0.01
0.0
0.01
0.0
0.01
-0.015
-0.03
0.0
-0.025
-0.02
0.01
0.035
0.01
0.01
0.015
0.0
0.005
0.0
0.0
0.015
0.04
0.205
0.005
-0.47
-0.42
-0.27
-0.06
-0.03
-0.03
-0.03
-0.015
-0.015
-0.005
-0.005
0.0
0.0
0.0
0.0
0.005
0.005
0.015
0.01
0.02
0.025
0.035
0.04
0.05
0.05
0.06
0.05
0.05
0.035
0.025
0.005
-0.005
-0.015
-0.015
-0.02
-0.015
-0.025
-0.015
-0.02
-0.015
-0.02
-0.015
-0.02
-0.01
-0.01
0.0
-0.01
0.0
-0.005
0.005
0.0
0.0
0.0
0.005
0.0
0.0
0.0
0.0
-0.005
0.0
0.0
0.0
0.0
0.005
-0.005
0.0
0.0
0.005
0.0
0.0
0.0
0.0
-0.015
0.0
-0.005
-0.025
0.01
0.035
0.015
0.025
0.025
0.02
0.02
0.015
0.01
0.01
0.055
0.125
0.205
-0.19
-0.57
-0.435
-0.165
0.015
-0.03
-0.01
0.0
0.005
0.005
0.015
0.015
0.02
0.015
0.03
0.025
0.035
0.035
0.04
0.04
0.055
0.055
0.06
0.065
0.07
0.065
0.075
0.065
0.055
0.035
0.02
0.0
-0.005
-0.015
-0.015
-0.015
-0.015
-0.01
-0.01
-0.01
-0.01
-0.015
-0.005
-0.01
-0.005
0.0
0.0
0.0
0.0
0.005
0.005
0.0
0.01
0.005
0.01
0.01
0.01
0.005
0.01
0.01
0.01
0.01
0.01
0.01
0.01
0.005
0.015
0.005
0.01
0.005
-0.03
0.015
-0.025
-0.02
0.015
0.04
0.02
0.025
0.02
0.015
0.015
0.01
0.015
0.04
0.07
0.205
0.005
-0.55
-0.47
-0.31
-0.085
0.005
-0.015
0.0
0.005
0.015
0.015
0.025
0.02
0.03
0.04
0.035
0.035
0.035
0.05
0.05
0.05
0.055
0.065
0.075
0.07
0.075
0.08
0.075
0.07
0.055
0.035
0.01
0.0
-0.01
-0.015
-0.02
-0.015
-0.025
-0.015
-0.015
-0.015
-0.01
-0.01
-0.01
-0.01
-0.005
0.0
0.0
0.0
0.0
0.0
0.005
0.005
0.005
0.005
0.01
0.01
0.01
0.01
0.01
0.01
0.01
0.01
0.015
0.015
0.015
0.015
0.015
0.0
-0.025
0.01
-0.01
-0.01
0.02
0.035
0.015
0.03
0.035
0.03
0.025
0.015
0.02
0.025
0.04
0.135
0.02
-0.33
-0.445
-0.3
-0.085
0.005
-0.015
-0.005
0.0
0.005
0.01
0.01
0.01
0.015
0.015
0.015
0.02
0.025
0.025
0.025
0.03
0.04
0.045
0.05
0.055
0.06
0.06
0.055
0.05
0.04
0.02
0.0
-0.005
-0.015
-0.015
-0.01
-0.01
-0.01
-0.005
-0.01
-0.01
-0.005
-0.01
-0.01
-0.005
-0.005
0.0
0.0
0.0
0.0
0.005
0.0
0.005
0.005
0.005
0.005
0.005
0.01
0.005
0.005
0.01
0.005
0.01
0.005
0.01
0.01
0.015
0.005
0.015
0.0
-0.025
0.02
-0.01
-0.015
0.015
0.04
0.015
0.02
0.02
0.01
0.01
0.005
0.005
0.015
0.035
0.16
0.06
-0.35
-0.455
-0.305
-0.09
0.0
-0.03
-0.015
-0.005
0.0
0.0
0.005
0.005
0.01
0.01
0.01
0.02
0.02
0.025
0.025
0.03
0.035
0.045
0.045
0.06
0.065
0.065
0.065
0.065
0.05
0.035
0.015
0.0
-0.005
-0.01
-0.01
-0.01
-0.01
-0.01
-0.01
-0.005
-0.005
-0.01
-0.005
0.0
-0.005
0.0
0.0
0.0
0.0
0.0
0.0
0.005
0.005
0.005
0.01
0.005
0.01
0.005
0.01
0.01
0.01
0.01
0.01
0.01
0.01
0.01
0.005
-0.01
-0.01
0.015
-0.01
0.005
0.01
0.035
0.01
0.02
0.01
0.01
0.0
0.005
0.0
0.035
0.045
0.255
-0.04
-0.55
-0.42
-0.22
-0.025
-0.025
-0.025
-0.01
-0.01
0.0
0.0
0.005
0.005
0.01
0.01
0.015
0.015
0.025
0.025
0.03
0.03
0.045
0.04
0.055
0.055
0.065
0.065
0.07
0.055
0.045
0.025
0.01
0.0
-0.005
-0.015
-0.005
-0.01
-0.01
-0.01
-0.01
-0.01
-0.01
-0.015
-0.005
-0.005
0.0
0.0
0.005
0.0
0.0
0.0
0.005
0.005
0.01
0.005
0.015
0.005
0.01
0.005
0.01
0.0
0.005
0.0
0.01
0.005
0.015
0.0
0.02
-0.01
-0.015
0.02
-0.005
-0.005
0.015
0.04
0.02
0.02
0.03
0.01
0.015
0.005
0.01
0.015
0.05
0.17
0.085
-0.34
-0.455
-0.31
-0.095
-0.005
-0.025
-0.02
0.0
0.0
0.0
0.0
0.005
0.005
0.015
0.01
0.015
0.015
0.025
0.02
0.035
0.03
0.04
0.05
0.06
0.06
0.065
0.06
0.065
0.05
0.04
0.01
0.0
-0.01
-0.015
-0.02
-0.015
-0.025
-0.01
-0.025
-0.015
-0.02
-0.01
-0.02
-0.01
-0.02
-0.005
-0.01
0.0
-0.005
0.0
0.0
0.0
-0.005
0.0
-0.005
0.0
0.0
0.005
0.0
0.0
0.0
0.005
0.0
0.005
0.0
0.01
0.0
0.0
-0.025
-0.005
0.0
-0.015
0.0
0.025
0.02
0.015
0.02
0.01
0.005
0.005
0.0
0.005
0.04
0.07
0.26
-0.04
-0.59
-0.44
-0.205
-0.01
-0.025
-0.015
-0.01
0.0
0.0
0.01
0.015
0.02
0.01
0.025
0.02
0.025
0.03
0.03
0.035
0.04
0.04
0.05
0.055
0.065
0.065
0.07
0.06
0.055
0.04
0.025
0.0
0.0
-0.015
-0.01
-0.015
0.0
-0.015
-0.005
-0.01
-0.005
-0.01
-0.005
-0.01
0.0
0.0
0.0
0.0
0.005
0.005
0.005
0.0
0.015
0.01
0.01
0.005
0.015
0.005
0.005
0.005
0.015
0.005
0.005
0.01
0.0
-0.025
0.0
-0.02
-0.02
0.005
0.025
0.01
0.015
0.015
0.02
0.015
0.015
0.01
0.01
0.055
0.085
0.265
-0.055
-0.66
-0.485
-0.22
-0.02
-0.01
-0.015
0.0
0.005
0.015
0.02
0.02
0.03
0.03
0.035
0.035
0.045
0.04
0.05
0.04
0.055
0.05
0.075
0.065
0.08
0.075
0.085
0.075
0.075
0.055
0.04
0.01
0.0
-0.015
-0.01
-0.015
-0.01
-0.02
-0.01
-0.01
-0.01
-0.015
0.0
-0.005
-0.005
-0.01
0.005
0.0
0.01
0.005
0.01
0.005
0.01
0.005
0.015
0.01
0.015
0.01
0.02
0.005
0.015
0.005
0.015
-0.01
-0.025
-0.025
-0.035
-0.035
-0.005
0.0
0.005
0.0
0.015
0.005
0.02
0.005
0.015
0.0
0.06
0.06
0.26
-0.08
-0.625
-0.46
-0.225
-0.035
0.0
-0.015
0.005
0.0
0.015
0.015
0.025
0.015
0.035
0.025
0.035
0.03
0.04
0.035
0.05
0.035
0.06
0.055
0.035
0.04
0.045
0.05
0.05
0.06
0.065
0.07
0.07
0.07
0.065
0.05
0.03
0.015
0.0
0.0
0.0
0.005
0.01
0.015
0.02
0.015
0.02
0.015
0.02
0.02
0.02
0.015
0.02
0.02
0.025
0.025
0.025
0.03
0.025
0.025
0.03
0.035
0.04
0.035
0.04
0.04
0.04
0.035
0.04
0.04
0.04
0.04
0.04
0.045
0.04
0.04
0.02
0.0
0.03
0.01
0.0
0.025
0.055
0.045
0.045
0.045
0.045
0.035
0.04
0.035
0.035
0.03
0.065
0.17
0.08
-0.33
-0.515
-0.325
-0.1
0.0
-0.015
0.0
0.01
0.015
0.02
0.025
0.03
0.03
0.035
0.035
0.04
0.035
0.04
0.045
0.05
0.055
0.055
0.06
0.07
0.075
0.08
0.08
0.08
0.07
0.05
0.025
0.015
0.005
0.005
0.01
0.015
0.02
0.02
0.02
0.02
0.02
0.02
0.02
0.02
0.025
0.025
0.025
0.03
0.03
0.03
0.03
0.03
0.035
0.035
0.035
0.035
0.035
0.035
0.04
0.04
0.04
0.04
0.035
0.04
0.04
0.035
0.035
0.01
-0.015
0.01
-0.005
-0.005
0.02
0.05
0.04
0.045
0.045
0.04
0.035
0.04
0.035
0.035
0.025
0.06
0.14
0.15
-0.245
-0.555
-0.36
-0.13
0.0
-0.02
-0.005
0.0
0.01
0.02
0.015
0.025
0.025
0.03
0.03
0.035
0.04
0.045
0.045
0.05
0.05
0.06
0.065
0.07
0.075
0.08
0.08
0.075
0.07
0.05
0.03
0.015
0.0
0.005
0.01
0.015
0.02
0.02
0.02
0.025
0.025
0.025
0.02
0.025
0.02
0.02
0.025
0.025
0.025
0.025
0.025
0.025
0.03
0.03
0.03
0.035
0.03
0.035
0.03
0.03
0.03
0.035
0.03
0.035
0.03
0.03
0.005
-0.005
-0.01
-0.01
0.005
-0.005
0.04
0.03
0.03
0.035
0.03
0.025
0.025
0.025
0.02
0.015
0.05
0.09
0.225
-0.15
-0.625
-0.41
-0.18
0.0
-0.03
-0.015
0.0
0.0
0.005
0.005
0.01
0.015
0.02
0.015
0.015
0.02
0.025
0.025
0.03
0.035
0.035
0.04
0.05
0.05
0.06
0.06
0.06
0.05
0.04
0.015
0.0
-0.005
-0.01
-0.005
0.0
0.0
0.0
0.005
0.0
0.005
0.0
0.005
0.0
0.005
0.0
0.005
0.005
0.01
0.005
0.01
0.005
0.005
0.01
0.01
0.01
0.015
0.01
0.015
0.015
0.02
0.015
0.015
0.015
0.02
0.01
-0.025
0.01
-0.015
-0.02
0.02
0.035
0.02
0.025
0.025
0.015
0.015
0.01
0.005
0.005
0.01
0.04
0.14
0.085
-0.345
-0.57
-0.385
-0.15
-0.025
-0.05
-0.03
-0.02
-0.01
-0.005
-0.01
0.0
0.0
0.0
0.0
0.0
0.0
0.005
0.01
0.01
0.02
0.02
0.04
0.03
0.03
0.035
0.035
0.03
0.025
0.005
-0.005
-0.025
-0.035
-0.03
-0.03
-0.015
-0.005
-0.005
0.0
0.0
-0.005
0.0
0.0
0.0
0.0
0.005
0.005
0.0
0.005
0.01
0.005
0.005
0.01
0.015
0.015
0.01
0.015
0.03
0.015
0.02
0.01
0.03
0.01
-0.01
0.01
-0.015
-0.02
0.025
0.04
0.04
0.03
0.04
0.035
0.03
0.03
0.03
0.025
0.055
0.075
0.23
-0.02
-0.64
-0.505
-0.305
-0.075
0.0
-0.02
0.0
0.005
0.01
0.01
0.02
0.01
0.025
0.025
0.035
0.025
0.035
0.035
0.045
0.04
0.055
0.055
0.065
0.07
0.075
0.085
0.075
0.07
0.055
0.04
0.02
-0.005
-0.005
-0.01
0.0
0.005
0.005
0.015
0.005
0.015
0.015
0.01
0.015
0.02
0.025
0.03
0.03
0.035
0.03
0.035
0.035
0.035
0.04
0.04
0.04
0.045
0.045
0.045
0.05
0.045
0.05
0.03
-0.01
0.025
-0.01
-0.015
0.04
0.04
0.035
0.045
0.05
0.04
0.04
0.035
0.035
0.03
0.035
0.065
0.165
0.0
-0.485
-0.51
-0.345
-0.12
0.0
-0.035
-0.015
-0.005
0.0
0.0
0.0
0.0
0.005
0.005
0.005
0.005
0.01
0.01
0.015
0.02
0.025
0.035
0.04
0.045
0.05
0.05
0.05
0.045
0.035
0.005
-0.01
-0.025
-0.035
-0.025
-0.02
-0.01
0.0
0.0
0.0
0.0
0.005
0.0
0.0
0.0
0.0
0.0
0.005
0.005
0.005
0.01
0.015
0.01
0.01
0.015
0.015
0.01
0.01
0.015
0.015
0.015
0.015
0.02
0.02
0.02
0.02
-0.01
-0.025
0.0
-0.015
0.005
0.02
0.03
0.03
0.03
0.035
0.02
0.02
0.015
0.015
0.005
0.04
0.065
0.115
-0.27
-0.61
-0.365
-0.155
-0.01
-0.045
-0.03
-0.015
-0.01
-0.005
0.0
0.0
0.0
0.0
0.005
0.005
0.005
0.01
0.01
0.02
0.025
0.03
0.04
0.045
0.05
0.05
0.05
0.05
0.04
0.02
0.0
-0.015
-0.025
-0.02
-0.015
-0.005
0.0
0.0
0.005
0.0
0.005
0.0
0.0
0.0
0.005
0.005
0.005
0.0
0.005
0.005
0.01
0.01
0.015
0.01
0.015
0.015
0.02
0.015
0.015
0.02
0.02
0.015
0.03
0.005
-0.035
0.01
-0.015
-0.005
0.03
0.05
0.03
0.035
0.035
0.03
0.025
0.025
0.025
0.02
0.025
0.045
0.175
0.01
-0.415
-0.5
-0.315
-0.1
-0.02
-0.04
-0.025
-0.02
-0.005
-0.005
0.0
0.0
0.0
0.0
0.005
0.005
0.01
0.01
0.015
0.02
0.03
0.035
0.04
0.045
0.055
0.055
0.06
0.05
0.04
0.02
0.0
-0.01
-0.015
-0.015
-0.005
0.0
0.0
0.005
0.005
0.0
0.005
0.0
0.005
0.005
0.005
0.005
0.01
0.01
0.01
0.01
0.015
0.01
0.015
0.015
0.02
0.02
0.02
0.02
0.025
0.025
0.025
0.02
0.02
-0.02
-0.015
-0.005
-0.015
0.01
0.03
0.02
0.03
0.025
0.025
0.015
0.015
0.005
0.0
-0.015
0.045
0.075
0.235
-0.16
-0.665
-0.435
-0.21
-0.025
-0.05
-0.035
-0.02
-0.02
-0.005
-0.01
0.0
0.0
0.0
0.0
0.005
0.0
0.005
0.005
0.01
0.015
0.02
0.025
0.03
0.035
0.05
0.045
0.045
0.04
0.02
-0.005
-0.015
-0.03
-0.03
-0.02
-0.01
-0.01
0.0
-0.005
0.0
0.0
0.0
-0.005
0.0
0.0
0.0
0.005
0.0
0.005
0.005
0.005
0.01
0.005
0.01
0.015
0.015
0.015
0.025
0.01
0.025
0.015
0.015
-0.005
-0.015
-0.015
-0.025
0.005
0.025
0.02
0.03
0.03
0.035
0.015
0.025
0.015
0.015
0.005
0.08
0.09
0.24
-0.135
-0.76
-0.52
-0.235
-0.035
-0.025
-0.035
-0.005
-0.015
0.0
0.0
0.01
0.0
0.015
0.01
0.015
0.015
0.02
0.02
0.03
0.02
0.035
0.04
0.035
0.04
0.06
0.06
0.05
0.05
0.035
0.0
-0.005
-0.015
-0.02
-0.025
-0.015
-0.015
-0.005
-0.01
0.0
-0.01
0.0
0.0
0.0
0.0
0.01
0.015
0.015
0.01
0.015
0.01
0.015
0.02
0.025
0.02
0.025
0.02
0.025
0.02
0.035
0.01
-0.015
0.005
-0.035
-0.035
0.02
0.035
0.02
0.025
0.04
0.025
0.03
0.02
0.03
0.02
0.04
0.075
0.175
0.005
-0.54
-0.565
-0.385
-0.115
0.015
-0.02
-0.005
0.005
0.015
0.015
0.02
0.035
0.035
0.025
0.04
0.04
0.05
0.045
0.05
0.055
0.065
0.06
0.075
0.075
0.08
0.08
0.08
0.07
0.05
0.035
0.015
-0.005
-0.01
-0.015
-0.005
0.005
0.0
0.0
0.005
0.005
0.005
0.01
0.01
0.015
0.02
0.015
0.02
0.02
0.02
0.03
0.03
0.03
0.03
0.035
0.035
0.04
0.035
0.04
0.035
0.04
0.01
-0.015
0.01
-0.02
-0.005
0.02
0.035
0.035
0.035
0.035
0.03
0.035
0.025
0.025
0.02
0.055
0.05
0.185
-0.23
-0.705
-0.41
-0.215
-0.01
-0.03
-0.03
-0.015
-0.005
-0.005
0.0
0.005
0.0
0.005
0.005
0.005
0.01
0.01
0.01
0.01
-0.005
0.03
0.035
0.035
0.045
0.045
0.045
0.04
0.035
0.015
0.0
-0.035
-0.035
-0.04
-0.025
-0.02
0.0
-0.005
0.085
0.135
0.225
0.385
0.005
-0.1
0.16
-0.085
-0.045
0.105
-0.05
0.125
-0.045
-0.01
0.03
-0.04
-0.02
-0.02
-0.02
-0.035
-0.025
-0.03
-0.065
-0.08
-0.025
-0.06
-0.045
-0.02
0.01
-0.01
-0.005
0.0
0.0
-0.005
0.0
0.0
0.0
0.015
0.025
0.195
-0.08
-0.58
-0.49
-0.3
-0.07
-0.045
-0.05
-0.03
-0.02
-0.005
0.0
0.01
0.01
0.02
0.025
0.03
0.025
0.03
0.03
0.04
0.04
0.05
0.055
0.06
0.065
0.075
0.07
0.075
0.065
0.05
0.025
0.01
-0.005
-0.01
-0.005
0.0
0.005
0.005
0.005
0.005
0.01
0.005
0.01
0.01
0.01
0.01
0.01
0.015
0.015
0.01
0.015
0.015
0.015
0.015
0.015
0.015
0.02
0.01
-0.015
-0.025
-0.03
-0.025
-0.005
0.0
0.03
0.03
0.03
0.03
0.03
0.02
0.02
0.015
0.015
0.01
0.045
0.065
0.215
-0.17
-0.64
-0.415
-0.185
-0.01
-0.035
-0.025
-0.01
-0.005
0.0
0.0
0.005
0.005
0.01
0.01
0.015
0.015
0.02
0.02
0.025
0.03
0.035
0.04
0.05
0.05
0.065
0.065
0.06
0.05
0.04
0.015
0.0
-0.01
-0.005
0.0
0.0
0.0
0.0
0.005
0.005
0.005
0.005
0.005
0.005
0.005
0.01
0.01
0.015
0.01
0.01
0.015
0.015
0.015
0.015
0.02
-0.02
-0.04
-0.07
-0.07
-0.07
-0.07
-0.02
0.01
0.01
0.025
0.02
0.02
0.02
0.025
0.015
0.015
0.015
0.055
0.095
0.185
-0.205
-0.61
-0.4
-0.155
0.0
-0.03
-0.01
0.0
0.0
0.01
0.01
0.015
0.01
0.015
0.015
0.02
0.02
0.02
0.025
0.03
0.03
0.04
0.045
0.055
0.055
0.05
0.055
0.05
0.045
0.02
0.0
-0.01
-0.01
-0.015
-0.01
-0.01
0.0
0.005
0.0
0.0
0.01
0.0
0.005
0.005
0.01
0.0
0.01
0.005
0.005
0.01
0.01
0.01
0.015
0.005
-0.03
-0.025
-0.09
-0.08
-0.08
-0.085
-0.01
0.005
0.03
0.025
0.03
0.02
0.025
0.025
0.04
0.025
0.025
0.085
0.15
0.12
-0.355
-0.625
-0.43
-0.14
0.015
-0.025
-0.005
0.005
0.015
0.015
0.02
0.025
0.03
0.025
0.03
0.035
0.035
0.03
0.045
0.05
0.045
0.055
0.065
0.07
0.075
0.075
0.075
0.07
0.055
0.04
0.02
0.005
0.0
-0.005
0.0
0.0
0.005
0.0
0.01
0.0
0.01
0.01
0.01
0.01
0.015
0.015
0.02
0.02
0.03
0.025
0.025
0.02
0.035
0.015
-0.025
-0.025
-0.075
-0.08
-0.08
-0.075
0.0
0.015
0.045
0.035
0.04
0.04
0.045
0.04
0.05
0.04
0.05
0.08
0.185
0.0
-0.54
-0.53
-0.34
-0.095
0.02
-0.005
0.01
0.01
0.025
0.02
0.03
0.025
0.035
0.03
0.03
0.03
0.03
0.03
0.035
0.04
0.04
0.04
0.05
0.055
0.055
0.065
0.065
0.055
0.045
0.02
0.0
-0.02
-0.02
-0.02
-0.015
-0.01
-0.005
-0.005
-0.005
-0.005
-0.005
0.0
0.0
0.0
0.0
0.0
0.005
0.01
0.005
0.01
0.01
0.015
0.01
0.015
0.01
0.015
0.01
0.015
0.0
-0.045
-0.045
-0.09
-0.085
-0.075
-0.065
-0.02
0.005
0.02
0.025
0.025
0.02
0.025
0.02
0.025
0.015
0.035
0.025
0.165
-0.19
-0.57
-0.38
-0.225
-0.015
-0.025
-0.02
-0.005
0.0
0.005
0.005
0.005
0.005
0.01
0.005
0.005
0.005
0.01
0.01
0.015
0.02
0.025
0.03
0.04
0.04
0.05
0.05
0.05
0.04
0.03
0.005
-0.015
-0.02
-0.02
-0.015
-0.01
-0.005
0.0
0.0
0.0
0.0
0.0
0.0
0.0
0.0
0.0
0.0
0.0
0.0
0.005
0.005
0.01
0.01
0.01
0.01
0.015
0.015
0.02
0.015
0.02
0.02
0.02
0.02
0.02
0.02
0.025
0.0
-0.04
0.0
-0.025
-0.015
0.015
0.035
0.015
0.025
0.03
0.02
0.02
0.02
0.015
0.01
0.015
0.03
0.11
0.03
-0.32
-0.5
-0.315
-0.1
-0.02
-0.035
-0.025
-0.01
0.0
0.0
0.0
0.0
0.005
0.01
0.01
0.01
0.015
0.02
0.025
0.03
0.035
0.045
0.055
0.055
0.065
0.07
0.07
0.07
0.06
0.04
0.02
0.0
-0.005
0.0
0.0
0.0
0.005
0.0
0.005
0.005
0.0
0.005
0.0
0.005
0.005
0.01
0.01
0.015
0.01
0.015
0.015
0.02
0.02
0.02
0.025
0.025
0.03
0.03
0.025
0.03
0.035
0.035
0.03
0.03
0.035
0.03
0.025
-0.01
0.0
0.005
-0.01
0.025
0.04
0.035
0.035
0.04
0.035
0.03
0.025
0.025
0.025
0.02
0.025
0.04
0.165
0.0
-0.4
-0.465
-0.285
-0.07
-0.015
-0.025
-0.01
-0.005
0.0
0.0
0.005
0.01
0.01
0.01
0.015
0.015
0.02
0.02
0.025
0.025
0.035
0.04
0.05
0.055
0.06
0.06
0.065
0.065
0.05
0.03
0.01
0.0
-0.005
-0.01
-0.005
0.0
0.0
0.0
0.0
0.0
0.0
0.0
0.0
0.0
0.0
0.0
0.0
0.0
0.0
0.0
0.005
0.005
0.005
0.005
0.005
0.015
0.01
0.01
0.01
0.015
0.015
0.015
0.015
0.02
0.015
0.015
0.015
0.015
0.015
0.015
-0.015
0.0
0.0
-0.02
0.015
0.03
0.01
0.015
0.02
0.015
0.01
0.01
0.005
0.005
0.0
0.015
0.03
0.185
-0.095
-0.535
-0.465
-0.275
-0.065
-0.045
-0.045
-0.03
-0.025
-0.015
-0.01
-0.005
0.0
-0.005
0.0
0.0
0.0
0.01
0.01
0.015
0.02
0.02
0.03
0.035
0.035
0.04
0.045
0.045
0.035
0.03
0.005
0.0
-0.02
-0.02
-0.015
-0.01
0.0
-0.005
0.0
0.0
0.0
0.0
0.0
0.0
0.0
0.0
0.005
0.0
0.0
0.01
0.005
0.01
0.0
0.01
0.01
0.02
0.01
0.015
0.015
0.03
0.02
0.025
0.02
0.025
0.02
0.02
0.02
0.03
0.03
-0.005
0.01
-0.005
-0.015
0.025
0.035
0.03
0.03
0.03
0.03
0.02
0.025
0.02
0.02
0.015
0.07
0.13
0.155
-0.3
-0.67
-0.465
-0.165
0.01
-0.045
-0.02
0.0
0.0
0.01
0.01
0.01
0.015
0.01
0.025
0.02
0.02
0.03
0.03
0.04
0.04
0.045
0.04
0.05
0.06
0.06
0.065
0.05
0.045
0.03
0.005
-0.01
-0.015
-0.015
-0.015
-0.005
-0.005
-0.005
0.0
0.0
0.0
0.005
0.005
0.005
0.01
0.01
0.01
0.02
0.015
0.015
0.02
0.01
0.02
0.015
0.015
0.02
0.03
0.025
0.025
0.035
0.03
0.04
0.035
0.04
0.035
0.04
0.045
0.045
0.01
0.005
-0.005
-0.015
0.035
0.045
0.035
0.04
0.045
0.045
0.04
0.04
0.035
0.035
0.03
0.08
0.14
0.1
-0.38
-0.645
-0.425
-0.145
0.015
-0.025
-0.005
0.0
0.005
0.005
0.015
0.01
0.015
0.015
0.02
0.025
0.025
0.03
0.035
0.035
0.04
0.045
0.05
0.055
0.06
0.06
0.06
0.055
0.045
0.025
0.0
-0.015
-0.025
-0.025
-0.015
-0.01
0.0
-0.005
0.0
0.0
-0.005
0.0
0.0
0.0
0.005
0.0
0.005
0.015
0.015
0.015
0.02
0.015
0.02
0.02
0.025
0.02
0.025
0.025
0.03
0.025
0.03
0.03
0.03
0.03
0.03
0.03
0.035
0.03
0.04
0.03
0.04
0.04
-0.01
0.015
0.0
-0.01
0.04
0.045
0.03
0.04
0.04
0.03
0.035
0.02
0.025
0.015
0.05
0.05
0.145
-0.275
-0.655
-0.355
-0.17
0.005
-0.03
-0.02
-0.005
-0.005
0.0
0.0
0.0
0.0
0.005
0.005
0.005
0.005
0.01
0.015
0.015
0.015
0.025
0.03
0.035
0.035
0.04
0.035
0.03
0.02
0.005
-0.02
-0.035
-0.045
-0.04
-0.035
-0.02
-0.02
-0.01
-0.01
-0.005
-0.005
-0.01
-0.005
-0.01
-0.005
-0.005
0.0
0.0
0.0
0.0
0.0
0.0
0.005
0.01
0.005
0.01
0.01
0.01
0.015
0.01
0.015
0.015
0.02
0.015
0.015
0.015
0.02
0.015
0.02
0.015
0.02
0.01
-0.025
0.01
-0.01
-0.005
0.02
0.03
0.025
0.025
0.025
0.02
0.02
0.01
0.01
0.005
0.05
0.085
0.12
-0.295
-0.625
-0.385
-0.155
-0.01
-0.04
-0.025
-0.015
-0.01
-0.005
-0.005
0.0
0.0
0.0
0.0
0.005
0.005
0.005
0.01
0.02
0.02
0.03
0.035
0.04
0.045
0.05
0.045
0.04
0.035
0.02
0.0
-0.015
-0.025
-0.02
-0.02
-0.01
-0.005
-0.005
-0.005
-0.005
-0.005
-0.005
-0.005
0.0
0.0
0.0
0.0
0.0
0.005
0.005
0.005
0.005
0.01
0.01
0.01
0.01
0.01
0.01
0.015
0.015
0.01
0.015
0.01
0.015
0.015
0.02
0.015
0.02
0.015
0.025
0.02
-0.02
0.015
-0.005
0.0
0.02
0.035
0.03
0.025
0.03
0.015
0.015
0.01
0.015
0.005
0.05
0.085
0.16
-0.255
-0.65
-0.42
-0.175
-0.01
-0.045
-0.035
-0.02
-0.015
-0.005
-0.005
0.0
0.0
0.0
0.0
0.005
0.0
0.01
0.01
0.015
0.02
0.025
0.025
0.035
0.04
0.04
0.035
0.035
0.025
0.01
-0.01
-0.025
-0.035
-0.03
-0.025
-0.02
-0.015
-0.01
-0.01
-0.01
-0.01
-0.01
-0.01
-0.01
-0.005
-0.005
-0.005
0.0
0.0
0.0
0.005
0.0
0.005
0.0
0.01
0.01
0.01
0.01
0.015
0.01
0.01
0.01
0.015
0.015
0.015
0.01
0.015
0.01
0.015
0.015
-0.02
0.005
-0.01
-0.025
0.025
0.03
0.02
0.015
0.025
0.015
0.015
0.01
0.01
0.0
0.03
0.045
0.21
-0.1
-0.62
-0.475
-0.265
-0.065
-0.04
-0.04
-0.02
-0.015
-0.005
-0.005
0.0
0.0
0.0
0.0
0.005
0.005
0.01
0.015
0.015
0.02
0.025
0.025
0.035
0.035
0.04
0.04
0.045
0.03
0.02
0.0
-0.02
-0.035
-0.03
-0.03
-0.02
-0.015
-0.01
-0.01
-0.005
-0.005
0.0
0.0
0.0
0.0
0.0
0.0
0.0
0.0
0.0
0.01
0.005
0.01
0.01
0.01
0.01
0.015
0.015
0.01
0.015
0.015
0.015
0.015
0.015
0.01
0.015
0.015
0.02
0.005
-0.015
0.0
-0.02
0.0
0.02
0.035
0.03
0.03
0.025
0.025
0.03
0.015
0.01
0.01
0.065
0.12
0.175
-0.27
-0.68
-0.475
-0.175
-0.005
-0.035
-0.025
-0.01
-0.005
0.0
0.0
0.01
0.0
0.01
0.01
0.005
0.015
0.015
0.015
0.025
0.025
0.03
0.03
0.045
0.04
0.04
0.04
0.035
0.025
0.005
-0.015
-0.03
-0.03
-0.035
-0.03
-0.025
-0.005
-0.01
-0.01
-0.005
-0.005
0.0
0.0
0.0
0.0
0.005
0.01
0.01
0.01
0.015
0.015
0.01
0.015
0.01
0.015
0.015
0.025
0.015
0.025
0.02
0.025
0.015
0.025
0.025
0.03
0.01
-0.02
0.0
-0.025
-0.035
0.02
0.03
0.025
0.03
0.035
0.025
0.025
0.025
0.025
0.015
0.05
0.07
0.21
-0.075
-0.68
-0.51
-0.305
-0.075
0.0
-0.03
-0.005
0.0
0.005
0.005
0.01
0.015
0.02
0.02
0.035
0.02
0.03
0.035
0.035
0.04
0.05
0.035
0.05
0.05
0.055
0.06
0.055
0.04
0.035
0.005
-0.01
-0.025
-0.03
-0.025
-0.02
-0.005
-0.005
0.0
-0.005
-0.005
0.0
-0.005
0.0
0.0
0.0
0.015
0.01
0.015
0.015
0.025
0.02
0.025
0.03
0.03
0.03
0.03
0.03
0.035
0.03
0.03
0.03
0.035
0.03
0.035
0.03
0.0
0.0
-0.02
-0.025
0.02
0.03
0.03
0.035
0.04
0.03
0.035
0.03
0.025
0.025
0.025
0.065
0.14
0.025
-0.455
-0.575
-0.385
-0.135
0.005
-0.03
-0.01
-0.005
0.0
0.005
0.01
0.005
0.015
0.015
0.02
0.015
0.02
0.02
0.025
0.025
0.03
0.035
0.035
0.045
0.045
0.045
0.04
0.035
0.02
0.0
-0.025
-0.035
-0.04
-0.035
-0.03
-0.025
-0.015
-0.01
-0.01
-0.015
-0.01
-0.005
-0.005
-0.005
-0.005
0.0
0.0
0.0
0.0
0.005
0.005
0.005
0.005
0.01
0.015
0.01
0.01
0.015
0.015
0.02
0.02
0.02
0.02
0.02
0.02
0.025
0.02
0.025
0.015
-0.025
-0.02
-0.02
-0.025
0.005
0.02
0.02
0.025
0.025
0.02
0.015
0.02
0.01
0.01
0.005
0.035
0.085
0.04
-0.335
-0.565
-0.345
-0.12
-0.01
-0.04
-0.025
-0.01
-0.005
0.0
0.0
0.0
0.0
0.005
0.005
0.005
0.005
0.005
0.01
0.015
0.025
0.025
0.035
0.035
0.04
0.04
0.04
0.04
0.025
0.005
-0.015
-0.03
-0.035
-0.03
-0.02
-0.02
-0.01
-0.01
-0.005
-0.005
-0.005
-0.005
0.0
0.0
0.0
0.0
0.0
0.005
0.0
0.005
0.005
0.005
0.005
0.01
0.01
0.01
0.01
0.015
0.015
0.015
0.01
0.015
0.015
0.015
0.015
0.02
0.015
0.02
0.01
0.02
0.0
-0.03
0.005
-0.02
-0.01
0.015
0.04
0.025
0.02
0.03
0.02
0.015
0.01
0.01
0.01
0.035
0.045
0.21
-0.095
-0.565
-0.435
-0.25
-0.04
-0.03
-0.035
-0.015
-0.01
0.0
-0.005
0.0
0.0
0.005
0.0
0.005
0.01
0.01
0.01
0.015
0.02
0.02
0.025
0.035
0.04
0.045
0.04
0.045
0.035
0.025
0.005
-0.01
-0.025
-0.03
-0.025
-0.015
-0.01
-0.005
-0.005
0.0
-0.005
0.0
-0.005
0.0
0.0
0.0
0.0
0.0
0.0
0.0
0.0
0.005
0.005
0.005
0.01
0.01
0.01
0.005
0.01
0.01
0.015
0.01
0.005
0.01
0.01
0.015
0.02
0.015
0.015
0.015
0.015
-0.01
-0.005
0.0
-0.015
0.015
0.025
0.02
0.025
0.035
0.025
0.015
0.025
0.015
0.015
0.005
0.055
0.1
0.18
-0.235
-0.63
-0.425
-0.165
-0.005
-0.035
-0.02
-0.01
-0.005
0.0
0.0
0.0
0.0
0.005
0.01
0.015
0.015
0.02
0.015
0.025
0.02
0.035
0.03
0.04
0.045
0.04
0.04
0.04
0.03
0.005
-0.01
-0.03
-0.035
-0.03
-0.025
-0.015
-0.01
-0.005
0.0
0.0
-0.005
-0.005
0.0
0.0
0.005
0.005
0.005
0.005
0.01
0.005
0.01
0.005
0.005
0.015
0.015
0.015
0.015
0.015
0.02
0.015
0.025
0.015
0.02
0.015
0.02
0.015
0.025
0.015
0.02
0.02
0.03
0.025
-0.005
0.01
-0.015
-0.03
0.025
0.04
0.03
0.035
0.04
0.03
0.035
0.02
0.025
0.02
0.025
0.075
0.175
0.065
-0.44
-0.56
-0.39
-0.125
0.01
-0.03
-0.005
0.0
0.005
0.005
0.015
0.01
0.015
0.015
0.025
0.025
0.025
0.025
0.025
0.03
0.04
0.045
0.045
0.05
0.055
0.055
0.055
0.05
0.04
0.015
-0.005
-0.02
-0.02
-0.03
-0.015
-0.01
0.0
0.0
-0.005
0.0
0.0
0.0
0.0
0.005
0.01
0.01
0.01
0.015
0.015
0.02
0.02
0.02
0.02
0.02
0.02
0.02
0.02
0.025
0.025
0.025
0.025
0.03
0.02
0.03
0.025
0.035
0.03
0.03
0.025
0.035
0.025
0.035
0.03
-0.005
0.005
-0.015
-0.02
0.025
0.03
0.025
0.03
0.035
0.03
0.03
0.025
0.025
0.015
0.045
0.065
0.2
-0.125
-0.635
-0.465
-0.28
-0.07
-0.02
-0.035
-0.015
-0.01
0.0
0.0
0.005
0.0
0.005
0.005
0.005
0.01
0.01
0.01
0.015
0.02
0.025
0.025
0.035
0.035
0.04
0.04
0.04
0.03
0.015
-0.005
-0.02
-0.04
-0.04
-0.035
-0.02
-0.015
-0.01
-0.005
-0.005
-0.005
-0.005
-0.005
0.0
0.0
0.0
0.0
0.005
0.0
0.005
0.005
0.005
0.005
0.01
0.01
0.015
0.015
0.02
0.015
0.02
0.02
0.02
0.025
0.02
0.02
0.02
0.02
0.025
0.02
0.025
0.02
0.025
0.025
0.03
0.025
0.03
0.025
-0.01
0.005
0.0
-0.02
0.03
0.03
0.02
0.025
0.03
0.025
0.02
0.01
0.015
0.015
0.045
0.05
0.21
-0.175
-0.625
-0.4
-0.22
-0.02
-0.035
-0.03
-0.015
-0.01
0.0
-0.005
0.0
0.0
0.005
0.0
0.01
0.01
0.015
0.015
0.025
0.02
0.025
0.03
0.04
0.04
0.05
0.045
0.045
0.04
0.02
0.0
-0.015
-0.03
-0.03
-0.025
-0.01
-0.01
0.0
-0.005
0.0
0.0
0.0
0.0
0.0
0.0
0.0
0.0
0.0
0.0
0.0
0.005
0.005
0.005
0.01
0.01
0.01
0.01
0.015
0.01
0.015
0.015
0.015
0.015
0.02
0.025
0.03
0.025
0.025
0.025
0.03
0.025
0.03
0.025
0.025
0.025
0.03
0.02
-0.015
0.015
-0.01
0.0
0.03
0.045
0.03
0.03
0.035
0.02
0.025
0.015
0.02
0.01
0.055
0.11
0.11
-0.3
-0.58
-0.37
-0.14
-0.005
-0.03
-0.02
-0.005
-0.005
0.0
0.0
0.01
0.005
0.01
0.005
0.01
0.01
0.015
0.02
0.02
0.02
0.03
0.03
0.035
0.04
0.045
0.045
0.04
0.025
0.01
-0.01
-0.02
-0.035
-0.02
-0.02
-0.01
-0.01
0.0
-0.005
-0.005
0.0
0.0
0.0
0.0
0.0
0.0
0.0
0.0
0.0
0.0
0.0
0.0
0.0
0.0
0.0
0.005
0.005
0.005
0.01
0.01
0.01
0.005
0.01
0.015
0.015
0.015
0.015
0.015
0.015
0.015
0.02
0.02
0.02
0.01
-0.02
0.005
-0.015
-0.025
0.02
0.04
0.015
0.015
0.03
0.02
0.025
0.015
0.015
0.01
0.065
0.09
0.24
-0.16
-0.685
-0.475
-0.195
-0.01
-0.03
-0.015
-0.005
0.0
0.0
0.005
0.005
0.01
0.015
0.005
0.01
0.015
0.025
0.025
0.025
0.03
0.03
0.04
0.04
0.04
0.045
0.04
0.045
0.03
0.015
-0.01
-0.03
-0.04
-0.035
-0.025
-0.015
-0.015
-0.015
-0.005
0.0
0.0
-0.005
0.0
0.0
0.005
0.005
0.005
0.005
0.005
0.01
0.01
0.02
0.01
0.015
0.025
0.02
0.015
0.015
0.025
0.02
0.015
0.025
0.02
0.02
0.02
0.02
0.025
0.025
0.02
0.0
-0.015
-0.015
-0.035
0.015
0.02
0.02
0.025
0.04
0.02
0.03
0.02
0.025
0.01
0.05
0.08
0.21
-0.065
-0.68
-0.51
-0.31
-0.085
-0.015
-0.03
-0.015
-0.015
0.0
0.0
0.005
0.01
0.01
0.01
0.015
0.01
0.025
0.02
0.03
0.03
0.035
0.045
0.045
0.055
0.055
0.055
0.055
0.045
0.035
0.01
-0.005
-0.025
-0.03
-0.025
-0.025
-0.005
-0.005
-0.005
0.0
0.0
0.0
0.0
0.01
0.005
0.005
0.015
0.02
0.02
0.03
0.03
0.02
0.025
0.025
0.03
0.03
0.035
0.025
0.035
0.025
0.03
0.025
0.03
0.025
0.035
0.02
-0.01
0.015
-0.01
-0.01
0.03
0.045
0.035
0.035
0.045
0.035
0.035
0.025
0.03
0.015
0.07
0.085
0.21
-0.21
-0.735
-0.455
-0.205
-0.02
-0.025
-0.02
0.0
-0.005
0.0
0.005
0.01
0.005
0.01
0.01
0.015
0.01
0.02
0.015
0.025
0.025
0.03
0.04
0.055
0.05
0.055
0.055
0.025
0.0
0.02
0.015
0.0
-0.02
-0.025
-0.02
-0.01
0.0
0.0
0.0
0.0
0.0
0.0
0.005
0.005
0.005
0.01
0.01
0.01
0.015
0.02
0.02
0.025
0.02
0.02
0.025
0.025
0.025
0.025
0.025
0.025
0.025
0.03
0.03
0.025
0.015
-0.015
-0.01
0.0
-0.005
0.03
0.035
0.035
0.035
0.04
0.04
0.015
-0.01
-0.015
0.05
0.055
0.055
0.13
0.005
-0.365
-0.51
-0.325
-0.1
-0.01
-0.03
-0.015
-0.005
0.0
0.0
0.0
0.01
0.01
0.01
0.01
0.01
0.015
0.015
0.02
0.025
0.03
0.04
0.04
0.05
0.055
0.05
0.05
0.045
0.035
0.01
-0.005
-0.02
-0.025
-0.015
-0.005
-0.005
0.0
0.0
0.0
0.0
0.0
0.0
0.0
0.0
0.0
0.005
0.0
0.005
0.0
0.005
0.005
0.01
0.005
0.005
0.01
0.015
0.015
0.005
0.015
0.01
0.015
0.01
0.005
-0.02
-0.015
-0.01
-0.015
0.0
0.02
0.015
0.02
0.025
0.02
0.015
0.015
0.01
0.01
0.0
0.04
0.07
0.22
-0.16
-0.66
-0.45
-0.185
-0.01
-0.04
-0.025
-0.01
0.0
0.005
0.0
0.005
0.005
0.01
0.0
0.015
0.01
0.01
0.02
0.02
0.03
0.035
0.035
0.05
0.05
0.045
0.045
0.05
0.03
0.02
-0.005
-0.02
-0.025
-0.025
-0.025
-0.01
-0.01
-0.005
-0.005
0.0
0.0
0.0
0.0
0.0
0.0
0.0
0.0
0.0
0.01
0.01
0.01
0.02
0.01
0.02
0.02
0.015
0.02
0.02
0.025
0.03
0.02
0.025
0.02
0.025
0.0
-0.005
-0.005
-0.015
0.01
0.025
0.02
0.04
0.035
0.03
0.02
0.03
0.02
0.025
0.015
0.075
0.09
0.235
-0.16
-0.75
-0.495
-0.21
-0.02
-0.02
-0.02
-0.005
0.0
0.01
0.005
0.02
0.01
0.025
0.025
0.025
0.02
0.03
0.03
0.035
0.035
0.045
0.045
0.05
0.06
0.065
0.06
0.055
0.045
0.04
0.01
-0.005
-0.015
-0.025
-0.015
-0.01
-0.005
0.0
0.0
0.0
0.0
0.0
0.0
0.0
0.005
0.005
0.01
0.015
0.015
0.02
0.02
0.02
0.02
0.02
0.025
0.025
0.025
0.025
0.025
0.02
0.02
0.025
0.025
-0.005
-0.025
-0.01
-0.03
0.0
0.015
0.03
0.035
0.03
0.035
0.025
0.025
0.025
0.025
0.02
0.05
0.05
0.205
-0.145
-0.645
-0.45
-0.255
-0.055
-0.025
-0.03
-0.005
-0.005
0.005
0.0
0.005
0.01
0.01
0.01
0.015
0.015
0.015
0.015
0.025
0.025
0.03
0.035
0.045
0.045
0.05
0.05
0.04
0.035
0.02
0.0
-0.02
-0.03
-0.03
-0.02
-0.015
-0.01
-0.005
-0.005
0.0
-0.005
0.0
0.0
0.0
0.0
0.0
0.0
0.0
0.005
0.005
0.005
0.01
0.01
0.01
0.015
0.01
0.02
0.015
0.02
0.02
0.02
0.015
0.02
0.02
0.025
0.02
0.025
0.005
-0.035
0.0
-0.02
-0.015
0.015
0.035
0.015
0.025
0.03
0.025
0.015
0.02
0.015
0.015
0.02
0.035
0.135
-0.005
-0.385
-0.51
-0.315
-0.09
-0.015
-0.035
-0.015
-0.01
0.0
0.0
0.0
0.0
0.005
0.005
0.005
0.01
0.01
0.01
0.015
0.02
0.025
0.03
0.035
0.04
0.05
0.05
0.05
0.045
0.035
0.015
-0.005
-0.015
-0.025
-0.02
-0.015
-0.01
-0.005
0.0
0.0
0.0
0.0
0.0
0.0
0.0
0.0
0.0
0.005
0.005
0.005
0.005
0.005
0.01
0.01
0.01
0.01
0.01
0.02
0.02
0.015
0.015
0.015
0.015
0.015
0.015
0.015
0.015
0.015
0.015
0.015
-0.015
-0.02
-0.005
-0.02
0.0
0.02
0.025
0.025
0.02
0.02
0.01
0.015
0.01
0.01
0.005
0.045
0.065
0.215
-0.185
-0.655
-0.415
-0.195
-0.015
-0.04
-0.03
-0.015
-0.01
0.0
0.0
0.005
0.0
0.005
0.005
0.005
0.005
0.015
0.01
0.02
0.02
0.03
0.03
0.04
0.04
0.05
0.05
0.05
0.04
0.03
0.005
-0.01
-0.02
-0.02
-0.02
-0.01
-0.01
0.0
-0.005
0.0
0.0
0.0
0.0
0.0
0.0
0.0
0.0
0.005
0.005
0.01
0.01
0.01
0.01
0.01
0.015
0.015
0.015
0.02
0.015
0.02
0.015
0.02
0.02
0.015
0.02
0.02
0.015
0.02
0.02
0.02
0.01
-0.02
0.0
-0.01
-0.02
0.02
0.035
0.02
0.025
0.03
0.025
0.02
0.015
0.015
0.015
0.015
0.045
0.145
0.045
-0.375
-0.555
-0.345
-0.115
-0.015
-0.035
-0.015
-0.005
0.0
0.0
0.005
0.005
0.01
0.01
0.015
0.015
0.015
0.015
0.025
0.03
0.03
0.035
0.04
0.045
0.05
0.05
0.05
0.05
0.035
0.015
-0.005
-0.02
-0.02
-0.025
-0.015
-0.01
-0.005
-0.005
0.0
0.0
0.0
-0.005
0.005
0.0
0.0
0.005
0.01
0.005
0.01
0.01
0.01
0.015
0.015
0.01
0.02
0.02
0.025
0.015
0.025
0.02
0.02
0.015
0.03
0.025
0.02
0.025
0.03
0.015
-0.015
0.01
-0.015
-0.02
0.025
0.045
0.025
0.025
0.04
0.025
0.025
0.025
0.025
0.015
0.03
0.075
0.175
0.065
-0.44
-0.575
-0.395
-0.125
0.005
-0.025
-0.005
0.0
0.005
0.01
0.015
0.015
0.02
0.025
0.02
0.025
0.035
0.035
0.035
0.035
0.04
0.04
0.05
0.05
0.05
0.05
0.055
0.045
0.035
0.02
-0.005
-0.02
-0.025
-0.025
-0.015
-0.015
-0.01
0.0
0.0
-0.005
-0.01
0.0
0.005
0.0
0.0
0.005
0.01
0.01
0.01
0.015
0.02
0.02
0.02
0.02
0.025
0.025
0.025
0.025
0.03
0.025
0.02
0.025
0.03
0.03
0.025
0.035
0.025
0.035
0.02
-0.005
0.0
-0.02
-0.02
0.03
0.035
0.03
0.04
0.045
0.04
0.04
0.03
0.035
0.025
0.06
0.085
0.225
-0.08
-0.645
-0.485
-0.275
-0.06
0.0
-0.01
0.01
0.01
0.02
0.025
0.03
0.03
0.035
0.035
0.045
0.035
0.04
0.04
0.05
0.045
0.05
0.055
0.06
0.065
0.07
0.065
0.065
0.05
0.035
0.015
0.0
-0.02
-0.02
-0.02
-0.01
-0.005
0.0
0.0
0.0
0.0
0.0
0.0
0.0
0.005
0.01
0.01
0.015
0.015
0.015
0.02
0.02
0.02
0.025
0.025
0.03
0.025
0.03
0.03
0.03
0.03
0.035
0.03
0.035
0.035
0.03
0.03
0.035
0.035
0.04
0.02
-0.02
0.005
-0.015
-0.01
0.03
0.04
0.025
0.035
0.04
0.03
0.03
0.025
0.03
0.025
0.05
0.055
0.19
-0.185
-0.605
-0.415
-0.235
-0.025
-0.02
-0.02
0.0
0.0
0.005
0.005
0.015
0.015
0.015
0.015
0.02
0.015
0.02
0.02
0.025
0.025
0.035
0.03
0.04
0.04
0.045
0.045
0.04
0.03
0.015
-0.005
-0.025
-0.035
-0.04
-0.03
-0.02
-0.01
-0.005
-0.005
0.0
0.0
0.0
-0.005
0.0
0.0
0.0
0.0
0.0
0.005
0.005
0.01
0.01
0.01
0.015
0.015
0.015
0.015
0.015
0.01
0.015
0.015
0.015
0.015
0.02
0.02
0.015
0.02
0.02
0.015
0.02
0.015
0.015
-0.015
-0.005
-0.01
-0.02
0.015
0.03
0.015
0.025
0.03
0.02
0.02
0.015
0.015
0.01
0.005
0.045
0.115
0.08
-0.33
-0.595
-0.37
-0.135
-0.01
-0.035
-0.025
-0.01
-0.005
-0.005
0.0
0.0
0.0
0.005
0.0
0.005
0.005
0.015
0.01
0.015
0.015
0.02
0.025
0.03
0.035
0.04
0.04
0.03
0.02
0.0
-0.02
-0.035
-0.045
-0.04
-0.03
-0.03
-0.025
-0.015
-0.015
-0.015
-0.015
-0.01
-0.01
-0.01
-0.005
0.0
-0.005
0.0
0.0
0.0
0.005
0.0
0.005
0.005
0.01
0.01
0.01
0.01
0.01
0.01
0.015
0.02
0.015
0.015
0.02
0.02
0.02
0.02
0.02
0.025
0.025
0.02
0.02
-0.005
-0.005
0.0
-0.015
0.02
0.035
0.03
0.03
0.035
0.035
0.025
0.03
0.025
0.025
0.015
0.06
0.115
0.145
-0.28
-0.615
-0.385
-0.145
0.0
-0.035
-0.02
-0.005
0.0
0.005
0.005
0.01
0.005
0.015
0.01
0.025
0.015
0.02
0.025
0.025
0.03
0.035
0.035
0.04
0.045
0.05
0.045
0.04
0.03
0.005
-0.015
-0.03
-0.035
-0.035
-0.025
-0.025
-0.02
-0.01
-0.015
-0.015
-0.01
-0.01
-0.01
-0.005
-0.01
-0.005
0.0
0.005
0.0
0.0
0.0
0.0
0.005
0.0
0.005
0.005
0.005
0.005
0.01
0.01
0.01
0.015
0.01
0.01
0.01
0.015
0.015
0.01
0.01
0.02
0.01
-0.005
-0.01
-0.015
-0.035
0.02
0.025
0.015
0.015
0.03
0.025
0.025
0.015
0.015
0.01
0.02
0.07
0.17
0.08
-0.425
-0.59
-0.405
-0.13
0.005
-0.02
-0.01
0.0
0.005
0.01
0.02
0.015
0.025
0.025
0.03
0.03
0.03
0.03
0.04
0.035
0.04
0.05
0.05
0.055
0.06
0.055
0.06
0.055
0.035
0.025
0.0
-0.02
-0.02
-0.015
-0.01
-0.005
0.0
0.0
0.0
0.0
0.0
0.0
0.005
0.005
0.01
0.005
0.015
0.02
0.015
0.015
0.015
0.025
0.02
0.02
0.02
0.015
0.03
0.025
0.025
0.025
0.025
0.025
0.03
0.025
0.025
0.025
0.03
0.005
-0.01
0.0
-0.03
0.005
0.015
0.035
0.035
0.03
0.04
0.025
0.03
0.025
0.03
0.025
0.085
0.145
0.145
-0.33
-0.685
-0.46
-0.16
0.01
-0.015
0.0
0.005
0.015
0.025
0.025
0.025
0.03
0.035
0.04
0.04
0.04
0.045
0.045
0.05
0.05
0.05
0.06
0.065
0.065
0.065
0.06
0.06
0.045
0.03
0.0
-0.01
-0.025
-0.025
-0.02
-0.01
-0.005
0.0
0.0
0.0
-0.005
-0.005
0.0
0.0
0.005
0.005
0.01
0.01
0.01
0.005
0.01
0.015
0.015
0.02
0.015
0.015
0.025
0.02
0.025
0.02
0.02
0.025
0.025
0.025
0.03
0.02
-0.005
-0.01
-0.01
-0.015
0.015
0.02
0.035
0.035
0.045
0.04
0.035
0.035
0.03
0.03
0.04
0.065
0.17
-0.065
-0.505
-0.485
-0.295
-0.075
0.0
-0.01
0.0
0.0
0.01
0.015
0.02
0.02
0.025
0.025
0.025
0.025
0.03
0.03
0.035
0.035
0.045
0.045
0.05
0.055
0.055
0.055
0.05
0.04
0.025
0.005
-0.015
-0.03
-0.03
-0.02
-0.015
-0.01
0.0
0.0
0.0
0.0
0.005
0.005
0.0
0.005
0.005
0.005
0.005
0.01
0.01
0.015
0.015
0.015
0.015
0.02
0.02
0.025
0.025
0.025
0.025
0.03
0.025
0.025
0.03
0.025
0.02
-0.01
0.0
0.0
-0.01
0.02
0.025
0.025
0.03
0.035
0.025
0.025
0.025
0.02
0.015
0.025
0.045
0.175
-0.005
-0.45
-0.5
-0.305
-0.085
-0.01
-0.025
-0.005
0.0
0.005
0.005
0.015
0.015
0.015
0.015
0.025
0.025
0.02
0.025
0.025
0.035
0.035
0.04
0.05
0.05
0.05
0.055
0.05
0.045
0.035
0.015
-0.005
-0.015
-0.025
-0.02
-0.01
-0.005
0.0
0.0
0.0
0.0
0.0
0.0
0.0
0.005
0.005
0.01
0.01
0.01
0.015
0.015
0.015
0.02
0.025
0.02
0.015
0.02
0.02
0.02
0.025
0.025
0.02
0.02
0.02
-0.01
-0.005
0.0
-0.015
0.01
0.025
0.02
0.02
0.02
0.02
0.015
0.015
0.005
0.01
0.005
0.045
0.105
0.175
-0.23
-0.63
-0.41
-0.165
-0.005
-0.035
-0.02
-0.005
0.0
0.005
0.005
0.01
0.01
0.015
0.015
0.02
0.02
0.025
0.02
0.035
0.035
0.04
0.04
0.05
0.05
0.05
0.05
0.045
0.035
0.02
0.0
-0.02
-0.025
-0.02
-0.015
-0.005
-0.01
-0.005
0.0
0.0
0.0
0.0
0.0
0.0
0.0
0.005
0.005
0.005
0.01
0.01
0.005
0.005
0.01
0.01
0.01
0.01
0.005
0.01
0.01
0.01
0.005
0.0
-0.025
-0.015
-0.015
-0.03
0.0
0.02
0.015
0.025
0.02
0.015
0.005
0.01
0.01
0.01
0.0
0.04
0.095
0.205
-0.195
-0.64
-0.445
-0.175
-0.01
-0.04
-0.025
-0.01
-0.005
0.0
0.0
0.0
0.005
0.015
0.01
0.02
0.02
0.02
0.03
0.025
0.03
0.04
0.04
0.05
0.055
0.055
0.045
0.045
0.035
0.02
0.0
-0.015
-0.025
-0.02
-0.01
-0.01
-0.005
-0.005
0.0
0.005
0.0
0.0
0.0
0.0
0.01
0.01
0.005
0.01
0.015
0.015
0.015
0.01
0.02
0.02
0.02
0.01
0.02
0.015
0.025
0.0
-0.02
0.005
-0.025
-0.025
0.02
0.04
0.025
0.02
0.035
0.015
0.015
0.01
0.02
0.01
0.03
0.065
0.195
0.005
-0.565
-0.535
-0.345
-0.11
-0.005
-0.03
-0.01
-0.005
0.01
0.01
0.015
0.01
0.025
0.025
0.025
0.03
0.035
0.03
0.04
0.05
0.055
0.055
0.06
0.065
0.07
0.07
0.065
0.065
0.05
0.03
0.015
-0.01
-0.01
-0.005
-0.01
0.0
0.0
0.0
0.005
0.0
0.0
0.01
0.005
0.02
0.015
0.02
0.025
0.02
0.035
0.03
0.035
0.035
0.04
0.04
0.045
0.04
0.04
0.035
0.035
0.01
0.0
0.005
-0.015
0.015
0.04
0.035
0.05
0.045
0.05
0.04
0.04
0.04
0.035
0.03
0.085
0.12
0.21
-0.225
-0.71
-0.445
-0.165
0.005
-0.02
-0.005
0.005
0.01
0.015
0.02
0.025
0.02
0.025
0.025
0.035
0.03
0.035
0.035
0.045
0.045
0.05
0.05
0.06
0.06
0.065
0.065
0.06
0.05
0.035
0.005
-0.01
-0.02
-0.02
-0.015
-0.005
0.0
0.0
0.0
0.0
0.0
0.0
0.0
0.0
0.0
0.005
0.005
0.005
0.01
0.015
0.01
0.015
0.015
0.02
0.02
0.025
0.025
0.025
0.025
0.025
0.01
-0.025
-0.01
-0.025
-0.015
0.015
0.03
0.02
0.03
0.035
0.025
0.02
0.025
0.015
0.015
0.01
0.035
0.095
0.055
-0.305
-0.56
-0.345
-0.12
-0.005
-0.03
-0.02
-0.005
0.0
0.0
0.0
0.01
0.005
0.01
0.01
0.02
0.015
0.02
0.025
0.025
0.03
0.035
0.035
0.045
0.045
0.05
0.045
0.045
0.03
0.01
-0.01
-0.02
-0.025
-0.025
-0.015
-0.01
-0.005
0.0
0.0
0.0
0.0
0.0
0.0
0.0
0.0
0.0
0.0
0.0
0.005
0.005
0.005
0.01
0.01
0.01
0.015
0.01
0.02
0.015
0.02
0.0
-0.035
0.005
-0.025
-0.02
0.02
0.04
0.02
0.025
0.025
0.02
0.015
0.02
0.015
0.015
0.01
0.035
0.11
0.12
-0.265
-0.56
-0.355
-0.13
-0.01
-0.035
-0.02
-0.005
-0.005
0.005
0.0
0.005
0.005
0.01
0.01
0.015
0.015
0.015
0.025
0.025
0.025
0.035
0.045
0.045
0.05
0.055
0.055
0.045
0.04
0.02
0.0
-0.01
-0.02
-0.015
-0.01
-0.005
-0.005
0.0
0.0
0.0
0.0
0.0
0.0
0.005
0.005
0.005
0.005
0.01
0.01
0.01
0.01
0.015
0.015
0.02
0.02
0.02
0.02
0.02
0.015
0.015
0.02
0.015
-0.025
0.01
-0.015
-0.005
0.02
0.04
0.025
0.025
0.025
0.02
0.015
0.015
0.015
0.01
0.005
0.04
0.13
0.085
-0.32
-0.55
-0.35
-0.13
-0.015
-0.04
-0.025
-0.015
-0.01
-0.005
0.0
0.0
0.0
0.005
0.005
0.01
0.01
0.015
0.015
0.025
0.025
0.03
0.035
0.045
0.04
0.05
0.05
0.05
0.03
0.02
0.0
-0.015
-0.025
-0.02
-0.02
-0.01
-0.015
-0.03
-0.03
-0.025
-0.025
-0.02
-0.025
-0.02
-0.015
-0.01
-0.01
-0.01
-0.005
0.0
0.0
0.0
0.0
0.005
0.005
0.005
0.005
0.01
0.015
0.01
0.01
-0.02
0.0
-0.015
-0.035
0.01
0.03
0.01
0.01
0.015
0.015
0.005
0.01
0.0
0.0
0.0
0.05
0.085
0.22
-0.17
-0.73
-0.5
-0.2
-0.015
-0.04
-0.03
-0.015
-0.01
0.0
-0.005
0.0
0.005
0.015
0.01
0.015
0.015
0.015
0.02
0.025
0.03
0.035
0.04
0.045
0.05
0.05
0.045
0.045
0.04
0.02
0.0
-0.01
-0.025
-0.02
-0.02
-0.015
-0.01
-0.01
-0.005
0.0
0.0
0.0
0.0
0.0
0.0
0.01
0.01
0.02
0.01
0.015
0.015
0.025
0.025
0.025
0.03
0.035
0.03
0.025
0.02
0.03
0.015
-0.015
0.01
-0.025
-0.015
0.02
0.035
0.03
0.03
0.03
0.025
0.02
0.02
0.025
0.02
0.025
0.08
0.165
0.05
-0.445
-0.605
-0.395
-0.135
0.01
-0.025
-0.005
0.01
0.01
0.015
0.025
0.03
0.025
0.035
0.035
0.04
0.04
0.045
0.05
0.05
0.055
0.06
0.06
0.07
0.07
0.07
0.075
0.065
0.05
0.03
0.005
0.0
-0.01
-0.005
0.0
0.0
0.005
0.005
0.005
0.005
0.005
0.01
0.005
0.005
0.01
0.015
0.015
0.015
0.02
0.015
0.02
0.02
0.025
0.025
0.025
0.025
0.03
0.025
0.025
0.025
0.03
0.0
-0.025
0.0
-0.015
0.0
0.02
0.035
0.035
0.035
0.035
0.025
0.03
0.02
0.025
0.02
0.05
0.055
0.19
-0.2
-0.665
-0.415
-0.235
-0.025
-0.025
-0.02
-0.005
0.0
0.005
0.005
0.01
0.01
0.015
0.015
0.02
0.025
0.03
0.03
0.035
0.04
0.045
0.045
0.055
0.055
0.06
0.06
0.055
0.04
0.025
0.0
-0.015
-0.025
-0.02
-0.015
-0.005
0.0
0.0
0.005
0.005
0.0
0.005
0.005
0.005
0.0
0.01
0.005
0.01
0.01
0.02
0.02
0.02
0.02
0.02
0.025
0.02
0.025
0.03
0.025
0.025
0.02
0.03
0.02
-0.03
0.005
-0.01
-0.01
0.025
0.04
0.025
0.03
0.03
0.02
0.02
0.02
0.02
0.015
0.035
0.045
0.19
-0.075
-0.54
-0.475
-0.28
-0.065
-0.025
-0.03
-0.015
-0.005
0.0
0.005
0.01
0.01
0.015
0.01
0.015
0.015
0.015
0.02
0.025
0.03
0.035
0.04
0.045
0.05
0.055
0.06
0.055
0.045
0.035
0.01
-0.005
-0.02
-0.015
-0.01
0.0
0.0
0.0
0.0
0.005
0.005
0.005
0.005
0.005
0.005
0.01
0.01
0.01
0.015
0.015
0.015
0.02
0.015
0.02
0.02
0.025
0.02
0.025
0.025
0.025
0.02
0.025
0.0
-0.005
0.005
-0.015
0.015
0.03
0.03
0.03
0.03
0.025
0.015
0.02
0.015
0.015
0.005
0.055
0.095
0.185
-0.22
-0.665
-0.43
-0.175
-0.005
-0.04
-0.025
-0.01
-0.005
0.0
0.0
0.01
0.01
0.015
0.01
0.015
0.015
0.02
0.025
0.03
0.03
0.04
0.04
0.045
0.05
0.05
0.05
0.04
0.03
0.015
-0.005
-0.025
-0.025
-0.02
-0.01
-0.005
-0.005
0.0
0.0
0.0
0.0
0.0
0.005
0.005
0.01
0.005
0.01
0.01
0.015
0.02
0.015
0.02
0.025
0.02
0.025
0.025
0.02
0.025
0.025
0.03
0.005
0.0
-0.005
-0.025
0.02
0.035
0.03
0.03
0.03
0.03
0.03
0.025
0.02
0.02
0.015
0.08
0.125
0.2
-0.225
-0.73
-0.495
-0.18
0.0
-0.025
-0.01
0.0
0.01
0.01
0.02
0.025
0.02
0.03
0.025
0.035
0.035
0.04
0.035
0.045
0.04
0.05
0.05
0.06
0.06
0.065
0.06
0.055
0.05
0.03
0.015
-0.01
-0.01
-0.01
-0.01
0.0
0.0
0.0
0.0
0.0
0.01
0.005
0.01
0.01
0.015
0.01
0.025
0.015
0.025
0.025
0.025
0.025
0.025
0.02
0.03
0.025
0.035
0.03
0.03
0.025
0.0
0.0
-0.01
-0.03
0.025
0.035
0.025
0.03
0.04
0.03
0.025
0.025
0.03
0.02
0.035
0.08
0.175
0.025
-0.52
-0.585
-0.385
-0.115
0.01
-0.025
0.0
0.005
0.02
0.02
0.03
0.025
0.04
0.035
0.04
0.04
0.045
0.04
0.05
0.05
0.055
0.055
0.065
0.065
0.065
0.065
0.065
0.055
0.04
0.015
0.0
-0.02
-0.025
-0.02
-0.015
-0.01
-0.005
-0.005
-0.005
-0.005
-0.005
0.0
0.0
0.0
0.0
0.005
0.01
0.01
0.01
0.015
0.01
0.015
0.015
0.02
0.02
0.02
0.02
0.025
0.025
0.025
0.0
-0.02
0.0
-0.015
0.01
0.02
0.035
0.035
0.04
0.04
0.03
0.035
0.025
0.03
0.02
0.065
0.11
0.065
-0.355
-0.61
-0.365
-0.13
0.005
-0.025
-0.01
0.0
0.005
0.015
0.01
0.02
0.02
0.02
0.02
0.025
0.025
0.035
0.03
0.04
0.035
0.045
0.045
0.055
0.06
0.06
0.055
0.045
0.035
0.01
-0.01
-0.015
-0.02
-0.01
-0.005
0.0
0.005
0.01
0.005
0.01
0.01
0.01
0.01
0.015
0.01
0.01
0.01
0.02
0.02
0.02
0.02
0.025
0.025
0.025
0.02
0.03
0.03
0.03
0.0
-0.03
0.0
-0.03
-0.015
0.02
0.05
0.025
0.03
0.035
0.025
0.02
0.015
0.015
0.015
0.03
0.045
0.18
-0.05
-0.505
-0.49
-0.295
-0.08
-0.02
-0.035
-0.015
-0.005
0.0
0.0
0.005
0.005
