signal
0.015
0.015
0.005
0.01
0.005
0.01
0.0
0.0
0.05
0.14
0.18
-0.265
-0.585
-0.415
-0.15
0.01
-0.025
0.0
0.0
0.01
0.01
0.02
0.015
0.025
0.025
0.03
0.025
0.04
0.03
0.04
0.035
0.045
0.045
0.055
0.06
0.06
0.06
0.065
0.06
0.05
0.03
0.02
0.005
-0.005
-0.01
-0.005
-0.015
-0.005
-0.015
-0.005
-0.01
0.0
-0.01
0.0
0.0
0.005
0.005
0.005
0.005
0.015
0.005
0.015
0.01
0.015
0.015
0.015
0.02
0.025
0.015
0.02
0.02
0.02
0.015
0.025
0.0
-0.025
-0.01
-0.035
-0.03
0.0
0.03
0.015
0.02
0.025
0.015
0.01
0.01
0.01
0.01
0.01
0.065
0.1
0.245
-0.11
-0.73
-0.495
-0.22
-0.02
-0.01
-0.01
0.0
0.01
0.015
0.02
0.025
0.025
0.035
0.04
0.04
0.05
0.045
0.055
0.055
0.055
0.065
0.065
0.07
0.08
0.08
0.095
0.08
0.08
0.06
0.045
0.03
0.01
0.005
0.0
0.0
0.005
0.0
0.005
0.0
0.005
0.005
0.01
0.005
0.015
0.015
0.015
0.015
0.025
0.02
0.03
0.02
0.03
0.025
0.03
0.03
0.03
0.025
0.03
0.025
0.03
0.025
0.03
0.01
0.0
-0.025
-0.01
-0.01
-0.005
0.01
0.025
0.025
0.03
0.025
0.025
0.015
0.02
0.015
0.02
0.025
0.06
0.155
0.07
-0.38
-0.51
-0.35
-0.12
0.005
-0.025
-0.005
0.005
0.01
0.015
0.015
0.025
0.025
0.03
0.025
0.03
0.03
0.035
0.035
0.04
0.045
0.055
0.055
0.065
0.065
0.07
0.065
0.07
0.055
0.04
0.015
0.005
-0.005
0.0
-0.005
0.0
-0.005
0.0
0.0
0.0
0.0
0.0
0.0
0.005
0.0
0.005
0.005
0.01
0.01
0.015
0.01
0.015
0.015
0.015
0.015
0.02
0.015
0.015
0.015
0.02
0.015
0.02
0.02
0.02
0.015
0.0
-0.025
-0.01
-0.015
0.0
-0.005
0.03
0.01
0.02
0.02
0.02
0.01
0.015
0.01
0.015
0.01
0.035
0.045
0.235
-0.08
-0.55
-0.41
-0.225
-0.025
-0.02
-0.025
0.0
0.0
0.005
0.0
0.015
0.005
0.015
0.01
0.02
0.015
0.025
0.02
0.03
0.03
0.04
0.04
0.055
0.05
0.06
0.06
0.065
0.055
0.045
0.025
0.01
0.0
-0.005
-0.01
-0.005
-0.01
-0.005
-0.01
0.0
-0.01
0.0
-0.01
0.0
-0.005
0.0
0.0
0.0
0.0
0.0
0.0
0.0
0.0
0.005
0.0
0.005
0.005
0.01
0.01
0.01
0.01
0.015
0.01
0.01
0.01
0.01
0.005
-0.015
-0.035
0.005
-0.03
-0.02
0.005
0.035
0.01
0.02
0.01
0.01
0.0
0.01
0.0
0.01
-0.005
0.045
0.07
0.25
-0.125
-0.615
-0.42
-0.19
-0.005
-0.03
-0.025
-0.005
-0.005
0.005
0.0
0.01
0.005
0.015
0.01
0.02
0.01
0.02
0.02
0.035
0.025
0.045
0.04
0.055
0.055
0.065
0.06
0.065
0.055
0.05
0.025
0.015
0.0
0.0
-0.01
-0.005
-0.02
-0.005
-0.015
-0.01
-0.01
-0.01
-0.01
-0.01
-0.01
-0.005
-0.005
0.0
-0.005
0.0
-0.005
0.0
0.0
0.005
0.0
0.0
0.0
0.005
0.0
0.005
0.0
0.005
0.0
0.005
0.0
0.01
0.005
0.01
0.0
0.01
-0.015
-0.02
-0.025
-0.03
-0.02
-0.005
0.025
0.01
0.015
0.02
0.015
0.01
0.01
0.015
0.005
0.01
0.045
0.06
0.25
-0.06
-0.59
-0.43
-0.22
-0.025
-0.025
-0.02
-0.01
0.0
0.0
0.01
0.01
0.015
0.015
0.015
0.015
0.02
0.02
0.025
0.03
0.035
0.04
0.045
0.05
0.06
0.06
0.065
0.06
0.06
0.05
0.04
0.015
0.005
0.0
0.0
-0.005
-0.005
-0.01
-0.005
-0.01
-0.005
-0.005
0.0
0.0
0.0
0.0
0.0
0.0
0.005
0.005
0.005
0.005
0.01
0.01
0.01
0.01
0.01
0.01
0.01
0.01
0.01
0.01
0.01
0.005
0.01
0.005
0.015
0.005
0.015
0.005
-0.005
-0.035
-0.005
-0.035
-0.03
0.0
0.03
0.005
0.015
0.01
0.01
0.0
0.005
0.0
0.01
0.0
0.05
0.105
0.2
-0.2
-0.59
-0.41
-0.165
0.0
-0.035
-0.025
0.0
-0.005
0.005
0.0
0.01
0.005
0.015
0.01
0.02
0.015
0.025
0.02
0.025
0.03
0.04
0.04
0.055
0.055
0.06
0.055
0.06
0.05
0.04
0.015
0.01
-0.005
-0.005
-0.015
-0.005
-0.015
-0.01
-0.015
-0.01
-0.015
-0.005
-0.01
-0.005
-0.005
0.0
-0.005
0.005
0.0
0.0
0.0
0.005
0.0
0.005
0.005
0.01
0.005
0.01
0.005
0.01
0.005
0.015
0.005
0.01
0.005
0.01
0.01
0.01
0.005
-0.005
-0.015
-0.02
-0.025
-0.015
-0.025
0.025
0.0
0.005
0.01
0.015
0.0
0.01
0.0
0.01
0.0
0.045
0.05
0.245
-0.025
-0.56
-0.455
-0.245
-0.05
-0.015
-0.03
-0.01
-0.005
0.0
0.0
0.015
0.005
0.015
0.01
0.015
0.015
0.03
0.02
0.03
0.025
0.04
0.04
0.055
0.055
0.065
0.065
0.065
0.06
0.055
0.03
0.02
0.0
0.0
-0.01
0.0
-0.005
-0.005
-0.01
-0.005
-0.005
-0.005
-0.01
0.0
-0.005
0.0
0.0
0.0
0.0
0.005
0.0
0.01
0.0
0.01
0.0
0.005
0.005
0.01
0.005
0.01
0.005
0.015
0.005
0.01
0.005
0.01
0.01
0.01
0.005
0.01
-0.01
-0.02
-0.005
-0.025
-0.03
0.0
0.03
0.01
0.015
0.015
0.01
0.01
0.005
0.005
0.0
0.0
0.045
0.095
0.235
-0.135
-0.61
-0.425
-0.185
0.0
-0.035
-0.02
-0.01
0.0
-0.005
0.0
0.0
0.005
0.005
0.01
0.01
0.015
0.015
0.02
0.02
0.03
0.03
0.04
0.04
0.055
0.055
0.06
0.055
0.06
0.035
0.025
0.005
0.0
-0.01
-0.01
-0.015
-0.01
-0.02
-0.015
-0.015
-0.01
-0.015
-0.005
-0.01
0.0
0.0
0.0
0.0
0.0
0.0
0.0
0.0
0.0
0.0
0.005
0.005
0.005
0.0
0.01
0.005
0.01
0.005
0.005
0.005
0.01
0.0
0.01
0.005
0.01
0.005
-0.015
-0.02
-0.025
-0.025
-0.01
-0.02
0.03
0.0
0.01
0.01
0.01
0.0
0.005
0.0
0.005
0.0
0.035
0.06
0.26
-0.04
-0.585
-0.45
-0.23
-0.04
-0.025
-0.03
-0.01
-0.01
0.005
0.0
0.01
0.005
0.01
0.005
0.015
0.01
0.015
0.015
0.025
0.025
0.035
0.035
0.05
0.05
0.06
0.06
0.06
0.05
0.045
0.02
0.015
-0.005
-0.005
-0.015
-0.01
-0.02
-0.015
-0.015
-0.01
-0.015
-0.01
-0.01
-0.005
-0.01
0.0
-0.005
0.0
-0.005
0.0
-0.005
0.005
0.0
0.0
0.0
0.005
0.0
0.01
0.0
0.01
0.005
0.01
0.01
0.01
0.005
0.01
0.005
0.01
-0.01
-0.025
0.0
-0.025
-0.03
0.0
0.025
0.015
0.01
0.015
0.01
0.01
0.005
0.0
0.005
0.0
0.045
0.095
0.245
-0.125
-0.61
-0.425
-0.185
0.0
-0.04
-0.02
-0.01
0.0
0.0
0.005
0.005
0.01
0.01
0.01
0.01
0.015
0.02
0.025
0.025
0.035
0.035
0.04
0.045
0.06
0.06
0.06
0.06
0.055
0.04
0.025
0.005
0.0
-0.005
-0.015
-0.01
-0.01
-0.01
-0.01
-0.01
-0.005
-0.01
-0.005
0.0
0.0
0.0
0.0
0.005
0.0
0.0
0.005
0.005
0.005
0.0
0.005
0.005
0.01
0.005
0.005
0.005
0.01
0.005
0.005
0.01
0.005
0.0
0.005
-0.005
-0.015
-0.03
-0.01
-0.015
-0.025
0.005
0.005
0.005
0.01
0.01
0.0
0.0
0.005
0.0
0.005
0.02
0.04
0.2
0.065
-0.43
-0.47
-0.3
-0.1
-0.015
-0.03
-0.02
-0.01
-0.005
0.0
0.0
0.0
0.01
0.005
0.005
0.005
0.015
0.015
0.015
0.025
0.03
0.04
0.045
0.055
0.055
0.06
0.065
0.065
0.05
0.04
0.015
0.0
-0.005
-0.01
-0.015
-0.015
-0.015
-0.01
-0.01
-0.01
-0.015
-0.005
-0.005
-0.005
-0.005
0.0
0.0
0.0
0.005
0.0
0.005
0.005
0.005
0.015
0.01
0.01
0.01
0.01
0.01
0.015
0.005
0.01
0.005
0.01
0.005
0.01
-0.01
-0.015
-0.015
-0.02
-0.005
-0.015
0.03
0.01
0.01
0.015
0.015
0.005
0.005
0.005
0.005
0.005
0.035
0.055
0.245
-0.01
-0.555
-0.45
-0.24
-0.045
-0.025
-0.025
-0.01
-0.005
0.0
0.005
0.005
0.01
0.015
0.015
0.015
0.02
0.025
0.025
0.025
0.035
0.04
0.045
0.05
0.06
0.065
0.07
0.075
0.07
0.06
0.04
0.02
0.01
0.0
-0.005
-0.005
-0.005
-0.01
-0.005
-0.01
-0.005
-0.01
-0.01
-0.005
0.0
0.0
0.0
0.0
0.005
0.01
0.01
0.005
0.015
0.01
0.015
0.01
0.02
0.015
0.015
0.015
0.02
0.015
0.02
0.015
0.015
0.015
0.0
-0.01
0.015
0.005
0.0
0.01
0.03
0.025
0.025
0.03
0.025
0.015
0.01
0.01
0.01
0.01
0.035
0.05
0.245
0.025
-0.485
-0.45
-0.255
-0.06
-0.015
-0.025
-0.01
0.0
0.005
0.005
0.01
0.005
0.01
0.015
0.02
0.015
0.025
0.02
0.03
0.03
0.035
0.045
0.05
0.06
0.07
0.075
0.075
0.075
0.065
0.05
0.03
0.005
0.0
-0.005
-0.005
-0.01
-0.005
-0.01
-0.005
-0.005
-0.005
-0.005
0.0
0.0
0.0
0.0
0.005
0.0
0.005
0.005
0.01
0.005
0.005
0.01
0.01
0.01
0.01
0.01
0.015
0.005
0.015
0.01
0.015
0.01
0.01
0.01
0.015
0.0
-0.005
0.035
0.0
0.0
0.015
0.03
0.015
0.015
0.015
0.005
0.005
0.0
0.0
0.0
0.0
0.025
0.125
0.18
-0.215
-0.535
-0.375
-0.155
0.0
-0.04
-0.03
-0.015
-0.01
-0.005
0.0
0.0
0.005
0.01
0.01
0.01
0.015
0.02
0.02
0.025
0.03
0.035
0.045
0.055
0.055
0.06
0.065
0.065
0.06
0.045
0.03
0.015
0.0
-0.005
-0.01
-0.01
-0.01
-0.01
-0.01
-0.01
-0.005
-0.01
-0.005
-0.005
-0.005
0.0
0.0
0.0
0.0
0.0
0.0
0.0
0.005
0.005
0.005
0.01
0.01
0.01
0.015
0.01
0.015
0.01
0.01
0.015
0.01
0.01
0.01
0.01
-0.01
0.015
0.015
-0.005
0.02
0.03
0.02
0.015
0.015
0.015
0.01
0.005
0.005
0.0
0.005
0.015
0.035
0.2
0.06
-0.4
-0.46
-0.29
-0.085
-0.015
-0.03
-0.02
-0.01
0.0
0.0
0.005
0.005
0.01
0.01
0.015
0.02
0.015
0.02
0.03
0.035
0.035
0.045
0.05
0.06
0.065
0.065
0.07
0.07
0.06
0.05
0.03
0.01
0.0
-0.005
-0.01
-0.015
-0.01
-0.01
-0.01
-0.01
-0.005
-0.005
-0.005
0.0
-0.005
0.0
0.0
0.0
0.0
0.005
0.0
0.005
0.005
0.005
0.0
0.01
0.005
0.01
0.01
0.01
0.005
0.01
0.01
0.01
0.005
0.01
0.01
0.01
0.005
0.01
0.005
-0.015
0.04
0.0
-0.005
0.02
0.045
0.015
0.02
0.015
0.01
0.005
0.005
0.005
0.0
0.0
0.04
0.1
0.225
-0.135
-0.56
-0.395
-0.165
0.0
-0.04
-0.02
-0.01
0.0
0.0
0.0
0.005
0.01
0.01
0.01
0.02
0.025
0.03
0.025
0.035
0.035
0.045
0.05
0.06
0.065
0.07
0.075
0.075
0.075
0.06
0.04
0.02
0.005
0.0
-0.005
-0.005
-0.005
-0.005
-0.005
0.0
-0.005
0.0
-0.005
0.0
0.0
0.005
0.005
0.005
0.005
0.005
0.005
0.005
0.005
0.01
0.01
0.005
0.01
0.01
0.015
0.01
0.015
0.015
0.01
0.015
0.01
0.015
0.015
0.015
0.01
0.015
0.015
0.015
0.015
0.0
0.02
0.025
0.0
0.025
0.035
0.03
0.02
0.025
0.025
0.015
0.01
0.01
0.005
0.0
0.035
0.05
0.255
-0.04
-0.545
-0.425
-0.225
-0.03
-0.03
-0.03
-0.015
-0.01
0.0
0.0
0.0
0.0
0.005
0.005
0.01
0.015
0.02
0.015
0.025
0.025
0.03
0.04
0.05
0.055
0.06
0.07
0.065
0.065
0.05
0.04
0.02
0.005
-0.005
-0.01
-0.01
-0.005
-0.005
-0.005
-0.01
-0.005
-0.01
-0.005
-0.005
0.0
0.0
0.0
0.0
0.0
0.005
0.005
0.005
0.005
0.01
0.01
0.005
0.01
0.01
0.015
0.01
0.01
0.015
0.01
0.015
0.01
0.01
0.015
0.015
0.01
0.015
0.01
0.01
0.005
0.0
0.035
0.0
0.01
0.025
0.04
0.02
0.02
0.025
0.01
0.005
0.005
0.005
0.0
0.025
0.04
0.21
0.02
-0.445
-0.455
-0.28
-0.075
-0.025
-0.035
-0.02
-0.01
-0.005
-0.005
0.0
0.0
0.005
0.005
0.005
0.01
0.015
0.02
0.025
0.035
0.035
0.045
0.05
0.055
0.06
0.07
0.065
0.065
0.055
0.04
0.02
0.005
-0.01
-0.01
-0.02
-0.01
-0.015
-0.01
-0.015
-0.005
-0.01
-0.005
-0.005
-0.005
-0.005
0.0
0.0
0.005
0.0
0.0
0.0
0.005
0.0
0.005
0.0
0.01
0.005
0.01
0.01
0.005
0.005
0.01
0.005
0.01
0.005
0.01
0.0
0.01
0.0
0.01
0.005
-0.01
0.035
0.0
-0.01
0.03
0.04
0.015
0.01
0.02
0.005
0.005
0.0
0.005
0.0
0.01
0.035
0.165
0.09
-0.325
-0.49
-0.325
-0.12
-0.005
-0.04
-0.02
-0.01
0.0
0.0
0.005
0.005
0.005
0.01
0.015
0.01
0.025
0.02
0.03
0.03
0.04
0.04
0.055
0.055
0.065
0.065
0.075
0.065
0.06
0.045
0.03
0.01
0.0
0.0
-0.005
-0.01
-0.005
-0.01
0.0
-0.005
0.0
-0.005
0.0
0.0
0.0
0.0
0.005
0.005
0.01
0.01
0.015
0.015
0.01
0.015
0.015
0.015
0.015
0.015
0.015
0.01
0.01
0.01
0.015
0.015
0.015
0.01
0.015
0.01
0.01
0.01
-0.01
0.025
0.015
-0.01
0.025
0.03
0.02
0.015
0.02
0.015
0.01
0.005
0.005
0.0
0.0
0.04
0.09
0.24
-0.115
-0.59
-0.42
-0.18
-0.005
-0.045
-0.025
-0.015
-0.01
-0.005
-0.005
0.0
0.0
0.0
0.005
0.005
0.01
0.015
0.02
0.02
0.025
0.03
0.04
0.045
0.055
0.055
0.06
0.06
0.055
0.04
0.025
0.005
-0.005
-0.015
-0.015
-0.02
-0.015
-0.02
-0.01
-0.02
-0.01
-0.015
-0.01
-0.01
-0.005
-0.005
0.0
0.0
0.005
0.0
0.01
0.005
0.005
0.005
0.01
0.005
0.01
0.005
0.015
0.01
0.01
0.0
0.015
0.0
0.01
0.005
0.01
0.01
0.01
0.005
-0.015
0.02
0.01
-0.01
0.02
0.035
0.025
0.02
0.025
0.015
0.01
0.005
0.0
0.0
0.0
0.035
0.065
0.255
-0.06
-0.59
-0.43
-0.21
-0.01
-0.035
-0.025
-0.02
-0.005
0.0
0.0
0.0
0.0
0.005
0.01
0.01
0.015
0.015
0.02
0.02
0.03
0.035
0.045
0.05
0.06
0.06
0.07
0.075
0.07
0.055
0.045
0.015
0.0
-0.005
0.0
-0.01
-0.005
-0.01
-0.005
-0.01
-0.005
-0.01
-0.005
-0.005
0.0
-0.005
0.0
0.0
0.005
0.0
0.01
0.005
0.01
0.005
0.015
0.01
0.01
0.0
0.015
0.005
0.01
0.005
0.015
0.005
0.01
0.005
0.01
0.005
0.015
0.005
0.015
0.005
0.015
0.005
-0.005
0.03
0.005
-0.02
0.025
0.04
0.015
0.01
0.02
0.005
0.01
0.0
0.005
0.0
0.0
0.03
0.11
0.185
-0.175
-0.54
-0.38
-0.15
0.0
-0.045
-0.02
-0.02
0.0
0.0
0.0
0.0
0.01
0.01
0.015
0.01
0.02
0.02
0.025
0.025
0.035
0.035
0.05
0.05
0.06
0.065
0.07
0.07
0.065
0.045
0.03
0.005
0.0
-0.01
-0.005
-0.015
-0.015
-0.01
-0.01
-0.015
-0.01
-0.015
-0.005
-0.01
-0.01
-0.01
0.0
-0.005
0.0
-0.005
0.0
-0.005
0.005
0.0
0.005
0.0
0.0
0.0
0.005
0.0
0.01
0.0
0.01
0.0
0.005
0.0
0.01
0.0
0.01
0.0
0.01
0.0
0.01
0.0
0.01
0.0
-0.005
0.03
0.0
-0.01
0.02
0.03
0.025
0.01
0.02
0.005
0.005
0.0
0.005
0.0
0.025
0.035
0.225
0.005
-0.455
-0.44
-0.26
-0.07
-0.015
-0.035
-0.015
-0.02
0.0
-0.005
0.0
0.0
0.01
0.0
0.01
0.005
0.015
0.01
0.025
0.02
0.035
0.03
0.045
0.045
0.065
0.055
0.065
0.055
0.055
0.025
0.015
-0.005
-0.01
-0.02
-0.02
-0.03
-0.015
-0.03
-0.02
-0.035
-0.02
-0.025
-0.02
-0.025
-0.015
-0.02
-0.015
-0.015
-0.01
-0.015
-0.005
-0.01
0.0
-0.01
0.0
-0.01
0.0
-0.01
0.0
-0.005
0.0
-0.01
0.0
-0.005
0.0
-0.005
0.0
-0.005
0.0
-0.005
0.0
-0.005
0.0
-0.005
-0.025
0.015
-0.01
-0.025
0.01
0.025
0.005
0.0
0.005
-0.005
0.0
-0.01
0.0
-0.015
0.005
0.01
0.185
0.025
-0.405
-0.46
-0.295
-0.1
-0.025
-0.05
-0.025
-0.03
-0.015
-0.02
-0.005
-0.015
-0.005
-0.005
0.005
0.0
0.01
0.005
0.015
0.01
0.025
0.02
0.04
0.04
0.055
0.05
0.06
0.05
0.055
0.03
0.015
-0.005
-0.01
-0.025
-0.02
-0.03
-0.02
-0.02
-0.02
-0.025
-0.02
-0.025
-0.015
-0.02
-0.015
-0.02
-0.01
-0.015
-0.005
-0.01
-0.005
-0.01
-0.005
-0.01
-0.01
-0.015
-0.005
-0.01
-0.005
-0.015
-0.005
-0.01
-0.005
-0.01
-0.005
-0.005
-0.005
-0.015
-0.005
-0.01
-0.01
-0.01
-0.015
-0.025
0.015
-0.025
-0.015
0.0
0.015
0.0
0.0
0.0
-0.005
-0.01
-0.01
-0.015
-0.01
0.01
0.03
0.235
-0.035
-0.545
-0.435
-0.25
-0.045
-0.05
-0.04
-0.035
-0.025
-0.02
-0.015
-0.01
0.0
0.0
0.005
0.01
0.015
0.015
0.025
0.03
0.04
0.04
0.055
0.055
0.065
0.065
0.075
0.07
0.075
0.06
0.05
0.025
0.015
0.0
0.0
0.0
0.0
0.0
0.005
0.0
0.0
0.0
0.01
0.0
0.01
0.005
0.015
0.005
0.015
0.005
0.015
0.005
0.015
0.005
0.015
0.005
0.02
0.005
0.02
0.01
0.02
0.005
0.015
0.005
0.01
0.0
0.01
0.0
-0.02
0.03
0.0
-0.015
0.02
0.035
0.015
0.01
0.015
0.0
0.0
0.0
0.0
-0.005
0.0
0.015
0.145
0.105
-0.275
-0.495
-0.33
-0.125
-0.01
-0.045
-0.03
-0.02
-0.005
-0.01
0.0
0.0
0.005
0.005
0.01
0.01
0.015
0.015
0.025
0.02
0.035
0.035
0.045
0.05
0.065
0.065
0.075
0.065
0.07
0.045
0.03
0.005
0.0
-0.01
-0.01
-0.015
-0.01
-0.015
-0.005
-0.015
-0.005
-0.01
-0.01
-0.015
-0.005
-0.005
-0.005
-0.01
0.0
-0.005
0.0
0.0
0.0
0.0
0.0
0.0
0.0
0.0
0.005
0.0
0.01
0.0
0.0
0.0
-0.005
-0.03
0.035
-0.01
-0.01
0.005
0.03
0.0
0.01
0.005
0.005
-0.005
0.0
0.0
0.0
-0.005
0.02
0.12
0.145
-0.23
-0.495
-0.35
-0.13
-0.02
-0.045
-0.035
-0.02
-0.02
-0.005
-0.005
0.0
0.0
0.005
0.0
0.01
0.01
0.02
0.015
0.025
0.025
0.035
0.04
0.06
0.06
0.07
0.07
0.07
0.06
0.05
0.025
0.01
-0.01
-0.005
-0.02
-0.01
-0.02
-0.01
-0.015
-0.015
-0.015
-0.01
-0.015
-0.005
-0.015
-0.005
-0.01
0.0
-0.005
0.0
-0.005
0.005
0.0
0.005
0.0
0.01
0.0
0.015
0.005
0.01
0.0
0.01
0.0
0.01
0.0
0.01
-0.01
-0.02
0.03
-0.005
-0.01
0.02
0.035
0.015
0.01
0.015
0.0
0.005
0.0
0.0
-0.01
-0.005
0.015
0.045
0.245
-0.065
-0.555
-0.405
-0.2
-0.015
-0.05
-0.035
-0.025
-0.02
-0.015
-0.005
-0.01
-0.005
0.0
0.0
0.0
0.005
0.01
0.015
0.015
0.025
0.03
0.035
0.04
0.055
0.055
0.065
0.065
0.065
0.05
0.035
0.005
0.0
-0.015
-0.02
-0.03
-0.025
-0.02
-0.02
-0.025
-0.025
-0.025
-0.025
-0.02
-0.02
-0.025
-0.015
-0.02
-0.015
-0.02
-0.015
-0.015
-0.01
-0.015
-0.01
-0.015
-0.01
-0.01
-0.005
-0.01
-0.005
-0.005
-0.005
-0.015
-0.01
-0.01
-0.005
-0.01
-0.005
-0.01
-0.035
-0.015
0.0
-0.025
-0.005
0.0
0.005
0.0
0.0
-0.005
-0.005
-0.015
-0.015
-0.015
-0.015
-0.015
-0.01
0.0
0.085
0.135
-0.225
-0.54
-0.375
-0.15
-0.025
-0.06
-0.035
-0.035
-0.025
-0.02
-0.015
-0.01
-0.01
0.0
0.0
0.0
0.01
0.01
0.01
0.015
0.025
0.02
0.025
0.035
0.045
0.045
0.05
0.05
0.04
0.03
0.005
-0.015
-0.02
-0.035
-0.03
-0.03
-0.03
-0.035
-0.02
-0.025
-0.03
-0.02
-0.025
-0.02
-0.01
-0.02
-0.01
-0.015
-0.01
-0.015
-0.01
-0.015
-0.005
-0.01
-0.005
0.0
-0.005
0.0
0.0
-0.005
0.0
-0.005
0.0
0.0
0.0
-0.005
0.005
-0.01
-0.02
0.005
-0.01
-0.02
0.005
0.015
0.015
0.015
0.01
0.01
0.005
0.0
0.0
0.0
0.005
0.005
0.01
0.005
0.0
0.0
0.005
-0.005
-0.005
-0.005
-0.005
-0.005
-0.01
-0.005
0.0
0.0
-0.005
0.0
0.005
0.0
0.0
0.005
0.0
0.05
0.065
0.18
-0.28
-0.775
-0.455
-0.16
0.015
-0.035
-0.005
0.0
0.005
0.03
0.025
0.02
0.03
0.04
0.03
0.045
0.03
0.045
0.05
0.065
0.06
0.055
0.075
0.08
0.09
0.09
0.1
0.085
0.1
0.085
0.045
0.04
0.02
0.005
0.0
0.005
0.0
0.0
0.0
0.0
0.0
-0.005
0.0
0.015
0.01
-0.015
0.01
-0.035
-0.035
-0.005
-0.005
0.01
0.015
0.01
0.02
0.015
0.01
0.005
0.01
0.01
0.01
0.005
0.005
0.0
0.0
0.0
0.005
0.0
0.005
0.0
0.005
0.0
0.015
0.005
0.015
0.015
0.01
0.015
0.02
0.015
0.035
0.05
0.165
-0.04
-0.575
-0.535
-0.3
-0.035
0.0
-0.025
0.0
0.0
0.015
0.01
0.015
0.005
0.02
0.01
0.015
0.02
0.025
0.02
0.03
0.03
0.045
0.045
0.05
0.055
0.075
0.07
0.07
0.07
0.05
0.03
0.005
-0.015
-0.02
-0.03
-0.025
-0.025
-0.015
-0.02
-0.015
-0.01
-0.015
-0.01
-0.015
-0.015
-0.025
-0.03
-0.03
-0.075
-0.06
-0.03
-0.03
-0.01
-0.005
-0.005
-0.01
-0.01
-0.01
-0.01
-0.015
-0.01
-0.01
-0.01
-0.02
-0.015
-0.02
-0.025
-0.025
-0.03
-0.025
-0.03
-0.035
-0.035
-0.03
-0.03
-0.03
-0.03
-0.03
-0.035
-0.005
0.03
-0.01
-0.36
-0.565
-0.33
-0.11
-0.03
-0.045
-0.03
-0.02
-0.02
-0.015
-0.015
-0.015
-0.015
-0.01
-0.01
-0.005
0.0
-0.005
0.0
0.0
0.005
0.01
0.02
0.03
0.03
0.035
0.035
0.03
0.02
0.0
-0.015
-0.04
-0.045
-0.045
-0.035
-0.035
-0.03
-0.03
-0.02
-0.025
-0.03
-0.025
-0.03
-0.02
-0.02
-0.025
-0.035
-0.03
-0.055
-0.06
-0.06
-0.03
-0.005
-0.015
-0.005
0.0
-0.005
-0.005
-0.005
-0.005
0.0
-0.005
0.0
-0.005
-0.005
-0.01
-0.005
-0.01
-0.01
-0.015
-0.015
-0.015
-0.01
-0.01
-0.01
-0.01
-0.01
-0.005
-0.005
0.01
0.095
0.005
-0.32
-0.49
-0.285
-0.06
-0.01
-0.02
-0.005
0.0
0.0
0.0
0.005
0.01
0.01
0.01
0.01
0.01
0.01
0.015
0.015
0.02
0.03
0.03
0.04
0.045
0.055
0.06
0.06
0.055
0.045
0.03
0.005
-0.01
-0.015
-0.02
-0.015
-0.015
-0.005
-0.005
-0.005
-0.005
0.0
-0.005
0.0
-0.005
0.0
0.0
-0.005
-0.015
-0.01
-0.05
-0.025
-0.035
-0.01
0.005
0.005
0.01
0.0
0.0
0.0
0.0
0.0
0.0
0.0
0.005
0.005
0.0
0.0
0.0
0.0
0.0
0.0
-0.005
0.0
0.0
0.0
0.0
0.0
0.01
0.005
0.0
0.035
0.085
0.1
-0.32
-0.605
-0.335
-0.07
0.02
0.0
0.0
0.015
0.02
0.03
0.03
0.035
0.035
0.04
0.04
0.045
0.035
0.04
0.045
0.05
0.05
0.055
0.06
0.075
0.07
0.075
0.09
0.08
0.065
0.055
0.025
0.01
-0.005
0.005
0.005
0.0
0.01
0.01
0.01
0.015
0.015
0.02
0.02
0.02
0.0
0.0
-0.04
-0.045
-0.05
-0.045
-0.03
0.015
0.015
0.03
0.04
0.04
0.035
0.04
0.04
0.035
0.035
0.035
0.035
0.04
0.03
0.03
0.035
0.03
0.03
0.035
0.035
0.03
0.03
0.04
0.04
0.035
0.045
0.04
0.035
0.04
0.08
0.09
0.24
-0.145
-0.715
-0.455
-0.18
0.015
0.0
0.01
0.04
0.03
0.025
0.045
0.04
0.05
0.05
0.05
0.07
0.07
0.07
0.075
0.09
0.08
0.095
0.12
0.115
0.135
0.135
0.14
0.125
0.15
0.125
0.095
0.1
0.06
0.08
0.05
0.045
0.06
0.05
0.075
0.04
0.04
0.0
-0.025
-0.015
-0.01
-0.06
0.025
0.035
0.06
0.055
0.06
0.055
0.065
0.06
0.055
0.05
0.05
0.06
0.065
0.055
0.06
0.06
0.055
0.05
0.055
0.055
0.06
0.045
0.055
0.05
0.06
0.055
0.065
0.045
0.06
0.045
0.08
0.09
0.195
-0.03
-0.56
-0.505
-0.285
-0.02
0.04
0.02
0.03
0.04
0.055
0.05
0.06
0.05
0.06
0.05
0.055
0.055
0.06
0.055
0.075
0.065
0.08
0.08
0.095
0.1
0.105
0.095
0.12
0.1
0.105
0.065
0.06
0.025
0.03
0.0
0.02
0.015
-0.005
-0.005
-0.055
-0.06
-0.055
-0.075
-0.065
0.0
0.025
0.015
0.045
0.03
0.045
0.045
0.05
0.04
0.05
0.04
0.04
0.04
0.05
0.035
0.035
0.035
0.045
0.025
0.02
0.015
0.04
0.03
0.035
0.025
0.03
0.04
0.04
0.035
0.025
0.055
0.09
0.075
-0.375
-0.62
-0.345
-0.09
0.025
-0.03
0.045
0.07
0.055
0.07
0.055
0.045
0.08
0.04
0.015
0.01
0.05
0.06
0.11
0.095
0.09
0.065
0.03
0.015
0.115
0.12
0.095
0.115
0.115
0.07
0.04
-0.02
-0.07
-0.01
-0.05
-0.105
-0.035
0.07
0.035
-0.015
-0.03
-0.075
-0.05
0.03
0.055
0.03
0.015
0.01
0.065
0.02
0.025
0.07
0.07
0.04
0.1
0.07
0.05
0.035
-0.025
-0.04
0.03
0.025
0.01
-0.005
0.095
0.005
0.1
0.04
0.0
0.045
0.035
0.01
0.06
0.13
0.205
-0.23
-0.7
-0.385
-0.135
0.055
0.015
0.0
0.055
0.03
0.045
0.05
0.08
0.02
0.07
0.06
0.035
0.06
0.07
0.05
0.09
0.115
0.02
0.0
0.115
0.115
0.09
0.095
0.095
0.08
0.065
0.03
0.005
0.02
0.025
-0.06
-0.01
-0.055
-0.075
-0.055
-0.045
-0.09
0.03
0.035
0.03
0.01
0.06
0.025
0.01
0.09
0.04
0.07
0.04
0.055
0.025
0.055
0.015
0.02
0.03
0.005
0.035
0.01
0.05
-0.005
0.025
0.025
0.035
0.01
0.035
0.0
0.025
0.01
0.07
0.12
0.175
-0.355
-0.7
-0.415
-0.155
0.03
0.0
0.02
0.03
0.025
0.02
0.015
0.04
0.03
0.065
0.04
0.005
0.045
0.045
0.045
0.04
0.045
0.065
0.065
0.06
0.08
0.08
0.075
0.085
0.035
0.055
0.025
-0.025
-0.02
-0.005
-0.065
-0.075
-0.085
-0.08
-0.075
0.005
-0.005
0.05
0.035
0.035
0.045
0.03
0.055
0.045
0.04
0.08
0.04
0.055
0.045
0.03
0.025
0.055
0.04
0.035
0.05
0.03
0.03
0.04
0.025
0.05
0.025
0.035
0.02
0.055
0.025
0.075
0.085
0.17
-0.115
-0.625
-0.46
-0.245
-0.055
0.05
0.01
0.025
0.04
0.06
0.03
0.045
0.035
0.04
0.025
0.085
0.045
0.05
0.045
0.05
0.08
0.075
0.045
0.075
0.07
0.09
0.085
0.105
0.08
0.06
0.03
-0.01
-0.04
-0.035
-0.07
-0.085
-0.085
-0.105
-0.075
0.0
0.0
0.05
0.02
0.01
0.03
0.055
0.045
0.05
0.03
0.035
0.04
0.05
0.03
0.055
0.04
0.02
0.04
0.025
0.02
0.04
0.025
0.025
0.035
0.045
0.03
0.015
0.05
0.06
0.015
0.055
0.065
0.18
-0.24
-0.7
-0.415
-0.13
0.02
-0.015
0.015
0.065
0.055
0.03
0.025
0.06
0.03
0.07
0.085
0.055
0.07
0.095
0.06
0.135
0.075
0.075
0.06
0.12
0.08
0.105
0.075
0.1
0.09
0.03
0.0
-0.015
-0.075
-0.155
-0.125
-0.115
-0.125
-0.1
0.005
0.005
-0.02
0.0
0.015
0.035
0.04
0.085
0.09
0.08
0.05
0.085
0.06
0.105
0.015
0.07
0.065
0.065
0.06
0.03
0.045
0.035
0.005
0.035
0.04
0.04
0.065
0.105
0.015
0.0
0.07
0.105
0.115
-0.405
-0.59
-0.34
-0.095
0.02
-0.005
-0.005
-0.025
0.03
0.035
0.02
-0.025
0.0
0.0
0.005
0.005
0.03
0.0
-0.005
0.055
0.06
0.03
0.055
0.065
0.065
0.11
0.085
0.035
0.035
-0.02
0.035
-0.045
-0.065
-0.1
-0.075
-0.065
0.0
0.045
0.0
0.035
0.025
0.02
0.05
0.055
0.045
0.04
0.05
0.035
0.045
0.005
0.0
0.04
0.0
0.015
0.045
-0.025
0.04
0.015
0.04
-0.005
0.01
0.005
0.025
0.025
0.035
0.05
0.045
0.11
0.16
-0.06
-0.495
-0.4
-0.245
-0.04
0.01
0.02
0.06
0.07
0.03
0.05
0.055
0.045
0.11
0.07
0.085
0.05
0.07
0.115
0.115
0.11
0.13
0.12
0.1
0.09
0.1
0.09
0.11
0.09
0.035
-0.095
0.02
-0.03
-0.11
-0.155
-0.125
-0.19
-0.16
0.02
0.185
0.185
0.06
0.105
0.11
0.035
0.085
0.145
0.085
0.065
0.12
0.07
0.0
-0.025
0.06
0.085
0.105
0.025
0.015
0.0
0.01
0.05
0.01
0.08
0.095
0.035
0.005
0.055
0.105
0.185
-0.34
-0.725
-0.425
-0.11
0.075
-0.025
-0.01
0.05
0.045
0.02
-0.06
-0.11
0.005
0.025
0.065
0.085
0.05
0.03
0.025
-0.005
-0.005
0.03
0.005
0.01
0.015
0.06
0.075
0.015
-0.045
-0.11
-0.035
-0.13
-0.19
-0.215
-0.08
-0.09
-0.075
-0.06
-0.03
-0.045
-0.025
-0.05
-0.105
-0.005
0.0
0.0
-0.015
0.0
0.005
0.005
-0.005
0.005
0.0
0.0
-0.035
0.03
0.075
0.04
0.045
0.005
0.0
0.065
0.075
0.065
0.11
0.095
0.245
-0.09
-0.545
-0.335
-0.105
0.085
0.085
0.025
0.065
0.105
0.16
0.075
0.095
0.12
0.08
0.04
0.12
0.11
0.07
0.01
0.145
0.13
0.105
0.105
0.1
0.105
0.105
0.1
0.1
0.065
0.035
0.005
-0.08
-0.065
-0.06
-0.065
-0.035
-0.02
-0.01
0.01
0.035
0.035
0.02
0.02
0.025
0.035
-0.005
0.01
0.035
0.02
0.015
0.005
0.01
0.01
0.015
0.005
0.005
0.005
0.005
-0.005
0.005
-0.025
-0.03
0.0
0.0
0.0
0.04
0.09
-0.305
-0.565
-0.295
-0.11
0.01
-0.02
-0.005
0.0
0.02
0.005
-0.005
-0.035
0.055
0.065
0.045
0.045
0.04
0.05
0.055
0.07
0.065
0.075
0.085
0.085
0.095
0.105
0.1
0.075
0.05
0.03
-0.05
-0.05
-0.05
-0.055
-0.02
0.01
0.025
0.025
0.035
0.03
0.04
0.035
0.035
0.035
0.045
0.04
0.04
0.04
0.04
0.03
0.035
0.025
0.035
0.025
0.025
0.015
0.025
0.015
0.015
0.015
0.02
0.015
0.02
0.05
0.115
0.075
-0.29
-0.455
-0.235
-0.03
0.03
0.02
0.03
0.03
0.04
0.03
0.04
0.04
0.045
0.04
0.05
0.05
0.05
0.045
0.06
0.055
0.07
0.07
0.08
0.085
0.09
0.095
0.095
0.065
0.035
0.005
-0.055
-0.055
-0.055
-0.065
-0.02
-0.005
0.005
0.005
0.01
0.01
0.01
0.015
0.02
0.02
0.02
0.025
0.03
0.03
0.025
0.02
0.025
0.02
0.02
0.015
0.02
0.015
0.015
0.01
0.015
0.015
0.015
0.005
0.04
0.035
0.235
-0.105
-0.545
-0.325
-0.13
0.03
0.0
0.01
0.02
0.025
0.03
0.03
0.035
0.03
0.035
0.03
0.035
0.035
0.045
0.04
0.05
0.05
0.055
0.065
0.07
0.075
0.08
0.085
0.085
0.045
0.03
-0.025
-0.045
-0.055
-0.075
-0.065
0.0
0.0
0.0
0.0
0.0
0.0
0.0
0.01
0.005
0.01
0.01
0.01
0.01
0.01
0.005
0.005
0.0
0.005
0.0
0.005
0.0
0.0
0.0
0.0
-0.005
0.0
-0.01
0.0
0.01
0.125
0.035
-0.355
-0.445
-0.255
-0.025
-0.01
-0.02
0.0
0.0
0.01
0.015
0.015
0.015
0.025
0.025
0.025
0.03
0.035
0.035
0.035
0.045
0.065
0.06
0.075
0.075
0.085
0.085
0.09
0.06
0.04
0.005
-0.055
-0.045
-0.055
-0.085
-0.035
-0.005
0.0
0.0
0.01
0.01
0.005
0.005
0.015
0.01
0.01
0.015
0.01
0.0
0.005
0.0
0.0
-0.005
-0.01
-0.005
-0.005
-0.01
-0.005
-0.015
-0.01
-0.015
-0.01
-0.01
0.015
0.03
0.205
-0.075
-0.665
-0.495
-0.225
-0.025
-0.01
-0.015
-0.005
0.0
0.01
0.005
0.02
0.015
0.02
0.02
0.035
0.025
0.045
0.04
0.045
0.05
0.055
0.065
0.07
0.07
0.085
0.085
0.085
0.06
0.04
-0.005
-0.055
-0.07
-0.085
-0.095
-0.02
-0.01
0.0
0.005
0.01
0.01
0.02
0.02
0.02
0.02
0.03
0.03
0.025
0.02
0.02
0.025
0.02
0.015
0.015
0.015
0.015
0.01
0.01
0.01
0.015
0.005
0.005
0.005
0.06
0.07
0.19
-0.2
-0.64
-0.39
-0.12
0.02
-0.01
0.0
0.015
0.015
0.02
0.015
0.02
0.02
0.025
0.02
0.03
0.03
0.04
0.04
0.045
0.045
0.055
0.06
0.075
0.07
0.08
0.075
0.075
0.06
0.025
-0.005
-0.035
-0.085
-0.08
-0.085
-0.085
-0.02
-0.015
-0.01
0.0
0.0
0.005
0.0
0.0
0.005
0.005
0.01
0.005
0.005
0.01
0.01
0.01
0.005
0.005
0.005
0.005
0.0
0.005
0.0
0.0
0.0
0.0
0.01
0.02
0.16
-0.085
-0.45
-0.35
-0.185
0.015
-0.01
0.0
0.005
0.01
0.02
0.015
0.02
0.02
0.02
0.02
0.02
0.025
0.025
0.035
0.04
0.045
0.05
0.055
0.06
0.07
0.07
0.07
0.07
0.055
0.04
0.0
-0.03
-0.03
-0.095
-0.08
-0.085
-0.085
-0.04
-0.02
-0.015
-0.005
-0.005
-0.005
-0.005
0.0
0.0
0.0
0.0
0.0
0.0
-0.005
-0.015
-0.01
0.02
0.085
0.14
-0.23
-0.555
-0.39
-0.165
-0.035
-0.04
-0.01
-0.01
0.0
0.0
0.015
0.015
0.02
0.02
0.02
0.02
0.03
0.03
0.04
0.045
0.06
0.065
0.08
0.09
0.105
0.11
0.11
0.1
0.09
0.06
0.035
0.005
0.005
-0.005
-0.005
-0.01
-0.005
-0.01
-0.005
-0.01
-0.005
-0.025
-0.035
-0.05
-0.075
-0.075
-0.08
-0.055
-0.01
0.0
0.005
0.005
0.005
0.0
0.0
0.0
-0.005
0.035
0.04
0.22
-0.09
-0.605
-0.405
-0.21
-0.015
-0.035
-0.025
-0.01
0.0
0.0
0.0
0.0
0.005
0.005
0.01
0.01
0.015
0.02
0.03
0.035
0.04
0.05
0.06
0.07
0.08
0.085
0.095
0.09
0.085
0.065
0.045
0.015
0.0
-0.01
-0.01
-0.015
-0.01
-0.015
-0.015
-0.02
-0.015
-0.025
-0.025
-0.025
-0.02
-0.025
-0.02
-0.025
-0.035
-0.065
-0.06
-0.11
-0.095
-0.105
-0.09
-0.04
-0.025
-0.025
-0.02
-0.03
-0.015
-0.03
-0.02
-0.035
0.0
0.05
0.155
-0.145
-0.475
-0.375
-0.16
-0.02
-0.04
-0.04
-0.02
-0.015
0.0
-0.01
-0.005
-0.01
0.0
0.0
0.005
0.0
0.01
0.005
0.02
0.02
0.04
0.035
0.055
0.05
0.065
0.06
0.06
0.05
0.045
0.01
0.0
-0.005
-0.005
-0.02
-0.01
-0.02
-0.01
-0.02
-0.01
-0.02
-0.01
-0.015
-0.01
-0.02
-0.005
-0.01
0.0
-0.005
0.0
-0.005
0.0
-0.015
-0.05
-0.04
-0.08
-0.06
-0.05
-0.045
0.0
-0.005
0.01
0.005
0.005
0.0
0.005
0.0
0.0
0.02
0.08
0.195
-0.105
-0.495
-0.365
-0.15
0.005
-0.03
-0.01
-0.005
0.005
0.005
0.01
0.01
0.015
0.015
0.02
0.02
0.035
0.03
0.045
0.04
0.055
0.05
0.065
0.075
0.085
0.085
0.095
0.09
0.09
0.065
0.055
0.025
0.015
0.0
0.005
0.0
0.005
0.0
0.005
0.0
0.005
0.0
0.005
0.0
0.005
0.0
0.015
0.005
0.01
0.005
0.015
0.005
0.01
0.005
0.015
0.01
0.015
0.005
0.01
-0.015
-0.01
-0.04
-0.01
-0.02
-0.025
0.0
0.02
0.01
0.025
0.01
0.015
0.005
0.01
0.0
0.03
0.08
0.21
-0.115
-0.505
-0.385
-0.145
0.0
-0.03
-0.025
-0.005
-0.005
0.0
0.0
0.005
0.005
0.015
0.005
0.02
0.01
0.025
0.02
0.035
0.03
0.05
0.05
0.065
0.065
0.08
0.075
0.085
0.07
0.065
0.04
0.03
0.005
0.005
0.0
0.0
0.0
0.0
-0.005
0.0
-0.005
0.0
0.0
0.0
0.0
0.005
0.0
0.005
0.0
0.01
0.005
0.01
0.0
0.015
0.005
0.015
0.01
0.015
0.005
0.015
0.005
0.015
0.01
-0.005
-0.015
-0.025
-0.02
0.0
-0.02
0.025
0.01
0.02
0.015
0.015
0.01
0.015
0.0
0.025
0.03
0.19
0.05
-0.355
-0.435
-0.28
-0.08
-0.01
-0.035
-0.01
-0.01
0.0
0.0
0.005
0.0
0.01
0.005
0.02
0.01
0.025
0.025
0.035
0.035
0.05
0.05
0.065
0.06
0.075
0.07
0.08
0.07
0.07
0.05
0.04
0.015
0.01
0.0
0.0
-0.005
0.0
0.0
0.0
-0.005
0.0
0.0
0.0
0.0
0.005
0.0
0.01
0.0
0.01
0.005
0.01
0.005
0.015
0.005
0.01
0.005
0.015
0.005
0.015
0.005
0.015
0.01
0.02
0.005
0.005
-0.015
-0.03
-0.01
-0.02
-0.035
0.0
0.015
0.01
0.01
0.01
0.005
0.01
0.0
0.0
0.03
0.095
0.195
-0.15
-0.535
-0.375
-0.16
0.005
-0.04
-0.02
-0.015
-0.005
0.0
0.0
0.0
0.005
0.0
0.01
0.005
0.01
0.015
0.02
0.025
0.035
0.035
0.05
0.05
0.065
0.065
0.075
0.065
0.065
0.045
0.035
0.01
0.005
-0.005
0.0
-0.005
-0.005
-0.01
-0.005
-0.015
0.0
-0.005
0.0
-0.005
0.0
-0.005
0.005
0.0
0.005
0.0
0.01
0.0
0.01
0.0
0.01
0.005
0.01
0.0
0.01
0.0
0.01
0.0
0.01
0.005
0.01
0.005
0.01
-0.015
-0.025
-0.015
-0.02
-0.025
0.0
0.025
0.015
0.015
0.015
0.01
0.01
0.005
0.005
0.04
0.085
0.245
-0.08
-0.555
-0.395
-0.175
0.0
-0.035
-0.015
-0.01
0.0
0.0
0.005
0.0
0.01
0.005
0.015
0.015
0.02
0.02
0.03
0.03
0.035
0.04
0.05
0.05
0.065
0.065
0.07
0.07
0.065
0.045
0.035
0.015
0.005
-0.005
-0.005
-0.015
-0.005
-0.015
-0.01
-0.01
-0.01
-0.015
-0.005
-0.01
0.0
-0.005
0.0
0.0
0.0
0.0
0.005
0.0
0.0
0.0
0.0
0.0
0.005
0.0
0.005
0.0
0.01
0.0
0.0
0.0
0.005
0.0
0.01
0.0
0.005
0.005
-0.01
-0.025
-0.035
-0.03
-0.02
-0.03
0.02
0.0
0.01
0.01
0.01
0.0
0.01
0.0
0.035
0.045
0.245
-0.015
-0.51
-0.43
-0.235
-0.035
-0.02
-0.025
-0.005
-0.005
0.0
0.0
0.015
0.005
0.015
0.01
0.02
0.015
0.025
0.025
0.035
0.035
0.045
0.035
0.06
0.055
0.06
0.06
0.07
0.055
0.05
0.025
0.015
0.0
-0.005
-0.01
-0.01
-0.015
-0.01
-0.015
-0.01
-0.005
0.0
-0.005
0.0
0.0
0.005
-0.005
0.005
0.005
0.01
0.0
0.015
0.005
0.005
0.005
0.01
0.005
0.015
0.005
0.015
0.01
0.015
0.01
0.01
0.01
0.015
0.01
-0.01
-0.02
-0.02
-0.045
-0.03
0.0
0.03
0.015
0.03
0.02
0.025
0.015
0.015
0.005
0.08
0.1
0.255
-0.1
-0.63
-0.485
-0.185
0.0
-0.005
-0.005
0.01
0.01
0.02
0.015
0.03
0.02
0.03
0.03
0.04
0.035
0.045
0.035
0.045
0.045
0.06
0.065
0.07
0.075
0.08
0.075
0.085
0.07
0.065
0.035
0.02
0.005
0.0
-0.005
0.0
0.0
0.0
0.0
0.0
0.0
0.005
0.0
0.015
0.005
0.015
0.01
0.015
0.01
0.02
0.015
0.02
0.015
0.025
0.02
0.025
0.015
0.025
0.02
0.025
0.015
0.025
0.02
0.02
-0.005
-0.03
-0.025
-0.025
-0.025
0.005
0.02
0.025
0.025
0.035
0.025
0.03
0.025
0.035
0.06
0.165
0.125
-0.31
-0.5
-0.36
-0.13
0.025
-0.015
0.005
0.005
0.02
0.015
0.025
0.025
0.03
0.03
0.035
0.03
0.035
0.035
0.04
0.04
0.05
0.05
0.065
0.065
0.075
0.075
0.08
0.07
0.06
0.035
0.02
0.005
-0.005
-0.005
-0.005
-0.005
-0.005
-0.005
0.0
-0.005
0.0
0.0
0.0
0.0
0.005
0.0
0.005
0.005
0.01
0.01
0.01
0.01
0.01
0.01
0.015
0.01
0.01
0.01
0.015
0.01
0.02
0.01
0.02
0.01
-0.005
-0.025
-0.03
-0.025
0.0
-0.015
0.02
0.015
0.025
0.025
0.02
0.02
0.02
0.015
0.035
0.04
0.205
-0.035
-0.445
-0.385
-0.24
-0.03
-0.005
-0.015
0.0
0.0
0.015
0.015
0.015
0.01
0.02
0.02
0.02
0.02
0.025
0.03
0.035
0.035
0.045
0.05
0.06
0.065
0.07
0.075
0.075
0.065
0.055
0.035
0.02
0.005
0.0
-0.005
0.0
0.0
0.0
0.0
0.0
0.0
0.0
0.0
0.0
0.0
0.005
0.005
0.005
0.005
0.005
0.005
0.005
0.01
0.005
0.01
0.005
0.01
0.01
0.005
0.01
0.005
0.01
0.01
0.01
0.01
0.015
0.015
-0.005
-0.025
-0.005
-0.015
-0.005
0.0
0.04
0.015
0.02
0.02
0.015
0.015
0.01
0.005
0.03
0.04
0.225
-0.03
-0.485
-0.405
-0.24
-0.035
-0.02
-0.02
-0.01
-0.005
0.0
0.0
0.005
0.005
0.01
0.01
0.015
0.015
0.015
0.02
0.025
0.03
0.035
0.045
0.055
0.065
0.07
0.07
0.07
0.06
0.055
0.035
0.015
0.0
-0.005
-0.005
-0.01
-0.015
-0.01
-0.01
-0.01
-0.01
-0.01
-0.01
-0.01
-0.005
-0.005
0.0
0.0
0.0
0.0
0.0
0.0
0.0
0.0
0.0
0.005
0.0
0.005
0.005
0.005
0.005
0.005
0.005
0.005
0.005
0.0
0.01
0.005
0.005
0.0
-0.02
-0.01
0.0
-0.015
0.0
0.025
0.015
0.015
0.015
0.01
0.01
0.005
0.005
0.01
0.03
0.165
0.055
-0.34
-0.445
-0.3
-0.09
-0.01
-0.035
-0.02
-0.01
-0.005
0.0
0.005
0.0
0.005
0.005
0.01
0.015
0.02
0.025
0.025
0.03
0.04
0.05
0.055
0.06
0.065
0.07
0.07
0.07
0.06
0.04
0.02
0.01
0.0
-0.005
-0.005
-0.005
-0.01
-0.005
-0.01
-0.005
-0.005
-0.005
-0.005
0.0
-0.005
0.0
0.0
0.0
0.0
0.005
0.0
0.01
0.005
0.01
0.005
0.01
0.01
0.015
0.01
0.015
0.01
0.01
0.005
0.015
0.01
0.015
0.01
0.015
0.01
0.015
0.015
0.015
-0.005
-0.015
0.01
-0.01
-0.015
0.02
0.04
0.02
0.025
0.02
0.015
0.015
0.01
0.005
0.04
0.095
0.22
-0.13
-0.525
-0.365
-0.155
0.015
-0.025
-0.01
-0.005
0.0
0.005
0.01
0.01
0.01
0.01
0.015
0.015
0.025
0.025
0.03
0.035
0.04
0.045
0.055
0.06
0.065
0.07
0.075
0.07
0.06
0.05
0.03
0.015
0.005
-0.005
0.0
-0.005
0.0
0.0
0.0
-0.005
0.0
0.0
0.0
0.0
0.0
0.0
0.01
0.005
0.005
0.005
0.01
0.005
0.01
0.005
0.01
0.01
0.01
0.005
0.01
0.01
0.01
0.005
0.015
0.005
0.015
0.01
0.02
0.01
0.015
0.01
0.015
0.015
0.005
-0.01
-0.025
-0.005
-0.02
-0.025
0.015
0.015
0.02
0.015
0.02
0.015
0.01
0.005
0.01
0.045
0.11
0.185
-0.175
-0.51
-0.365
-0.145
0.005
-0.03
-0.015
-0.005
0.0
0.0
0.005
0.005
0.01
0.01
0.015
0.015
0.015
0.02
0.025
0.025
0.03
0.035
0.045
0.045
0.06
0.055
0.06
0.055
0.05
0.035
0.02
0.0
0.0
-0.015
-0.01
-0.01
-0.01
-0.015
-0.01
-0.01
-0.005
-0.01
-0.005
-0.005
0.0
0.0
0.0
0.0
0.005
0.0
0.005
0.005
0.01
0.005
0.015
0.005
0.01
0.01
0.015
0.005
0.01
0.005
0.01
0.005
0.015
0.005
0.015
0.005
0.0
-0.015
-0.03
-0.01
-0.015
-0.03
0.015
0.02
0.015
0.02
0.02
0.015
0.015
0.005
0.01
0.05
0.105
0.24
-0.12
-0.555
-0.415
-0.175
0.005
-0.02
-0.01
0.0
0.01
0.01
0.015
0.01
0.02
0.015
0.025
0.03
0.035
0.035
0.04
0.045
0.05
0.05
0.06
0.065
0.07
0.075
0.07
0.065
0.07
0.04
0.03
0.01
0.0
-0.015
-0.005
-0.005
0.0
-0.01
0.0
0.0
0.0
-0.005
0.0
0.0
-0.005
0.0
0.01
0.005
0.01
0.005
0.01
0.01
0.005
0.01
0.02
0.01
0.01
0.005
0.02
0.005
0.01
0.01
0.02
0.005
0.02
-0.015
-0.015
-0.04
-0.045
-0.025
-0.01
0.015
0.01
0.02
0.015
0.015
0.02
0.02
0.02
0.02
0.07
0.17
0.14
-0.34
-0.51
-0.39
-0.125
0.015
-0.01
0.0
0.015
0.02
0.025
0.025
0.035
0.03
0.035
0.04
0.05
0.05
0.05
0.05
0.055
0.065
0.065
0.07
0.09
0.085
0.09
0.085
0.09
0.075
0.055
0.035
0.015
-0.01
0.0
-0.005
0.0
-0.005
-0.005
-0.005
-0.005
-0.01
0.0
0.0
0.0
0.0
0.005
0.0
0.01
0.005
0.01
0.005
0.015
0.005
0.015
0.005
0.015
0.01
0.015
0.01
0.02
0.01
0.015
0.01
-0.01
-0.035
-0.025
-0.055
-0.03
-0.01
0.025
0.01
0.025
0.02
0.03
0.02
0.025
0.02
0.05
0.055
0.23
-0.01
-0.525
-0.435
-0.26
-0.06
0.015
-0.005
0.01
0.005
0.025
0.02
0.03
0.025
0.035
0.03
0.04
0.035
0.045
0.035
0.05
0.045
0.06
0.05
0.07
0.07
0.08
0.07
0.08
0.065
0.055
0.025
0.015
-0.005
-0.005
-0.015
-0.005
-0.015
-0.005
-0.01
-0.005
-0.015
0.0
-0.01
0.0
-0.01
0.0
0.0
0.005
0.0
0.005
0.0
0.01
0.005
0.01
0.005
0.015
0.0
0.015
0.005
0.015
0.005
0.015
0.005
0.015
0.01
0.0
-0.03
-0.04
-0.015
-0.02
-0.035
0.0
0.02
0.015
0.015
0.015
0.005
0.01
0.0
0.01
0.03
0.035
0.225
-0.11
-0.54
-0.355
-0.195
0.005
-0.035
-0.01
-0.01
-0.005
-0.005
0.0
0.0
0.005
0.005
0.01
0.01
0.015
0.015
0.02
0.015
0.025
0.03
0.04
0.04
0.055
0.055
0.065
0.055
0.06
0.035
0.03
0.0
-0.005
-0.015
-0.01
-0.015
-0.01
-0.015
-0.01
-0.015
-0.01
-0.015
-0.005
-0.01
-0.005
-0.01
0.0
-0.005
0.0
-0.005
0.0
0.0
0.0
0.0
0.005
0.0
0.01
0.0
0.005
0.0
0.01
0.005
0.01
0.005
0.01
0.01
0.015
0.005
0.015
0.0
-0.015
-0.04
-0.005
-0.025
-0.02
0.005
0.03
0.015
0.03
0.015
0.02
0.01
0.02
0.01
0.05
0.05
0.26
-0.06
-0.51
-0.375
-0.195
0.0
-0.01
-0.01
0.005
0.0
0.015
0.01
0.02
0.01
0.025
0.015
0.03
0.02
0.03
0.025
0.035
0.035
0.05
0.045
0.065
0.06
0.075
0.07
0.08
0.065
0.06
0.035
0.025
0.0
0.0
-0.01
0.0
-0.01
-0.005
-0.01
0.0
-0.015
0.0
-0.01
0.0
-0.005
0.0
-0.005
0.005
0.0
0.005
0.0
0.005
0.005
0.01
0.005
0.015
0.005
0.015
0.025
0.035
0.015
0.05
0.01
-0.08
0.02
0.065
0.115
-0.03
0.115
0.115
0.08
0.08
0.05
0.13
0.18
0.14
0.145
0.1
0.1
0.175
0.115
0.03
0.065
0.045
-0.05
-0.045
-0.02
0.07
0.08
0.095
0.19
0.295
0.345
0.255
0.265
0.285
0.33
0.39
0.385
0.265
-0.205
-0.865
-0.32
0.35
0.4
0.26
0.33
0.435
0.43
0.475
0.515
0.47
0.515
0.555
0.545
0.45
0.5
0.61
0.49
0.51
0.5
0.57
0.46
0.365
0.375
0.36
0.335
0.33
0.41
0.255
0.06
0.185
0.055
-0.035
-0.165
-0.02
0.0
-0.415
-0.245
-0.08
-0.31
-0.235
-0.54
-0.56
-0.46
-0.39
-0.175
-0.345
-0.2
-0.37
-0.345
-0.06
-0.125
-0.29
-0.375
-0.225
-0.19
0.0
-0.01
-0.04
-0.165
-0.03
0.16
0.145
0.16
0.24
0.265
0.325
0.195
-0.315
-0.785
-0.365
-0.065
0.325
0.355
0.31
0.365
0.29
0.315
0.28
0.34
0.25
0.31
0.225
0.205
0.205
0.195
0.265
0.225
0.12
0.195
0.07
0.04
0.01
-0.06
0.015
0.08
0.005
0.04
0.04
0.01
0.03
-0.01
0.045
0.035
0.055
0.025
0.035
0.025
0.01
0.1
0.02
0.065
0.03
0.015
0.015
-0.01
0.035
0.015
0.0
-0.04
-0.145
-0.135
-0.04
0.025
0.02
0.08
0.08
0.08
0.08
0.095
0.095
0.105
0.105
0.17
0.175
-0.3
-1.0
-0.735
-0.35
0.005
0.14
0.09
0.1
0.12
0.12
0.14
0.155
0.135
0.135
0.14
0.13
0.13
0.15
0.135
0.155
0.155
0.145
0.15
0.14
0.135
0.16
0.22
0.165
0.1
0.14
0.15
0.18
0.0
0.01
0.015
0.09
-0.075
-0.015
-0.145
-0.14
-0.195
-0.095
0.075
-0.245
-0.2
-0.24
-0.17
-0.2
-0.175
-0.31
-0.325
-0.255
-0.325
-0.3
-0.425
-0.305
-0.21
-0.125
-0.09
-0.065
-0.08
-0.115
0.02
0.03
0.04
0.135
0.225
0.24
-0.325
-0.97
-0.62
-0.205
0.08
0.08
0.07
0.135
0.115
0.16
0.155
0.18
0.17
0.175
0.18
0.185
0.16
0.18
0.18
0.175
0.18
0.2
0.195
0.215
0.2
0.19
0.205
0.18
0.165
0.135
0.125
0.095
0.1
0.08
0.075
0.055
0.045
0.03
0.025
0.02
0.035
0.03
0.025
0.015
0.005
0.02
0.02
-0.01
-0.07
-0.06
-0.145
-0.18
-0.17
-0.165
-0.075
-0.025
-0.03
-0.035
-0.025
-0.025
0.01
-0.035
0.0
-0.015
0.01
0.095
-0.13
-0.755
-1.005
-0.65
-0.21
-0.05
-0.075
0.065
0.045
0.065
0.025
0.06
0.065
0.045
0.035
0.04
0.07
0.08
0.065
0.065
0.07
0.07
0.085
0.08
0.12
0.13
0.115
0.11
0.125
0.11
0.1
0.075
0.07
0.045
0.025
0.01
0.015
0.02
0.02
0.005
0.01
0.015
0.005
0.015
0.0
-0.005
-0.02
-0.04
-0.05
-0.15
-0.195
-0.15
-0.13
-0.045
0.0
0.0
0.005
0.01
0.025
0.025
0.02
0.03
0.045
0.09
0.165
-0.135
-0.775
-0.94
-0.54
-0.165
-0.01
-0.01
0.03
0.03
0.03
0.035
0.045
0.04
0.045
0.05
0.025
0.06
0.055
0.05
0.06
0.065
0.07
0.075
0.08
0.085
0.09
0.085
0.09
0.085
0.08
0.06
0.03
0.01
0.0
0.0
-0.015
-0.015
-0.015
-0.005
-0.01
-0.01
-0.01
-0.01
-0.015
-0.02
-0.015
-0.05
-0.06
-0.11
-0.14
-0.17
-0.17
-0.105
-0.03
-0.005
-0.01
0.0
0.0
0.0
0.0
0.005
-0.005
0.065
0.11
0.03
-0.515
-1.035
-0.66
-0.225
-0.015
-0.03
-0.01
0.01
0.02
0.03
0.04
0.045
0.035
0.04
0.045
0.05
0.045
0.06
0.06
0.065
0.09
0.08
0.09
0.09
0.095
0.1
0.1
0.105
0.09
0.07
0.05
0.02
0.015
0.005
0.005
0.0
0.0
0.0
-0.01
-0.01
-0.005
-0.02
-0.01
-0.02
-0.05
-0.05
-0.125
-0.15
-0.145
-0.16
-0.09
-0.025
-0.005
0.0
0.0
0.0
0.0
0.0
0.005
0.0
0.06
0.135
-0.13
-0.73
-0.905
-0.5
-0.165
-0.025
-0.03
-0.02
0.01
0.01
0.02
0.025
0.02
0.015
0.025
0.02
0.03
0.03
0.045
0.05
0.055
0.06
0.07
0.075
0.08
0.09
0.095
0.095
0.09
0.065
0.05
0.01
0.0
-0.015
-0.02
-0.02
-0.02
-0.03
-0.01
-0.02
-0.035
-0.03
-0.03
-0.045
-0.065
-0.08
-0.145
-0.15
-0.15
-0.135
-0.065
-0.015
-0.01
0.0
0.0
0.0
0.01
0.005
0.0
0.045
0.075
0.145
-0.35
-1.0
-0.685
-0.255
-0.035
-0.02
0.0
0.025
0.035
0.04
0.045
0.055
0.06
0.07
0.065
0.075
0.075
0.085
0.09
0.095
0.105
0.125
0.13
0.14
0.15
0.155
0.165
0.16
0.155
0.13
0.1
0.07
0.05
0.04
0.04
0.03
0.035
0.025
0.025
0.02
0.025
0.02
-0.015
-0.025
-0.07
-0.095
-0.1
-0.12
-0.07
-0.015
0.015
0.02
0.04
0.02
0.03
0.02
0.03
0.03
0.075
0.165
-0.145
-0.71
-0.845
-0.42
-0.11
-0.025
-0.015
0.0
0.02
0.02
0.035
0.035
0.035
0.03
0.04
0.04
0.05
0.06
0.065
0.06
0.075
0.08
0.1
0.11
0.12
0.125
0.135
0.135
0.135
0.115
0.09
0.055
0.035
0.015
0.01
0.0
0.0
0.0
0.005
0.0
0.0
0.0
-0.025
-0.04
-0.085
-0.11
-0.115
-0.125
-0.09
-0.025
0.01
0.005
0.015
0.02
0.025
0.02
0.025
0.035
0.08
0.2
-0.245
-0.84
-0.73
-0.32
-0.065
-0.025
-0.005
0.01
0.025
0.03
0.025
0.025
0.03
0.035
0.04
0.04
0.055
0.045
0.065
0.065
0.075
0.085
0.1
0.11
0.13
0.135
0.145
0.145
0.14
0.11
0.085
0.04
0.025
0.005
0.005
0.0
0.0
-0.005
-0.01
-0.01
-0.015
-0.005
-0.05
-0.05
-0.105
-0.1
-0.125
-0.13
-0.08
-0.02
0.0
0.01
0.01
0.02
0.015
0.02
0.01
0.055
0.115
0.1
-0.43
-0.945
-0.535
-0.18
-0.01
-0.02
0.0
0.015
0.025
0.035
0.035
0.04
0.04
0.045
0.045
0.055
0.055
0.06
0.06
0.075
0.085
0.1
0.105
0.12
0.135
0.145
0.15
0.15
0.135
0.11
0.065
0.04
0.015
0.005
0.0
0.0
0.0
-0.005
-0.01
-0.015
-0.01
-0.015
-0.02
-0.05
-0.055
-0.12
-0.11
-0.12
-0.125
-0.07
-0.005
0.0
0.005
0.0
0.01
0.005
0.01
0.015
0.055
0.165
-0.18
-0.725
-0.775
-0.36
-0.1
-0.025
-0.02
0.0
0.02
0.015
0.025
0.025
0.03
0.03
0.035
0.04
0.04
0.045
0.055
0.06
0.075
0.085
0.105
0.115
0.135
0.145
0.155
0.16
0.16
0.145
0.105
0.06
0.03
0.01
0.005
0.005
0.005
0.0
0.0
0.0
-0.005
-0.005
-0.01
-0.01
-0.01
-0.005
-0.005
-0.04
-0.045
-0.11
-0.095
-0.105
-0.11
-0.055
0.0
0.0
0.01
0.015
0.015
0.01
0.01
0.035
0.045
0.18
-0.31
-0.895
-0.635
-0.25
-0.035
-0.035
-0.01
0.005
0.015
0.02
0.025
0.03
0.03
0.035
0.035
0.035
0.045
0.045
0.05
0.06
0.07
0.08
0.1
0.11
0.13
0.15
0.155
0.16
0.155
0.135
0.095
0.055
0.03
0.015
0.005
0.005
0.005
0.0
0.0
-0.005
0.0
-0.005
-0.005
-0.01
-0.005
-0.005
0.0
0.0
0.0
0.0
0.005
0.01
0.01
0.0
-0.035
-0.035
-0.075
-0.075
-0.06
-0.07
-0.01
0.01
0.015
0.015
0.025
0.015
0.02
0.01
0.035
0.05
0.17
-0.345
-0.885
-0.59
-0.225
-0.035
-0.04
-0.02
0.0
0.005
0.01
0.01
0.02
0.015
0.02
0.02
0.02
0.03
0.035
0.035
0.05
0.055
0.075
0.085
0.1
0.11
0.13
0.14
0.145
0.15
0.135
0.1
0.065
0.03
0.015
0.005
0.005
0.0
0.0
-0.005
0.0
-0.005
0.0
-0.01
0.0
-0.01
0.0
-0.005
0.0
0.0
0.0
0.0
0.01
0.005
0.01
0.015
0.015
0.015
0.015
0.02
0.02
0.015
0.02
0.02
0.02
0.01
-0.01
-0.025
-0.035
-0.065
-0.05
-0.025
0.015
0.005
0.015
0.015
0.01
0.01
0.015
0.025
0.045
0.17
-0.325
-0.84
-0.63
-0.26
-0.04
-0.045
-0.03
-0.01
0.005
0.005
0.01
0.005
0.005
0.015
0.02
0.02
0.025
0.025
0.035
0.04
0.055
0.065
0.075
0.09
0.1
0.115
0.13
0.135
0.145
0.135
0.11
0.075
0.045
0.02
0.005
0.005
0.005
0.0
0.0
0.0
0.0
-0.005
0.0
-0.005
-0.005
0.0
0.0
0.0
0.0
0.005
0.01
0.01
0.01
0.005
0.02
0.02
0.025
0.015
0.025
0.02
0.025
0.025
0.025
0.02
0.025
0.015
0.005
0.0
-0.025
-0.05
-0.04
-0.055
0.0
0.02
0.02
0.02
0.025
0.02
0.015
0.01
0.06
0.11
-0.045
-0.54
-0.865
-0.43
-0.12
-0.03
-0.03
-0.02
0.0
0.0
0.01
0.005
0.015
0.01
0.02
0.015
0.025
0.025
0.035
0.03
0.05
0.05
0.07
0.075
0.09
0.105
0.125
0.125
0.14
0.13
0.12
0.085
0.06
0.03
0.02
0.005
0.005
0.005
0.0
0.0
0.0
-0.005
0.0
-0.005
-0.005
-0.005
-0.005
-0.005
0.0
0.0
0.005
0.005
0.01
0.01
0.02
0.015
0.02
0.015
0.03
0.02
0.025
0.025
0.025
0.02
0.025
0.02
0.03
0.02
0.025
0.02
0.03
0.015
0.02
-0.005
-0.02
-0.04
-0.05
-0.05
-0.005
0.015
0.025
0.02
0.03
0.02
0.02
0.01
0.06
0.11
-0.065
-0.575
-0.88
-0.435
-0.125
-0.035
-0.035
-0.02
0.0
-0.005
0.0
0.0
0.01
0.0
0.01
0.005
0.01
0.01
0.025
0.02
0.035
0.045
0.055
0.065
0.08
0.085
0.105
0.11
0.12
0.12
0.11
0.08
0.05
0.025
0.02
0.005
0.0
0.0
0.0
-0.005
0.0
-0.005
0.0
-0.005
-0.005
-0.005
0.0
0.0
0.005
0.01
0.015
0.01
0.015
0.02
0.025
0.02
0.025
0.02
0.035
0.025
0.035
0.03
0.03
0.025
0.03
0.03
0.03
0.03
0.035
0.03
0.035
0.005
0.0
-0.025
-0.05
-0.035
-0.025
0.0
0.025
0.025
0.03
0.02
0.025
0.025
0.06
0.08
0.2
-0.265
-0.93
-0.765
-0.315
-0.03
-0.02
-0.015
0.005
0.02
0.015
0.015
0.025
0.02
0.025
0.025
0.03
0.035
0.04
0.045
0.05
0.05
0.07
0.065
0.08
0.085
0.1
0.1
0.11
0.105
0.105
0.085
0.065
0.04
0.02
0.005
0.01
0.0
0.0
0.0
0.0
-0.005
0.0
-0.005
0.0
0.0
0.0
0.0
0.0
0.01
0.005
0.005
0.015
0.015
0.015
0.015
0.025
0.02
0.02
0.015
0.025
0.02
0.02
0.02
0.025
0.02
0.025
0.025
0.0
-0.015
-0.055
-0.07
-0.045
-0.045
-0.005
0.015
0.025
0.02
0.025
0.02
0.025
0.035
0.065
0.165
-0.315
-0.885
-0.725
-0.31
-0.035
-0.035
-0.015
0.0
0.0
0.005
0.01
0.01
0.02
0.02
0.02
0.02
0.03
0.03
0.04
0.04
0.05
0.055
0.065
0.07
0.09
0.095
0.105
0.11
0.115
0.1
0.09
0.06
0.035
0.01
0.005
0.0
0.0
0.0
0.0
-0.005
0.0
-0.005
-0.005
-0.005
-0.005
-0.01
-0.005
-0.005
0.0
0.0
0.0
0.005
0.005
0.01
0.01
0.015
0.015
0.015
0.02
0.02
0.025
0.02
0.025
0.025
0.025
0.025
0.025
0.02
0.025
0.02
0.03
0.03
0.03
0.025
0.03
0.0
0.0
-0.035
-0.05
-0.04
-0.035
0.0
0.025
0.03
0.025
0.03
0.02
0.025
0.035
0.06
0.16
-0.33
-0.845
-0.73
-0.31
-0.045
-0.035
-0.015
0.0
0.005
0.01
0.02
0.02
0.015
0.02
0.025
0.03
0.03
0.035
0.04
0.05
0.055
0.065
0.07
0.085
0.09
0.105
0.105
0.115
0.12
0.12
0.09
0.08
0.05
0.025
0.01
0.01
0.005
0.01
0.0
0.0
0.0
0.0
0.0
0.0
0.0
0.0
0.0
0.005
0.005
0.01
0.01
0.015
0.015
0.015
0.015
0.02
0.015
0.02
0.02
0.025
0.025
0.025
0.02
0.025
0.02
0.025
0.025
0.025
0.02
0.03
0.03
0.03
0.03
0.025
0.035
0.035
0.03
0.0
-0.015
-0.03
-0.06
-0.05
-0.01
0.025
0.02
0.025
0.035
0.025
0.02
0.015
0.06
0.09
0.03
-0.52
-0.985
-0.52
-0.155
-0.005
-0.03
-0.01
0.0
0.01
0.015
0.015
0.015
0.015
0.015
0.02
0.025
0.03
0.035
0.04
0.05
0.055
0.065
0.065
0.08
0.09
0.105
0.11
0.115
0.115
0.105
0.08
0.055
0.03
0.015
0.01
0.0
0.005
0.0
0.0
-0.005
0.0
-0.005
-0.005
-0.005
-0.005
0.0
0.0
0.0
0.0
0.0
0.005
0.005
0.01
0.01
0.02
0.01
0.015
0.015
0.02
0.01
0.02
0.015
0.025
0.02
0.025
0.025
0.03
0.02
0.035
0.02
0.03
0.025
0.035
0.03
0.035
0.025
0.035
0.025
0.035
0.015
-0.005
0.005
-0.04
-0.03
0.025
0.03
0.04
0.03
0.04
0.025
0.025
0.03
0.075
0.165
-0.235
-0.775
-0.805
-0.375
-0.065
-0.025
-0.015
-0.005
0.01
0.01
0.015
0.015
0.02
0.015
0.02
0.02
0.025
0.025
0.035
0.04
0.05
0.05
0.065
0.075
0.085
0.09
0.105
0.11
0.115
0.105
0.095
0.065
0.04
0.025
0.015
0.0
0.005
0.0
0.005
0.0
-0.005
0.0
-0.005
-0.005
0.0
-0.005
0.0
0.0
0.0
0.0
0.005
0.01
0.01
0.01
0.01
0.01
0.015
0.015
0.02
0.02
0.02
0.02
0.02
0.025
0.025
0.025
0.025
0.025
0.03
0.025
0.03
0.03
0.03
0.03
0.03
0.035
0.03
0.04
0.015
0.0
0.0
-0.04
-0.005
0.02
0.03
0.035
0.025
0.03
0.025
0.025
0.03
0.075
0.17
-0.28
-0.83
-0.78
-0.355
-0.06
-0.03
-0.02
0.0
0.0
0.01
0.01
0.015
0.015
0.02
0.015
0.02
0.02
0.03
0.03
0.04
0.045
0.055
0.06
0.07
0.08
0.09
0.1
0.11
0.105
0.11
0.085
0.065
0.035
0.015
0.005
0.0
0.0
0.0
0.0
0.0
-0.005
-0.005
-0.01
-0.005
-0.005
0.0
0.0
0.0
0.005
0.005
0.005
0.015
0.01
0.015
0.015
0.025
0.02
0.02
0.02
0.025
0.025
0.03
0.03
0.03
0.025
0.035
0.03
0.03
0.03
0.035
0.03
0.03
0.03
0.035
0.03
0.04
0.015
0.0
-0.005
-0.03
-0.01
0.02
0.03
0.035
0.03
0.035
0.025
0.03
0.02
0.075
0.165
-0.195
-0.765
-0.84
-0.395
-0.075
-0.02
-0.015
-0.005
0.01
0.01
0.015
0.015
0.02
0.02
0.025
0.02
0.035
0.035
0.04
0.045
0.06
0.065
0.075
0.085
0.095
0.105
0.115
0.115
0.125
0.12
0.1
0.075
0.055
0.03
0.02
0.015
0.015
0.015
0.015
0.01
0.01
0.005
0.01
0.01
0.01
0.01
0.01
0.015
0.02
0.015
0.025
0.02
0.025
0.025
0.02
0.025
0.03
0.03
0.025
0.025
0.03
0.025
0.035
0.03
0.03
0.025
0.035
0.03
0.03
0.025
0.03
0.025
0.035
0.02
0.035
0.02
-0.005
0.005
-0.045
-0.03
0.025
0.03
0.03
0.025
0.035
0.015
0.02
0.01
0.075
0.115
0.0
-0.565
-0.97
-0.52
-0.145
-0.01
-0.03
-0.005
0.005
0.005
0.015
0.01
0.02
0.015
0.025
0.02
0.03
0.025
0.035
0.04
0.055
0.055
0.07
0.075
0.09
0.09
0.105
0.105
0.115
0.11
0.1
0.07
0.05
0.025
0.015
0.005
0.005
0.005
0.005
0.005
0.005
0.0
0.0
0.0
0.0
0.0
0.005
0.005
0.01
0.01
0.015
0.015
0.02
0.015
0.03
0.02
0.025
0.025
0.03
0.025
0.03
0.03
0.03
0.03
0.035
0.035
0.04
0.035
0.04
0.04
0.04
0.04
0.045
0.045
0.04
0.005
0.025
-0.025
-0.025
0.03
0.04
0.04
0.045
0.045
0.035
0.03
0.025
0.055
0.095
0.2
-0.375
-0.97
-0.675
-0.255
-0.02
-0.025
-0.005
0.01
0.01
0.02
0.025
0.025
0.02
0.025
0.025
0.03
0.04
0.04
0.05
0.055
0.06
0.065
0.08
0.085
0.1
0.105
0.115
0.115
0.115
0.11
0.085
0.06
0.035
0.02
0.01
0.005
0.005
0.0
0.005
0.0
0.0
0.0
0.0
0.005
0.005
0.005
0.01
0.01
0.015
0.015
0.02
0.02
0.025
0.02
0.025
0.02
0.025
0.025
0.025
0.03
0.035
0.03
0.03
0.03
0.035
0.035
0.03
0.03
0.03
0.035
0.03
0.03
0.005
0.01
-0.02
-0.035
0.005
0.02
0.02
0.03
0.025
0.025
0.025
0.02
0.025
0.075
0.17
-0.19
-0.75
-0.835
-0.4
-0.09
-0.02
-0.02
0.0
0.0
0.01
0.015
0.02
0.02
0.025
0.025
0.03
0.035
0.04
0.045
0.045
0.06
0.065
0.075
0.085
0.095
0.105
0.11
0.115
0.115
0.11
0.095
0.065
0.04
0.025
0.01
0.005
0.005
0.005
0.0
0.005
0.0
0.0
0.0
0.0
0.0
0.005
0.005
0.005
0.01
0.01
0.015
0.015
0.015
0.02
0.02
0.025
0.02
0.025
0.025
0.03
0.025
0.03
0.03
0.03
0.035
0.03
0.03
0.035
0.035
0.035
0.035
0.025
0.03
0.01
0.0
-0.01
-0.03
0.0
0.015
0.025
0.03
0.025
0.035
0.025
0.025
0.015
0.07
0.135
-0.07
-0.615
-0.925
-0.465
-0.125
-0.015
-0.03
-0.01
0.0
0.0
0.01
0.01
0.015
0.02
0.02
0.015
0.025
0.025
0.03
0.04
0.045
0.05
0.065
0.07
0.08
0.095
0.1
0.105
0.105
0.11
0.09
0.06
0.04
0.015
0.0
0.0
0.0
0.0
0.0
0.0
-0.005
0.0
-0.005
0.0
0.0
0.0
0.0
0.0
0.0
0.005
0.005
0.005
0.005
0.01
0.01
0.01
0.015
0.015
0.015
0.01
0.015
0.015
0.015
0.015
0.015
0.015
0.015
0.01
0.01
0.015
0.015
0.005
0.015
0.0
-0.02
-0.015
-0.06
-0.035
0.0
0.005
0.01
0.005
0.005
0.0
0.0
-0.005
0.035
0.07
0.1
-0.48
-1.025
-0.605
-0.215
-0.035
-0.055
-0.035
-0.015
-0.01
-0.005
0.0
0.0
0.0
0.0
0.005
0.005
0.01
0.02
0.025
0.03
0.04
0.05
0.06
0.075
0.075
0.09
0.095
0.095
0.1
0.08
0.06
0.025
0.005
0.0
-0.005
0.0
-0.005
0.0
-0.005
-0.01
0.0
-0.005
-0.005
0.0
0.0
0.0
0.0
0.0
0.005
0.01
0.01
0.01
0.01
0.01
0.015
0.02
0.02
0.02
0.025
0.025
0.03
0.025
0.025
0.03
0.03
0.03
0.03
0.03
0.03
0.03
0.03
0.0
0.015
-0.045
-0.035
0.02
0.03
0.025
0.04
0.03
0.03
0.035
0.02
0.035
0.08
0.195
-0.175
-0.83
-0.875
-0.425
-0.08
-0.015
-0.015
0.0
0.01
0.015
0.015
0.03
0.025
0.03
0.035
0.04
0.045
0.045
0.05
0.055
0.065
0.07
0.085
0.09
0.095
0.1
0.105
0.11
0.105
0.095
0.08
0.055
0.035
0.02
0.015
0.015
0.015
0.01
0.015
0.015
0.02
0.015
0.02
0.02
0.025
0.03
0.03
0.04
0.035
0.04
0.045
0.045
0.05
0.045
0.045
0.05
0.055
0.05
0.055
0.05
0.06
0.055
0.055
0.05
0.06
0.055
0.065
0.05
0.06
0.06
0.065
0.03
0.02
-0.015
-0.015
0.025
0.04
0.035
0.06
0.05
0.05
0.04
0.045
0.035
0.08
0.135
-0.04
-0.565
-0.925
-0.5
-0.13
-0.005
-0.015
-0.005
0.01
0.005
0.015
0.01
0.02
0.015
0.025
0.015
0.025
0.025
0.04
0.035
0.05
0.055
0.065
0.065
0.08
0.085
0.095
0.1
0.095
0.09
0.07
0.05
0.025
0.005
0.0
0.0
0.005
0.0
0.005
0.005
0.005
0.0
0.0
0.0
0.0
0.0
0.0
0.005
0.01
0.01
0.015
0.015
0.02
0.02
0.025
0.025
0.03
0.03
0.03
0.03
0.035
0.03
0.03
0.03
0.035
0.035
0.035
0.03
0.04
0.03
0.04
0.035
0.04
0.005
0.005
-0.02
-0.025
0.01
0.03
0.025
0.04
0.03
0.04
0.025
0.025
0.01
0.06
0.1
-0.02
-0.56
-0.96
-0.49
-0.135
-0.015
-0.025
-0.01
0.005
0.005
0.015
0.015
0.02
0.015
0.02
0.02
0.025
0.025
0.035
0.035
0.05
0.05
0.06
0.07
0.09
0.095
0.105
0.11
0.12
0.11
0.095
0.065
0.04
0.01
0.005
0.0
0.0
0.0
0.005
0.0
0.0
0.0
0.0
0.0
0.0
0.0
0.0
0.0
0.0
0.0
0.005
0.005
0.015
0.015
0.015
0.015
0.02
0.025
0.025
0.02
0.025
0.025
0.025
0.03
0.035
0.03
0.03
0.03
0.035
0.035
0.035
0.035
0.03
0.035
0.04
0.03
0.0
0.025
-0.04
-0.025
0.025
0.035
0.03
0.04
0.035
0.035
0.025
0.025
0.025
0.075
0.155
-0.17
-0.69
-0.865
-0.415
-0.095
-0.025
-0.025
-0.01
0.0
0.005
0.01
0.01
0.01
0.01
0.015
0.015
0.02
0.02
0.025
0.035
0.04
0.05
0.06
0.07
0.08
0.09
0.1
0.105
0.105
0.1
0.08
0.05
0.02
0.0
-0.005
-0.005
-0.01
-0.01
-0.01
-0.01
-0.015
-0.015
-0.02
-0.02
-0.02
-0.015
-0.02
-0.015
-0.015
-0.01
-0.01
-0.005
-0.005
0.0
-0.005
0.0
0.0
0.0
0.0
0.0
0.0
0.0
0.0
0.0
0.0
0.0
0.0
0.0
0.005
0.005
0.005
0.005
0.005
0.01
0.01
0.01
0.015
0.0
-0.005
-0.025
-0.045
-0.005
0.005
0.01
0.025
0.02
0.025
0.015
0.01
0.01
0.055
0.08
0.13
-0.455
-1.045
-0.64
-0.22
-0.02
-0.04
-0.02
0.0
0.005
0.005
0.01
0.015
0.02
0.025
0.015
0.03
0.03
0.04
0.045
0.045
0.05
0.065
0.075
0.075
0.085
0.085
0.09
0.095
0.085
0.08
0.05
0.025
0.0
0.0
0.0
0.0
0.0
0.0
0.01
0.0
0.0
0.0
0.0
0.0
0.005
0.005
0.01
0.005
0.01
0.005
0.01
0.02
0.015
0.0
0.005
0.01
0.005
0.01
0.025
0.015
0.02
0.02
0.02
0.02
0.03
0.02
0.025
0.02
0.03
0.025
0.035
0.04
0.04
0.005
0.0
-0.03
-0.04
0.0
0.03
0.02
0.04
0.03
0.04
0.02
0.025
0.035
0.075
0.105
0.17
-0.355
-1.065
-0.75
-0.25
0.0
-0.025
-0.005
0.005
0.02
0.03
0.025
0.03
0.025
0.03
0.035
0.045
0.04
0.055
0.055
0.06
0.05
0.075
0.075
0.085
0.1
0.1
0.095
0.095
0.09
0.075
0.06
0.04
0.015
0.015
0.015
0.02
0.01
0.015
0.01
0.015
0.01
0.01
0.015
0.02
0.025
0.035
0.03
0.05
0.035
0.04
0.04
0.04
0.045
0.045
0.05
0.055
0.055
0.055
0.055
0.06
0.05
0.06
0.055
0.06
0.06
0.065
0.055
0.065
0.06
0.06
0.06
0.065
0.015
0.03
-0.03
-0.02
0.035
0.045
0.04
0.055
0.05
0.055
0.045
0.05
0.035
0.085
0.13
-0.075
-0.58
-0.96
-0.495
-0.12
0.0
-0.01
0.0
0.025
0.02
0.03
0.025
0.03
0.03
0.035
0.03
0.04
0.045
0.05
0.05
0.055
0.06
0.075
0.075
0.085
0.085
0.095
0.095
0.095
0.085
0.065
0.035
0.02
0.005
0.0
0.0
0.0
0.0
0.005
0.0
0.005
0.005
0.0
0.0
0.0
0.0
0.0
0.0
0.0
0.01
0.005
0.01
0.015
0.015
0.02
0.02
0.025
0.02
0.025
0.025
0.03
0.03
0.03
0.03
0.035
0.03
0.035
0.03
0.035
0.035
0.035
0.03
0.04
0.03
0.035
0.035
0.04
0.01
0.0
-0.02
-0.035
0.0
0.02
0.025
0.035
0.03
0.035
0.03
0.03
0.025
0.06
0.065
0.06
-0.52
-1.005
-0.565
-0.18
-0.01
-0.035
-0.015
0.0
0.005
0.015
0.015
0.02
0.015
0.025
0.02
0.03
0.03
0.04
0.04
0.045
0.055
0.06
0.07
0.08
0.09
0.1
0.105
0.11
0.105
0.085
0.06
0.035
0.01
0.0
-0.005
0.0
0.0
0.005
0.0
0.0
0.0
0.0
0.0
0.0
0.0
0.0
0.0
0.0
0.005
0.005
0.005
0.01
0.01
0.01
0.015
0.02
0.015
0.02
0.02
0.025
0.025
0.025
0.025
0.025
0.025
0.025
0.025
0.03
0.03
0.025
0.025
0.025
0.03
0.03
0.03
0.035
0.025
-0.01
0.01
-0.04
-0.02
0.015
0.03
0.025
0.03
0.025
0.03
0.02
0.02
0.025
0.07
0.16
-0.275
-0.805
-0.81
-0.365
-0.065
-0.03
-0.025
-0.005
0.0
0.005
0.01
0.015
0.015
0.02
0.025
0.02
0.025
0.03
0.035
0.04
0.045
0.055
0.06
0.075
0.085
0.09
0.095
0.105
0.1
0.09
0.065
0.04
0.015
0.0
0.0
0.0
0.0
0.0
0.0
0.0
0.0
0.0
-0.005
0.0
0.0
0.0
0.0
0.0
0.005
0.005
0.005
0.01
0.01
0.015
0.01
0.015
0.015
0.02
0.02
0.025
0.025
0.03
0.03
0.025
0.025
0.03
0.025
0.03
0.03
0.03
0.03
0.03
0.03
0.03
0.03
0.035
0.03
-0.01
0.02
-0.05
-0.03
0.02
0.03
0.02
0.03
0.03
0.03
0.02
0.02
0.015
0.07
0.13
-0.1
-0.645
-0.945
-0.48
-0.125
-0.025
-0.035
-0.02
-0.005
0.0
0.0
0.0
0.005
0.005
0.005
0.01
0.01
0.01
0.02
0.025
0.03
0.04
0.05
0.06
0.07
0.08
0.085
0.09
0.095
0.085
0.065
0.035
0.01
-0.005
-0.01
-0.01
-0.005
-0.01
-0.01
-0.01
-0.015
-0.01
-0.015
-0.01
-0.01
-0.01
-0.005
-0.005
0.0
0.0
0.0
0.0
0.0
0.005
0.005
0.01
0.015
0.01
0.02
0.015
0.015
0.01
0.01
0.015
0.02
0.02
0.025
0.025
0.025
0.025
0.02
0.025
0.025
0.025
0.02
0.03
0.03
0.035
0.01
0.0
-0.025
-0.035
-0.005
0.015
0.03
0.04
0.035
0.025
0.02
0.03
0.015
0.065
0.095
0.19
-0.37
-1.08
-0.76
-0.29
-0.025
-0.025
-0.015
0.0
0.0
0.02
0.015
0.02
0.025
0.035
0.025
0.04
0.035
0.04
0.04
0.045
0.05
0.06
0.06
0.075
0.07
0.075
0.08
0.075
0.065
0.05
0.03
0.005
0.0
-0.01
-0.015
-0.005
0.0
-0.005
0.0
0.0
-0.005
0.0
0.0
0.0
0.005
0.005
0.005
0.01
0.01
0.01
0.01
0.02
0.02
0.02
0.015
0.015
0.025
0.02
0.025
0.025
0.03
0.035
0.03
0.025
0.03
0.03
0.035
0.025
0.04
0.035
0.04
0.04
0.03
-0.005
0.025
-0.04
-0.03
0.02
0.035
0.04
0.035
0.04
0.045
0.035
0.045
0.04
0.09
0.17
-0.095
-0.655
-0.96
-0.52
-0.105
0.01
-0.01
0.01
0.02
0.025
0.035
0.035
0.04
0.035
0.045
0.045
0.05
0.05
0.055
0.06
0.06
0.06
0.08
0.09
0.09
0.09
0.1
0.095
0.095
0.08
0.06
0.035
0.015
0.0
-0.005
0.0
-0.005
0.0
0.0
0.0
-0.005
0.0
0.0
0.0
0.0
0.0
0.005
0.005
0.005
0.01
0.015
0.015
0.015
0.02
0.025
0.025
0.03
0.03
0.03
0.035
0.035
0.035
0.04
0.04
0.04
0.045
0.045
0.04
0.045
0.045
0.05
0.05
0.05
0.0
0.02
-0.025
-0.025
0.03
0.04
0.035
0.05
0.045
0.05
0.04
0.04
0.035
0.085
0.11
-0.14
-0.655
-0.95
-0.455
-0.095
-0.01
-0.015
0.0
0.01
0.02
0.025
0.025
0.025
0.02
0.03
0.025
0.035
0.035
0.04
0.04
0.05
0.05
0.065
0.07
0.08
0.085
0.095
0.095
0.095
0.085
0.06
0.03
0.01
0.0
0.0
0.005
0.005
0.01
0.01
0.01
0.005
0.005
0.01
0.005
0.005
0.01
0.01
0.015
0.015
0.015
0.02
0.025
0.025
0.025
0.03
0.03
0.035
0.03
0.035
0.035
0.035
0.035
0.04
0.04
0.04
0.04
0.04
0.035
0.035
0.035
0.04
0.025
0.0
0.0
-0.025
0.0
0.03
0.04
0.04
0.045
0.04
0.04
0.03
0.035
0.05
0.085
0.19
-0.335
-0.9
-0.75
-0.315
-0.04
-0.025
-0.015
0.0
0.01
0.015
0.02
0.025
0.025
0.025
0.03
0.03
0.03
0.04
0.04
0.05
0.055
0.065
0.075
0.085
0.095
0.1
0.105
0.11
0.105
0.09
0.065
0.035
0.015
0.005
0.005
0.005
0.005
0.01
0.01
0.01
0.01
0.01
0.005
0.005
0.005
0.01
0.01
0.015
0.02
0.02
0.02
0.025
0.025
0.025
0.03
0.03
0.035
0.03
0.03
0.03
0.035
0.035
0.03
0.035
0.035
0.035
0.035
0.035
0.04
0.04
0.02
0.0
0.0
-0.03
-0.005
0.02
0.04
0.04
0.04
0.04
0.04
0.03
0.03
0.04
0.08
0.19
-0.245
-0.82
-0.805
-0.37
-0.07
-0.025
-0.015
0.0
0.005
0.01
0.015
0.015
0.015
0.015
0.025
0.025
0.025
0.03
0.035
0.04
0.045
0.055
0.065
0.075
0.08
0.09
0.095
0.095
0.09
0.08
0.05
0.025
0.0
-0.005
-0.005
-0.005
-0.005
0.0
0.0
0.0
0.0
0.005
0.005
0.005
0.005
0.01
0.015
0.015
0.015
0.02
0.02
0.025
0.025
0.03
0.03
0.03
0.03
0.035
0.03
0.04
0.035
0.04
0.035
0.04
0.035
0.04
0.035
0.04
0.035
0.005
0.02
-0.02
-0.025
0.02
0.03
0.035
0.04
0.04
0.035
0.035
0.03
0.03
0.05
0.09
0.205
-0.31
-0.92
-0.73
-0.3
-0.04
-0.025
-0.01
0.005
0.01
0.015
0.02
0.02
0.025
0.025
0.03
0.03
0.03
0.04
0.045
0.05
0.055
0.065
0.075
0.085
0.09
0.095
0.105
0.1
0.1
0.085
0.06
0.03
0.005
0.0
-0.005
-0.005
-0.005
0.0
0.0
0.0
0.0
-0.005
-0.005
-0.005
-0.005
-0.005
0.0
0.0
0.0
0.005
0.01
0.01
0.01
0.015
0.02
0.02
0.025
0.02
0.025
0.025
0.03
0.035
0.035
0.035
0.035
0.04
0.035
0.035
0.035
0.03
0.0
0.015
-0.03
-0.025
0.02
0.025
0.035
0.04
0.04
0.035
0.035
0.025
0.03
0.045
0.095
0.2
-0.27
-0.915
-0.805
-0.35
-0.055
-0.025
-0.015
0.0
0.015
0.015
0.02
0.025
0.025
0.03
0.03
0.04
0.035
0.05
0.045
0.055
0.065
0.065
0.07
0.08
0.085
0.1
0.09
0.095
0.09
0.07
0.05
0.015
0.0
0.0
0.0
0.0
0.015
0.005
0.005
0.01
0.005
0.0
0.01
0.005
0.015
0.02
0.005
0.015
0.02
0.02
0.025
0.02
0.025
0.02
0.025
0.03
0.035
0.03
0.03
0.03
0.04
0.03
0.035
0.03
0.04
0.035
0.03
0.035
0.025
-0.005
0.0
-0.04
-0.01
0.02
0.025
0.03
0.045
0.03
0.035
0.02
0.03
0.025
0.09
0.145
0.08
-0.465
-1.055
-0.65
-0.19
0.005
-0.025
-0.005
0.01
0.015
0.025
0.025
0.035
0.025
0.04
0.045
0.05
0.055
0.055
0.05
0.07
0.065
0.07
0.08
0.09
0.09
0.1
0.095
0.085
0.08
0.06
0.04
0.025
0.01
0.015
0.005
0.015
0.005
0.015
0.015
0.015
0.025
0.025
0.02
0.025
0.02
0.035
0.03
0.035
0.045
0.04
0.045
0.045
0.05
0.045
0.055
0.055
0.045
0.05
0.055
0.05
0.065
0.055
0.06
0.06
0.06
0.055
0.06
0.06
0.015
0.03
-0.02
-0.005
0.04
0.04
0.05
0.065
0.06
0.06
0.06
0.055
0.05
0.08
0.11
0.195
-0.3
-0.93
-0.765
-0.315
-0.02
0.0
0.0
0.02
0.03
0.04
0.04
0.04
0.045
0.045
0.04
0.05
0.05
0.055
0.055
0.065
0.07
0.075
0.08
0.095
0.1
0.105
0.105
0.105
0.095
0.075
0.05
0.03
0.015
0.01
0.01
0.015
0.01
0.015
0.015
0.01
0.01
0.015
0.005
0.01
0.005
0.01
0.015
0.02
0.025
0.02
0.02
0.03
0.025
0.03
0.03
0.035
0.035
0.04
0.04
0.04
0.04
0.045
0.05
0.04
0.045
0.045
0.045
0.045
0.045
0.045
0.045
0.025
0.0
-0.005
-0.025
0.01
0.02
0.035
0.04
0.05
0.04
0.045
0.035
0.04
0.035
0.08
0.13
-0.185
-0.7
-0.89
-0.425
-0.085
-0.02
-0.02
-0.005
0.005
0.015
0.02
0.02
0.025
0.02
0.025
0.025
0.035
0.035
0.04
0.045
0.05
0.055
0.065
0.07
0.085
0.09
0.095
0.095
0.095
0.08
0.055
0.025
0.005
0.0
0.0
0.0
0.005
0.01
0.01
0.01
0.01
0.005
0.005
0.0
0.005
0.005
0.01
0.005
0.01
0.01
0.015
0.015
0.025
0.02
0.025
0.025
0.03
0.03
0.035
0.035
0.035
0.035
0.04
0.035
0.035
0.035
0.04
0.035
0.04
0.035
0.04
0.035
0.005
0.015
-0.02
-0.025
0.025
0.025
0.035
0.035
0.045
0.035
0.04
0.025
0.035
0.03
0.08
0.155
-0.19
-0.74
-0.87
-0.42
-0.09
-0.025
-0.02
-0.005
0.01
0.01
0.02
0.015
0.025
0.02
0.025
0.025
0.035
0.035
0.04
0.045
0.05
0.06
0.07
0.075
0.09
0.095
0.1
0.095
0.1
0.085
0.06
0.025
0.005
-0.005
-0.005
0.0
0.0
0.0
0.0
0.005
0.0
0.0
0.0
0.0
0.0
0.0
0.0
0.005
0.005
0.01
0.005
0.015
0.015
0.02
0.02
0.02
0.025
0.025
0.025
0.03
0.025
0.03
0.03
0.03
0.03
0.03
0.03
0.035
0.03
0.035
0.03
0.0
0.015
-0.035
-0.035
0.015
0.02
0.025
0.03
0.035
0.03
0.03
0.02
0.03
0.03
0.08
0.175
-0.205
-0.78
-0.845
-0.41
-0.085
-0.025
-0.02
-0.005
0.005
0.01
0.015
0.02
0.02
0.02
0.02
0.025
0.03
0.035
0.04
0.04
0.05
0.06
0.065
0.075
0.085
0.09
0.095
0.095
0.095
0.08
0.05
0.02
0.0
-0.005
-0.01
-0.005
-0.005
0.0
0.0
0.0
0.0
0.0
-0.005
0.0
0.0
0.0
0.0
0.0
0.0
0.0
0.005
0.005
0.005
0.01
0.01
0.01
0.01
0.015
0.015
0.02
0.015
0.02
0.015
0.02
0.015
0.02
0.015
0.02
0.015
0.02
0.015
-0.005
0.0
-0.04
-0.045
0.0
0.0
0.015
0.02
0.02
0.015
0.02
0.01
0.015
0.02
0.075
0.165
-0.2
-0.79
-0.88
-0.43
-0.095
-0.03
-0.03
-0.01
0.005
0.005
0.015
0.01
0.02
0.02
0.025
0.025
0.03
0.03
0.04
0.04
0.05
0.055
0.06
0.065
0.075
0.085
0.08
0.08
0.08
0.06
0.025
0.005
-0.01
-0.015
-0.01
-0.01
0.0
-0.005
0.0
0.0
-0.005
0.0
0.005
0.0
0.0
0.0
0.005
0.01
0.02
0.015
0.02
0.01
0.015
0.015
0.02
0.025
0.025
0.03
0.03
0.03
0.025
0.03
0.035
0.03
0.035
0.035
0.035
0.04
0.035
0.025
0.0
0.005
-0.035
-0.01
0.02
0.025
0.035
0.04
0.03
0.04
0.03
0.03
0.02
0.09
0.145
0.08
-0.5
-1.075
-0.67
-0.2
0.005
-0.03
-0.01
0.01
0.015
0.02
0.02
0.025
0.03
0.045
0.035
0.035
0.04
0.045
0.05
0.06
0.06
0.07
0.075
0.08
0.085
0.085
0.085
0.07
0.07
0.05
0.02
0.015
0.0
0.0
0.0
0.015
0.005
0.005
0.015
0.01
0.015
0.01
0.02
0.015
0.015
0.03
0.025
0.03
0.03
0.035
0.035
0.035
0.04
0.045
0.045
0.045
0.045
0.04
0.045
0.05
0.05
0.05
0.055
0.05
0.055
0.06
0.055
0.055
0.055
0.01
0.03
-0.02
-0.01
0.045
0.06
0.05
0.065
0.06
0.06
0.055
0.055
0.05
0.095
0.125
0.16
-0.395
-1.035
-0.675
-0.235
0.0
-0.01
0.0
0.025
0.025
0.035
0.035
0.035
0.035
0.04
0.035
0.045
0.04
0.05
0.05
0.06
0.06
0.065
0.07
0.08
0.085
0.09
0.085
0.085
0.07
0.05
0.02
0.0
-0.005
0.0
0.0
0.005
0.01
0.01
0.01
0.01
0.01
0.01
0.005
0.01
0.01
0.015
0.02
0.02
0.02
0.025
0.025
0.035
0.035
0.03
0.035
0.035
0.04
0.04
0.045
0.045
0.045
0.045
0.045
0.045
0.045
0.05
0.045
0.05
0.045
0.03
0.0
0.005
-0.03
0.005
0.03
0.045
0.045
0.05
0.04
0.045
0.035
0.04
0.03
0.085
0.13
-0.04
-0.6
-0.975
-0.505
-0.125
-0.005
-0.02
0.0
0.01
0.015
0.02
0.025
0.025
0.025
0.03
0.03
0.035
0.03
0.04
0.045
0.055
0.055
0.07
0.075
0.085
0.09
0.095
0.095
0.1
0.085
0.06
0.03
0.01
0.0
0.0
0.0
0.005
0.005
0.01
0.01
0.01
0.005
0.005
0.005
0.005
0.005
0.01
0.015
0.015
0.015
0.015
0.015
0.025
0.025
0.025
0.025
0.025
0.03
0.03
0.035
0.03
0.035
0.035
0.04
0.035
0.035
0.03
0.04
0.025
-0.015
0.01
-0.04
-0.02
0.015
0.04
0.035
0.035
0.04
0.035
0.03
0.025
0.03
0.055
0.085
0.195
-0.355
-0.965
-0.725
-0.3
-0.04
-0.03
-0.015
0.0
0.01
0.015
0.025
0.03
0.03
0.035
0.035
0.04
0.04
0.045
0.05
0.055
0.06
0.065
0.075
0.09
0.09
0.1
0.105
0.105
0.1
0.08
0.05
0.025
0.005
0.0
0.0
0.005
0.005
0.01
0.01
0.01
0.01
0.01
0.005
0.01
0.01
0.01
0.015
0.02
0.02
0.02
0.02
0.025
0.025
0.025
0.03
0.03
0.035
0.03
0.035
0.035
0.035
0.035
0.035
0.035
0.04
0.035
0.045
0.03
-0.005
0.015
-0.04
-0.025
0.02
0.03
0.03
0.035
0.04
0.035
0.035
0.03
0.035
0.03
0.085
0.165
-0.12
-0.705
-0.885
-0.445
-0.105
-0.015
-0.02
0.0
0.01
0.015
0.02
0.02
0.025
0.025
0.03
0.03
0.035
0.04
0.045
0.045
0.055
0.06
0.07
0.075
0.085
0.09
0.095
0.1
0.09
0.08
0.055
0.02
0.0
-0.005
-0.005
0.0
0.0
0.0
0.0
0.005
0.005
0.005
0.0
0.0
0.0
0.005
0.01
0.01
0.01
0.015
0.01
0.015
0.015
0.02
0.02
0.025
0.02
0.03
0.025
0.03
0.03
0.035
0.03
0.035
0.03
0.03
0.03
0.035
0.02
-0.015
0.005
-0.04
-0.02
0.02
0.035
0.035
0.035
0.035
0.03
0.03
0.025
0.025
0.05
0.085
0.2
-0.315
-0.925
-0.745
-0.32
-0.05
-0.035
-0.015
-0.005
0.005
0.01
0.015
0.015
0.02
0.02
0.025
0.03
0.03
0.04
0.045
0.05
0.055
0.06
0.075
0.08
0.09
0.095
0.1
0.1
0.09
0.075
0.045
0.015
0.0
0.0
0.0
0.0
0.0
0.0
0.0
0.0
0.0
0.0
0.0
0.0
0.0
0.0
0.0
0.01
0.01
0.015
0.015
0.015
0.015
0.02
0.02
0.02
0.02
0.025
0.025
0.025
0.03
0.03
0.025
0.03
0.03
0.035
0.02
-0.005
0.0
-0.035
-0.04
0.005
0.015
0.025
0.025
0.035
0.025
0.03
0.025
0.025
0.01
0.065
0.12
0.04
-0.535
-0.995
-0.56
-0.175
-0.025
-0.04
-0.02
0.0
0.0
0.01
0.005
0.01
0.01
0.015
0.01
0.02
0.02
0.03
0.025
0.035
0.04
0.05
0.055
0.065
0.075
0.08
0.075
0.075
0.065
0.045
0.015
-0.005
-0.015
-0.02
-0.015
-0.01
-0.01
-0.01
-0.005
-0.015
-0.01
-0.01
-0.005
-0.01
-0.005
-0.005
0.0
0.0
0.0
0.005
0.005
0.01
0.01
0.015
0.015
0.02
0.025
0.02
0.025
0.02
0.025
0.02
0.025
0.025
0.035
0.015
-0.005
0.01
-0.045
-0.04
0.01
0.015
0.025
0.025
0.04
0.025
0.035
0.02
0.025
0.02
0.07
0.13
0.06
-0.53
-1.04
-0.615
-0.175
-0.01
-0.04
-0.015
0.0
0.005
0.02
0.01
0.025
0.02
0.025
0.025
0.035
0.035
0.045
0.04
0.05
0.055
0.065
0.065
0.075
0.085
0.08
0.08
0.085
0.06
0.04
0.015
-0.005
-0.01
-0.005
-0.005
0.0
0.0
0.0
0.005
0.0
0.0
0.0
0.0
0.005
0.005
0.015
0.01
0.015
0.01
0.01
0.01
0.025
0.02
0.02
0.02
0.03
0.02
0.03
0.015
0.03
0.03
0.025
0.03
0.04
0.02
-0.015
0.0
-0.045
-0.04
0.01
0.03
0.04
0.035
0.045
0.035
0.04
0.035
0.035
0.035
0.09
0.18
-0.085
-0.685
-0.945
-0.525
-0.11
0.0
-0.015
0.005
0.02
0.025
0.035
0.035
0.045
0.04
0.045
0.045
0.055
0.05
0.06
0.055
0.07
0.065
0.08
0.08
0.095
0.095
0.1
0.095
0.09
0.08
0.055
0.03
0.015
0.01
0.01
0.005
0.015
0.015
0.015
0.015
0.015
0.01
0.015
0.015
0.02
0.02
0.03
0.03
0.03
0.03
0.035
0.035
0.04
0.04
0.045
0.04
0.045
0.04
0.045
0.04
0.045
0.045
0.05
0.045
0.055
0.025
-0.01
0.01
-0.03
-0.02
0.03
0.04
0.045
0.05
0.055
0.04
0.05
0.04
0.045
0.04
0.085
0.16
-0.24
-0.765
-0.815
-0.38
-0.055
-0.015
-0.01
0.005
0.02
0.015
0.025
0.025
0.035
0.03
0.035
0.035
0.045
0.045
0.05
0.05
0.06
0.065
0.075
0.08
0.09
0.095
0.105
0.095
0.095
0.075
0.05
0.02
0.005
0.0
0.0
0.005
0.01
0.01
0.01
0.01
0.01
0.005
0.005
0.005
0.005
0.005
0.01
0.005
0.015
0.01
0.015
0.015
0.025
0.02
0.025
0.025
0.03
0.025
0.03
0.025
0.035
0.025
0.035
0.03
0.03
0.01
0.0
0.005
-0.025
-0.01
0.015
0.035
0.035
0.035
0.035
0.03
0.035
0.025
0.03
0.04
0.07
0.18
-0.3
-0.855
-0.765
-0.34
-0.06
-0.04
-0.02
-0.005
0.005
0.01
0.015
0.015
0.02
0.025
0.025
0.025
0.03
0.035
0.04
0.045
0.05
0.055
0.07
0.075
0.09
0.095
0.1
0.1
0.095
0.075
0.05
0.02
0.0
0.0
0.0
0.0
0.005
0.005
0.01
0.005
0.005
0.005
0.005
0.0
0.005
0.01
0.01
0.01
0.01
0.015
0.015
0.015
0.015
0.02
0.02
0.025
0.025
0.03
0.03
0.035
0.03
0.035
0.03
0.035
0.025
0.035
0.01
0.0
0.01
-0.025
-0.01
0.015
0.035
0.035
0.035
0.035
0.025
0.025
0.025
0.025
0.025
0.07
0.175
-0.21
-0.78
-0.83
-0.4
-0.09
-0.035
-0.03
-0.015
0.0
0.005
0.01
0.015
0.015
0.02
0.025
0.025
0.035
0.035
0.04
0.045
0.05
0.055
0.065
0.075
0.08
0.085
0.095
0.095
0.09
0.075
0.045
0.02
0.0
0.0
0.0
0.0
0.0
0.005
0.005
0.005
0.0
0.0
0.0
0.005
0.005
0.01
0.01
0.01
0.01
0.01
0.015
0.02
0.02
0.015
0.02
0.02
0.025
0.025
0.025
0.03
0.025
0.025
0.025
0.03
0.03
0.025
0.02
0.01
0.0
-0.01
-0.03
0.0
0.01
0.025
0.03
0.03
0.03
0.02
0.02
0.015
0.01
0.04
0.075
0.19
-0.345
-0.955
-0.73
-0.31
-0.055
-0.045
-0.03
-0.01
0.0
0.005
0.005
0.015
0.01
0.01
0.02
0.02
0.02
0.025
0.03
0.04
0.04
0.05
0.06
0.065
0.07
0.08
0.08
0.085
0.075
0.055
0.02
0.0
-0.015
-0.02
-0.02
-0.015
-0.01
-0.01
-0.01
-0.01
-0.01
-0.015
-0.01
-0.01
-0.01
-0.005
0.0
0.0
0.0
0.0
0.005
0.005
0.015
0.015
0.02
0.02
0.025
0.025
0.03
0.02
0.03
0.025
0.03
0.025
0.03
0.015
-0.005
0.015
-0.04
-0.025
0.015
0.03
0.03
0.03
0.035
0.025
0.03
0.02
0.025
0.02
0.075
0.135
0.005
-0.585
-1.01
-0.575
-0.15
-0.015
-0.035
-0.01
0.005
0.01
0.015
0.02
0.02
0.02
0.03
0.03
0.03
0.03
0.04
0.045
0.05
0.05
0.065
0.07
0.075
0.08
0.08
0.08
0.065
0.055
0.04
0.005
0.0
-0.005
-0.005
0.0
0.0
0.0
0.005
0.005
0.0
0.01
0.0
0.0
0.01
0.01
0.015
0.005
0.01
0.015
0.02
0.01
0.015
0.025
0.02
0.025
0.025
0.03
0.03
0.025
0.03
0.03
0.035
0.025
0.04
0.02
-0.01
0.015
-0.025
-0.015
0.015
0.035
0.045
0.035
0.04
0.035
0.045
0.03
0.04
0.035
0.095
0.18
-0.09
-0.69
-0.945
-0.52
-0.115
0.0
-0.02
0.005
0.02
0.025
0.03
0.04
0.045
0.04
0.05
0.045
0.055
0.06
0.065
0.065
0.07
0.07
0.085
0.085
0.095
0.095
0.095
0.095
0.09
0.07
0.045
0.03
0.015
0.01
0.015
0.02
0.02
0.02
0.02
0.02
0.02
0.025
0.025
0.025
0.03
0.03
0.035
0.035
0.04
0.04
0.04
0.05
0.045
0.05
0.05
0.05
0.05
0.05
0.05
0.05
0.045
0.045
0.045
0.05
0.04
0.035
0.0
0.0
-0.02
-0.03
0.005
0.02
0.035
0.04
0.045
0.04
0.04
0.035
0.035
0.03
0.065
0.08
0.125
-0.45
-1.005
-0.64
-0.225
-0.015
-0.035
-0.015
0.005
0.01
0.015
0.02
0.025
0.02
0.025
0.02
0.025
0.03
0.035
0.04
0.045
0.05
0.055
0.06
0.07
0.075
0.08
0.08
0.075
0.07
0.045
0.015
-0.005
-0.015
-0.015
-0.01
0.0
0.0
0.005
0.005
0.0
0.0
0.0
0.0
0.0
0.0
0.0
0.005
0.005
0.01
0.01
0.015
0.015
0.02
0.02
0.025
0.025
0.03
0.03
0.035
0.03
0.04
0.035
0.035
0.035
0.04
0.035
0.03
0.01
-0.005
-0.01
-0.03
-0.025
0.01
0.035
0.04
0.035
0.045
0.03
0.04
0.03
0.035
0.035
0.075
0.165
-0.2
-0.765
-0.855
-0.41
-0.085
-0.03
-0.02
-0.005
0.005
0.01
0.02
0.02
0.025
0.025
0.03
0.03
0.035
0.035
0.045
0.04
0.055
0.06
0.065
0.07
0.085
0.09
0.095
0.095
0.095
0.075
0.05
0.015
0.0
-0.005
0.0
0.0
0.0
0.005
0.005
0.0
0.0
0.0
0.0
0.0
0.0
0.005
0.005
0.01
0.015
0.02
0.02
0.02
0.02
0.025
0.03
0.03
0.035
0.03
0.035
0.035
0.035
0.04
0.035
0.04
0.04
0.04
0.01
-0.005
-0.01
-0.04
-0.025
0.005
0.04
0.035
0.035
0.04
0.035
0.04
0.035
0.035
0.025
0.08
0.13
0.02
-0.55
-0.97
-0.53
-0.155
-0.01
-0.025
-0.005
0.01
0.015
0.025
0.025
0.025
0.025
0.035
0.03
0.035
0.04
0.045
0.05
0.055
0.06
0.07
0.075
0.085
0.09
0.095
0.095
0.095
0.08
0.055
0.025
0.005
0.0
0.0
0.0
0.0
0.005
0.005
0.005
0.0
0.0
0.005
0.005
0.0
0.005
0.01
0.01
0.015
0.015
0.02
0.02
0.025
0.025
0.025
0.025
0.025
0.025
0.03
0.03
0.03
0.03
0.03
0.03
0.03
0.0
-0.01
-0.02
-0.05
-0.04
-0.01
0.025
0.025
0.02
0.025
0.02
0.025
0.02
0.02
0.01
0.055
0.095
0.105
-0.48
-1.03
-0.61
-0.21
-0.03
-0.05
-0.025
-0.005
0.0
0.0
0.0
0.01
0.005
0.015
0.015
0.02
0.02
0.025
0.03
0.045
0.045
0.055
0.065
0.075
0.08
0.085
0.09
0.085
0.075
0.05
0.025
0.005
-0.005
-0.005
-0.005
0.0
0.0
0.0
0.0
0.0
-0.005
0.0
-0.005
0.0
0.0
0.0
0.005
0.01
0.01
0.01
0.015
0.015
0.02
0.02
0.02
0.025
0.025
0.025
0.025
0.03
0.03
0.03
0.025
0.015
0.005
-0.025
-0.035
-0.025
-0.025
0.01
0.025
0.03
0.035
0.03
0.03
0.035
0.03
0.03
0.04
0.09
0.195
-0.165
-0.795
-0.88
-0.435
-0.09
-0.01
-0.015
0.0
0.01
0.015
0.025
0.035
0.025
0.03
0.04
0.035
0.035
0.05
0.045
0.05
0.06
0.065
0.07
0.075
0.08
0.08
0.085
0.075
0.07
0.055
0.03
0.01
-0.01
-0.005
-0.005
0.0
0.02
0.015
0.005
-0.015
-0.035
-0.05
-0.05
-0.045
-0.03
-0.025
-0.015
-0.015
-0.01
-0.015
-0.01
-0.015
-0.005
-0.01
-0.005
-0.01
-0.005
-0.005
-0.005
-0.005
0.0
0.0
0.0
0.0
0.0
0.0
0.005
0.005
0.005
0.005
0.005
0.005
0.005
0.005
0.01
0.01
0.005
0.005
0.005
0.005
0.01
0.01
0.005
0.01
0.015
0.015
0.01
0.015
-0.01
-0.035
-0.02
-0.04
-0.025
0.0
0.025
0.01
0.02
0.02
0.015
0.01
0.02
0.01
0.01
0.005
0.045
0.12
0.035
-0.365
-0.565
-0.35
-0.12
-0.015
-0.035
-0.025
-0.01
-0.005
0.005
0.0
0.0
0.005
0.01
0.005
0.005
0.01
0.015
0.02
0.02
0.02
0.02
0.02
0.03
0.03
0.03
0.025
0.03
0.01
-0.005
-0.03
-0.05
-0.055
-0.045
-0.04
-0.03
-0.02
-0.01
-0.02
-0.015
-0.015
-0.01
-0.01
-0.01
-0.01
-0.01
-0.005
-0.005
-0.005
0.0
0.0
0.0
0.0
0.01
0.005
0.005
0.005
0.01
0.01
0.01
0.005
0.01
0.015
0.01
0.015
0.015
0.015
0.015
0.015
0.015
0.015
0.025
0.025
0.025
0.02
0.02
0.025
0.02
0.02
0.015
0.0
-0.01
-0.045
-0.045
-0.025
-0.02
0.015
0.01
0.02
0.02
0.02
0.015
0.015
0.02
0.01
0.015
0.04
0.065
0.195
-0.095
-0.645
-0.52
-0.305
-0.09
-0.03
-0.045
-0.03
-0.02
-0.015
-0.005
0.0
-0.005
0.0
0.0
0.0
0.0
0.005
0.0
0.005
0.01
0.01
0.01
0.015
0.01
0.02
0.015
0.015
0.01
0.0
-0.015
-0.035
-0.055
-0.065
-0.06
-0.055
-0.045
-0.045
-0.035
-0.04
-0.035
-0.035
-0.035
-0.035
-0.03
-0.03
-0.025
-0.025
-0.025
-0.02
-0.015
-0.015
-0.015
-0.015
-0.015
-0.015
-0.01
-0.01
-0.005
-0.005
-0.01
-0.005
-0.005
-0.005
-0.005
0.0
0.0
0.0
0.0
0.0
0.0
0.0
0.0
0.0
0.005
0.0
0.0
0.0
-0.02
-0.045
-0.035
-0.055
-0.04
-0.015
0.01
0.0
0.01
0.01
0.01
0.0
0.005
0.0
0.005
0.0
0.045
0.07
0.15
-0.27
-0.67
-0.4
-0.175
-0.02
-0.045
-0.03
-0.015
-0.015
0.0
0.0
0.0
0.0
0.0
0.0
0.005
0.0
0.01
0.0
0.01
0.01
0.02
0.02
0.025
0.02
0.03
0.03
0.03
0.015
0.005
-0.02
-0.035
-0.045
-0.04
-0.03
-0.02
-0.02
-0.01
-0.01
-0.01
-0.015
-0.01
-0.01
-0.005
-0.005
0.0
0.0
0.0
0.0
0.0
0.005
0.01
0.005
0.01
0.01
0.01
0.01
0.01
0.015
0.02
0.015
0.02
0.02
0.02
0.02
0.02
0.02
0.02
0.02
0.025
0.025
0.025
0.025
0.025
0.02
0.0
-0.005
-0.005
-0.015
0.0
0.0
0.045
0.025
0.035
0.035
0.035
0.025
0.025
0.02
0.02
0.015
0.055
0.085
0.21
-0.21
-0.665
-0.41
-0.18
-0.005
-0.035
-0.02
0.0
0.0
0.005
0.005
0.015
0.015
0.02
0.015
0.025
0.02
0.025
0.02
0.03
0.025
0.035
0.035
0.045
0.045
0.05
0.05
0.05
0.035
0.025
0.0
-0.015
-0.03
-0.03
-0.025
-0.015
-0.01
-0.005
-0.005
0.0
0.0
0.0
0.0
0.005
0.0
0.0
0.005
0.005
0.01
0.01
0.01
0.015
0.015
0.015
0.015
0.015
0.02
0.02
0.02
0.02
0.02
0.02
0.015
0.02
0.025
0.02
0.02
0.02
0.015
0.02
0.02
0.025
0.025
0.0
-0.025
-0.005
-0.02
-0.005
0.0
0.04
0.02
0.03
0.03
0.03
0.02
0.03
0.02
0.025
0.015
0.06
0.095
0.2
-0.215
-0.665
-0.415
-0.175
0.0
-0.03
-0.02
-0.005
0.0
0.0
0.0
0.01
0.01
0.02
0.01
0.02
0.015
0.025
0.02
0.03
0.025
0.03
0.035
0.04
0.045
0.045
0.045
0.05
0.04
0.025
0.0
-0.005
-0.02
-0.015
-0.015
0.0
0.0
0.005
0.0
0.005
0.005
0.005
0.005
0.01
0.01
0.015
0.01
0.02
0.02
0.015
0.015
0.015
0.015
0.02
0.02
0.02
0.02
0.025
0.02
0.025
0.03
0.025
0.025
0.03
0.035
0.035
0.03
0.035
0.035
0.03
0.03
0.02
0.01
0.0
0.01
0.015
0.0
0.05
0.035
0.04
0.045
0.04
0.035
0.035
0.035
0.035
0.025
0.05
0.07
0.225
-0.07
-0.55
-0.465
-0.26
-0.055
-0.015
-0.025
0.0
0.0
0.01
0.01
0.015
0.02
0.025
0.02
0.025
0.025
0.03
0.03
0.03
0.03
0.04
0.04
0.045
0.05
0.06
0.055
0.06
0.055
0.04
0.02
0.0
-0.015
-0.02
-0.015
-0.005
0.0
0.005
0.005
0.005
0.005
0.005
0.01
0.01
0.01
0.01
0.02
0.02
0.015
0.02
0.02
0.02
0.02
0.025
0.025
0.025
0.025
0.03
0.025
0.03
0.03
0.03
0.03
0.03
0.025
0.03
0.03
0.03
0.025
0.025
0.01
0.0
0.03
0.01
0.0
0.03
0.045
0.04
0.04
0.04
0.035
0.03
0.035
0.035
0.03
0.025
0.065
0.155
0.075
-0.33
-0.55
-0.345
-0.12
0.0
-0.015
-0.005
0.005
0.01
0.015
0.02
0.02
0.025
0.025
0.03
0.03
0.035
0.035
0.04
0.045
0.05
0.055
0.055
0.065
0.07
0.075
0.075
0.07
0.06
0.04
0.015
0.0
0.0
0.0
0.005
0.01
0.02
0.02
0.02
0.02
0.025
0.03
0.025
0.03
0.03
0.03
0.035
0.04
0.04
0.04
0.04
0.04
0.04
0.04
0.04
0.045
0.045
0.04
0.045
0.04
0.05
0.045
0.05
0.04
0.05
0.045
0.045
0.045
0.025
0.03
0.045
0.025
0.025
0.05
0.055
0.055
0.06
0.055
0.055
0.045
0.05
0.04
0.045
0.03
0.08
0.105
0.23
-0.16
-0.64
-0.42
-0.17
0.005
-0.015
0.0
0.01
0.02
0.03
0.025
0.035
0.035
0.04
0.035
0.04
0.04
0.045
0.045
0.05
0.055
0.055
0.065
0.07
0.07
0.085
0.08
0.08
0.07
0.06
0.035
0.02
0.005
0.005
0.015
0.02
0.02
0.025
0.03
0.025
0.03
0.03
0.03
0.035
0.035
0.04
0.035
0.045
0.04
0.045
0.05
0.05
0.045
0.055
0.05
0.055
0.05
0.05
0.05
0.055
0.05
0.055
0.05
0.06
0.055
0.06
0.06
0.06
0.06
0.06
0.055
0.065
0.06
0.035
0.075
0.045
0.03
0.055
0.085
0.065
0.06
0.065
0.055
0.055
0.045
0.045
0.04
0.045
0.03
0.075
0.085
0.25
-0.135
-0.635
-0.425
-0.195
-0.005
-0.01
-0.005
0.01
0.015
0.025
0.02
0.03
0.03
0.04
0.035
0.04
0.04
0.045
0.045
0.05
0.05
0.055
0.06
0.07
0.07
0.07
0.075
0.075
0.07
0.055
0.03
0.015
0.0
0.0
0.0
0.01
0.01
0.015
0.02
0.02
0.02
0.02
0.025
0.025
0.025
0.03
0.03
0.03
0.03
0.03
0.035
0.04
0.03
0.035
0.035
0.04
0.035
0.035
0.04
0.04
0.04
0.04
0.04
0.045
0.035
0.04
0.05
0.025
0.03
0.05
0.025
0.035
0.05
0.055
0.05
0.055
0.05
0.05
0.04
0.04
0.04
0.04
0.035
0.04
0.06
0.18
0.045
-0.39
-0.5
-0.315
-0.09
0.0
-0.015
-0.005
0.005
0.015
0.02
0.025
0.03
0.03
0.03
0.045
0.04
0.04
0.045
0.045
0.05
0.055
0.065
0.07
0.07
0.075
0.075
0.08
0.08
0.07
0.05
0.03
0.01
0.005
0.005
0.015
0.015
0.025
0.025
0.025
0.025
0.03
0.025
0.03
0.03
0.03
0.03
0.035
0.03
0.035
0.03
0.04
0.035
0.04
0.035
0.04
0.04
0.045
0.045
0.045
0.04
0.05
0.045
0.05
0.04
0.05
0.035
0.015
0.06
0.025
0.015
0.04
0.07
0.055
0.055
0.05
0.05
0.045
0.04
0.035
0.035
0.03
0.06
0.09
0.25
-0.125
-0.635
-0.42
-0.185
-0.005
-0.025
-0.01
0.0
0.01
0.015
0.02
0.02
0.025
0.03
0.025
0.035
0.03
0.035
0.035
0.04
0.045
0.05
0.05
0.06
0.065
0.07
0.07
0.07
0.065
0.05
0.03
0.015
0.0
0.0
0.0
0.005
0.01
0.015
0.02
0.015
0.02
0.015
0.02
0.02
0.02
0.015
0.02
0.02
0.025
0.025
0.025
0.03
0.025
0.025
0.03
0.035
0.04
0.035
0.04
0.04
0.04
0.035
0.04
0.04
0.04
0.04
0.04
0.045
0.04
0.04
0.02
0.0
0.03
0.01
0.0
0.025
0.055
0.045
0.045
0.045
0.045
0.035
0.04
0.035
0.035
0.03
0.065
0.17
0.08
-0.33
-0.515
-0.325
-0.1
0.0
-0.015
0.0
0.01
0.015
0.02
0.025
0.03
0.03
0.035
0.035
0.04
0.035
0.04
0.045
0.05
0.055
0.055
0.06
0.07
0.075
0.08
0.08
0.08
0.07
0.05
0.025
0.015
0.005
0.005
0.01
0.015
0.02
0.02
0.02
0.02
0.02
0.02
0.02
0.02
0.025
0.025
0.025
0.03
0.03
0.03
0.03
0.03
0.035
0.035
0.035
0.035
0.035
0.035
0.04
0.04
0.04
0.04
0.035
0.04
0.04
0.035
0.035
0.01
-0.015
0.01
-0.005
-0.005
0.02
0.05
0.04
0.045
0.045
0.04
0.035
0.04
0.035
0.035
0.025
0.06
0.14
0.15
-0.245
-0.555
-0.36
-0.13
0.0
-0.02
-0.005
0.0
0.01
0.02
0.015
0.025
0.025
0.03
0.03
0.035
0.04
0.045
0.045
0.05
0.05
0.06
0.065
0.07
0.075
0.08
0.08
0.075
0.07
0.05
0.03
0.015
0.0
0.005
0.01
0.015
0.02
0.02
0.02
0.025
0.025
0.025
0.02
0.025
0.02
0.02
0.025
0.025
0.025
0.025
0.025
0.025
0.03
0.03
0.03
0.035
0.03
0.035
0.03
0.03
0.03
0.035
0.03
0.035
0.03
0.03
0.005
-0.005
-0.01
-0.01
0.005
-0.005
0.04
0.03
0.03
0.035
0.03
0.025
0.025
0.025
0.02
0.015
0.05
0.09
0.225
-0.15
-0.625
-0.41
-0.18
0.0
-0.03
-0.015
0.0
0.0
0.005
0.005
0.01
0.015
0.02
0.015
0.015
0.02
0.025
0.025
0.03
0.035
0.035
0.04
0.05
0.05
0.06
0.06
0.06
0.05
0.04
0.015
0.0
-0.005
-0.01
-0.005
0.0
0.0
0.0
0.005
0.0
0.005
0.0
0.005
0.0
0.005
0.0
0.005
0.005
0.01
0.005
0.01
0.005
0.005
0.01
0.01
0.01
0.015
0.01
0.015
0.015
0.02
0.015
0.015
0.015
0.02
0.01
-0.025
0.01
-0.015
-0.02
0.02
0.035
0.02
0.025
0.025
0.015
0.015
0.01
0.005
0.005
0.01
0.04
0.14
0.085
-0.345
-0.57
-0.385
-0.15
-0.025
-0.05
-0.03
-0.02
-0.01
-0.005
-0.01
0.0
0.0
0.0
0.0
0.0
0.0
0.005
0.01
0.01
0.02
0.02
0.04
0.03
0.03
0.035
0.035
0.03
0.025
0.005
-0.005
-0.025
-0.035
-0.03
-0.03
-0.015
-0.005
-0.005
0.0
0.0
-0.005
0.0
0.0
0.0
0.0
0.005
0.005
0.0
0.005
0.01
0.005
0.005
0.01
0.015
0.015
0.01
0.015
0.03
0.015
0.02
0.01
0.03
0.01
-0.01
0.01
-0.015
-0.02
0.025
0.04
0.04
0.03
0.04
0.035
0.03
0.03
0.03
0.025
0.055
0.075
0.23
-0.02
-0.64
-0.505
-0.305
-0.075
0.0
-0.02
0.0
0.005
0.01
0.01
0.02
0.01
0.025
0.025
0.035
0.025
0.035
0.035
0.045
0.04
0.055
0.055
0.065
0.07
0.075
0.085
0.075
0.07
0.055
0.04
0.02
-0.005
-0.005
-0.01
0.0
0.005
0.005
0.015
0.005
0.015
0.015
0.01
0.015
0.02
0.025
0.03
0.03
0.035
0.03
0.035
0.035
0.035
0.04
0.04
0.04
0.045
0.045
0.045
0.05
0.045
0.05
0.03
-0.01
0.025
-0.01
-0.015
0.04
0.04
0.035
0.045
0.05
0.04
0.04
0.035
0.035
0.03
0.035
0.065
0.165
0.0
-0.485
-0.51
-0.345
-0.12
0.0
-0.035
-0.015
-0.005
0.0
0.0
0.0
0.0
0.005
0.005
0.005
0.005
0.01
0.01
0.015
0.02
0.025
0.035
0.04
0.045
0.05
0.05
0.05
0.045
0.035
0.005
-0.01
-0.025
-0.035
-0.025
-0.02
-0.01
0.0
0.0
0.0
0.0
0.005
0.0
0.0
0.0
0.0
0.0
0.005
0.005
0.005
0.01
0.015
0.01
0.01
0.015
0.015
0.01
0.01
0.015
0.015
0.015
0.015
0.02
0.02
0.02
0.02
-0.01
-0.025
0.0
-0.015
0.005
0.02
0.03
0.03
0.03
0.035
0.02
0.02
0.015
0.015
0.005
0.04
0.065
0.115
-0.27
-0.61
-0.365
-0.155
-0.01
-0.045
-0.03
-0.015
-0.01
-0.005
0.0
0.0
0.0
0.0
0.005
0.005
0.005
0.01
0.01
0.02
0.025
0.03
0.04
0.045
0.05
0.05
0.05
0.05
0.04
0.02
0.0
-0.015
-0.025
-0.02
-0.015
-0.005
0.0
0.0
0.005
0.0
0.005
0.0
0.0
0.0
0.005
0.005
0.005
0.0
0.005
0.005
0.01
0.01
0.015
0.01
0.015
0.015
0.02
0.015
0.015
0.02
0.02
0.015
0.03
0.005
-0.035
0.01
-0.015
-0.005
0.03
0.05
0.03
0.035
0.035
0.03
0.025
0.025
0.025
0.02
0.025
0.045
0.175
0.01
-0.415
-0.5
-0.315
-0.1
-0.02
-0.04
-0.025
-0.02
-0.005
-0.005
0.0
0.0
0.0
0.0
0.005
0.005
0.01
0.01
0.015
0.02
0.03
0.035
0.04
0.045
0.055
0.055
0.06
0.05
0.04
0.02
0.0
-0.01
-0.015
-0.015
-0.005
0.0
0.0
0.005
0.005
0.0
0.005
0.0
0.005
0.005
0.005
0.005
0.01
0.01
0.01
0.01
0.015
0.01
0.015
0.015
0.02
0.02
0.02
0.02
0.025
0.025
0.025
0.02
0.02
-0.02
-0.015
-0.005
-0.015
0.01
0.03
0.02
0.03
0.025
0.025
0.015
0.015
0.005
0.0
-0.015
0.045
0.075
0.235
-0.16
-0.665
-0.435
-0.21
-0.025
-0.05
-0.035
-0.02
-0.02
-0.005
-0.01
0.0
0.0
0.0
0.0
0.005
0.0
0.005
0.005
0.01
0.015
0.02
0.025
0.03
0.035
0.05
0.045
0.045
0.04
0.02
-0.005
-0.015
-0.03
-0.03
-0.02
-0.01
-0.01
0.0
-0.005
0.0
0.0
0.0
-0.005
0.0
0.0
0.0
0.005
0.0
0.005
0.005
0.005
0.01
0.005
0.01
0.015
0.015
0.015
0.025
0.01
0.025
0.015
0.015
-0.005
-0.015
-0.015
-0.025
0.005
0.025
0.02
0.03
0.03
0.035
0.015
0.025
0.015
0.015
0.005
0.08
0.09
0.24
-0.135
-0.76
-0.52
-0.235
-0.035
-0.025
-0.035
-0.005
-0.015
0.0
0.0
0.01
0.0
0.015
0.01
0.015
0.015
0.02
0.02
0.03
0.02
0.035
0.04
0.035
0.04
0.06
0.06
0.05
0.05
0.035
0.0
-0.005
-0.015
-0.02
-0.025
-0.015
-0.015
-0.005
-0.01
0.0
-0.01
0.0
0.0
0.0
0.0
0.01
0.015
0.015
0.01
0.015
0.01
0.015
0.02
0.025
0.02
0.025
0.02
0.025
0.02
0.035
0.01
-0.015
0.005
-0.035
-0.035
0.02
0.035
0.02
0.025
0.04
0.025
0.03
0.02
0.03
0.02
0.04
0.075
0.175
0.005
-0.54
-0.565
-0.385
-0.115
0.015
-0.02
-0.005
0.005
0.015
0.015
0.02
0.035
0.035
0.025
0.04
0.04
0.05
0.045
0.05
0.055
0.065
0.06
0.075
0.075
0.08
0.08
0.08
0.07
0.05
0.035
0.015
-0.005
-0.01
-0.015
-0.005
0.005
0.0
0.0
0.005
0.005
0.005
0.01
0.01
0.015
0.02
0.015
0.02
0.02
0.02
0.03
0.03
0.03
0.03
0.035
0.035
0.04
0.035
0.04
0.035
0.04
0.01
-0.015
0.01
-0.02
-0.005
0.02
0.035
0.035
0.035
0.035
0.03
0.035
0.025
0.025
0.02
0.055
0.05
0.185
-0.23
-0.705
-0.41
-0.215
-0.01
-0.03
-0.03
-0.015
-0.005
-0.005
0.0
0.005
0.0
0.005
0.005
0.005
0.01
0.01
0.01
0.01
-0.005
0.03
0.035
0.035
0.045
0.045
0.045
0.04
0.035
0.015
0.0
-0.035
-0.035
-0.04
-0.025
-0.02
0.0
-0.005
0.085
0.135
0.225
0.385
0.005
-0.1
0.16
-0.085
-0.045
0.105
-0.05
0.125
-0.045
-0.01
0.03
-0.04
-0.02
-0.02
-0.02
-0.035
-0.025
-0.03
-0.065
-0.08
-0.025
-0.06
-0.045
-0.02
0.01
-0.01
-0.005
0.0
0.0
-0.005
0.0
0.0
0.0
0.015
0.025
0.195
-0.08
-0.58
-0.49
-0.3
-0.07
-0.045
-0.05
-0.03
-0.02
-0.005
0.0
0.01
0.01
0.02
0.025
0.03
0.025
0.03
0.03
0.04
0.04
0.05
0.055
0.06
0.065
0.075
0.07
0.075
0.065
0.05
0.025
0.01
-0.005
-0.01
-0.005
0.0
0.005
0.005
0.005
0.005
0.01
0.005
0.01
0.01
0.01
0.01
0.01
0.015
0.015
0.01
0.015
0.015
0.015
0.015
0.015
0.015
0.02
0.01
-0.015
-0.025
-0.03
-0.025
-0.005
0.0
0.03
0.03
0.03
0.03
0.03
0.02
0.02
0.015
0.015
0.01
0.045
0.065
0.215
-0.17
-0.64
-0.415
-0.185
-0.01
-0.035
-0.025
-0.01
-0.005
0.0
0.0
0.005
0.005
0.01
0.01
0.015
0.015
0.02
0.02
0.025
0.03
0.035
0.04
0.05
0.05
0.065
0.065
0.06
0.05
0.04
0.015
0.0
-0.01
-0.005
0.0
0.0
0.0
0.0
0.005
0.005
0.005
0.005
0.005
0.005
0.005
0.01
0.01
0.015
0.01
0.01
0.015
0.015
0.015
0.015
0.02
-0.02
-0.04
-0.07
-0.07
-0.07
-0.07
-0.02
0.01
0.01
0.025
0.02
0.02
0.02
0.025
0.015
0.015
0.015
0.055
0.095
0.185
-0.205
-0.61
-0.4
-0.155
0.0
-0.03
-0.01
0.0
0.0
0.01
0.01
0.015
0.01
0.015
0.015
0.02
0.02
0.02
0.025
0.03
0.03
0.04
0.045
0.055
0.055
0.05
0.055
0.05
0.045
0.02
0.0
-0.01
-0.01
-0.015
-0.01
-0.01
0.0
0.005
0.0
0.0
0.01
0.0
0.005
0.005
0.01
0.0
0.01
0.005
0.005
0.01
0.01
0.01
0.015
0.005
-0.03
-0.025
-0.09
-0.08
-0.08
-0.085
-0.01
0.005
0.03
0.025
0.03
0.02
0.025
0.025
0.04
0.025
0.025
0.085
0.15
0.12
-0.355
-0.625
-0.43
-0.14
0.015
-0.025
-0.005
0.005
0.015
0.015
0.02
0.025
0.03
0.025
0.03
0.035
0.035
0.03
0.045
0.05
0.045
0.055
0.065
0.07
0.075
0.075
0.075
0.07
0.055
0.04
0.02
0.005
0.0
-0.005
0.0
0.0
0.005
0.0
0.01
0.0
0.01
0.01
0.01
0.01
0.015
0.015
0.02
0.02
0.03
0.025
0.025
0.02
0.035
0.015
-0.025
-0.025
-0.075
-0.08
-0.08
-0.075
0.0
0.015
0.045
0.035
0.04
0.04
0.045
0.04
0.05
0.04
0.05
0.08
0.185
0.0
-0.54
-0.53
-0.34
-0.095
0.02
-0.005
0.01
0.01
0.025
0.02
0.03
0.025
0.035
0.03
0.03
0.03
0.03
0.03
0.035
0.04
0.04
0.04
0.05
0.055
0.055
0.065
0.065
0.055
0.045
0.02
0.0
-0.02
-0.02
-0.02
-0.015
-0.01
-0.005
-0.005
-0.005
-0.005
-0.005
0.0
0.0
0.0
0.0
0.0
0.005
0.01
0.005
0.01
0.01
0.015
0.01
0.015
0.01
0.015
0.01
0.015
0.0
-0.045
-0.045
-0.09
-0.085
-0.075
-0.065
-0.02
0.005
0.02
0.025
0.025
0.02
0.025
0.02
0.025
0.015
0.035
0.025
0.165
-0.19
-0.57
-0.38
-0.225
-0.015
-0.025
-0.02
-0.005
0.0
0.005
0.005
0.005
0.005
0.01
0.005
0.005
0.005
0.01
0.01
0.015
0.02
0.025
0.03
0.04
0.04
0.05
0.05
0.05
0.04
0.03
0.005
-0.015
-0.02
-0.02
-0.015
-0.01
-0.005
0.0
0.0
0.0
0.0
0.0
0.0
0.0
0.0
0.0
0.0
0.0
0.0
0.005
0.005
0.01
0.01
0.01
0.01
0.015
0.015
0.02
0.015
0.02
0.02
0.02
0.02
0.02
0.02
0.025
0.0
-0.04
0.0
-0.025
-0.015
0.015
0.035
0.015
0.025
0.03
0.02
0.02
0.02
0.015
0.01
0.015
0.03
0.11
0.03
-0.32
-0.5
-0.315
-0.1
-0.02
-0.035
-0.025
-0.01
0.0
0.0
0.0
0.0
0.005
0.01
0.01
0.01
0.015
0.02
0.025
0.03
0.035
0.045
0.055
0.055
0.065
0.07
0.07
0.07
0.06
0.04
0.02
0.0
-0.005
0.0
0.0
0.0
0.005
0.0
0.005
0.005
0.0
0.005
0.0
0.005
0.005
0.01
0.01
0.015
0.01
0.015
0.015
0.02
0.02
0.02
0.025
0.025
0.03
0.03
0.025
0.03
0.035
0.035
0.03
0.03
0.035
0.03
0.025
-0.01
0.0
0.005
-0.01
0.025
0.04
0.035
0.035
0.04
0.035
0.03
0.025
0.025
0.025
0.02
0.025
0.04
0.165
0.0
-0.4
-0.465
-0.285
-0.07
-0.015
-0.025
-0.01
-0.005
0.0
0.0
0.005
0.01
0.01
0.01
0.015
0.015
0.02
0.02
0.025
0.025
0.035
0.04
0.05
0.055
0.06
0.06
0.065
0.065
0.05
0.03
0.01
0.0
-0.005
-0.01
-0.005
0.0
0.0
0.0
0.0
0.0
0.0
0.0
0.0
0.0
0.0
0.0
0.0
0.0
0.0
0.0
0.005
0.005
0.005
0.005
0.005
0.015
0.01
0.01
0.01
0.015
0.015
0.015
0.015
0.02
0.015
0.015
0.015
0.015
0.015
0.015
-0.015
0.0
0.0
-0.02
0.015
0.03
0.01
0.015
0.02
0.015
0.01
0.01
0.005
0.005
0.0
0.015
0.03
0.185
-0.095
-0.535
-0.465
-0.275
-0.065
-0.045
-0.045
-0.03
-0.025
-0.015
-0.01
-0.005
0.0
-0.005
0.0
0.0
0.0
0.01
0.01
0.015
0.02
0.02
0.03
0.035
0.035
0.04
0.045
0.045
0.035
0.03
0.005
0.0
-0.02
-0.02
-0.015
-0.01
0.0
-0.005
0.0
0.0
0.0
0.0
0.0
0.0
0.0
0.0
0.005
0.0
0.0
0.01
0.005
0.01
0.0
0.01
0.01
0.02
0.01
0.015
0.015
0.03
0.02
0.025
0.02
0.025
0.02
0.02
0.02
0.03
0.03
-0.005
0.01
-0.005
-0.015
0.025
0.035
0.03
0.03
0.03
0.03
0.02
0.025
0.02
0.02
0.015
0.07
0.13
0.155
-0.3
-0.67
-0.465
-0.165
0.01
-0.045
-0.02
0.0
0.0
0.01
0.01
0.01
0.015
0.01
0.025
0.02
0.02
0.03
0.03
0.04
0.04
0.045
0.04
0.05
0.06
0.06
0.065
0.05
0.045
0.03
0.005
-0.01
-0.015
-0.015
-0.015
-0.005
-0.005
-0.005
0.0
0.0
0.0
0.005
0.005
0.005
0.01
0.01
0.01
0.02
0.015
0.015
0.02
0.01
0.02
0.015
0.015
0.02
0.03
0.025
0.025
0.035
0.03
0.04
0.035
0.04
0.035
0.04
0.045
0.045
0.01
0.005
-0.005
-0.015
0.035
0.045
0.035
0.04
0.045
0.045
0.04
0.04
0.035
0.035
0.03
0.08
0.14
0.1
-0.38
-0.645
-0.425
-0.145
0.015
-0.025
-0.005
0.0
0.005
0.005
0.015
0.01
0.015
0.015
0.02
0.025
0.025
0.03
0.035
0.035
0.04
0.045
0.05
0.055
0.06
0.06
0.06
0.055
0.045
0.025
0.0
-0.015
-0.025
-0.025
-0.015
-0.01
0.0
-0.005
0.0
0.0
-0.005
0.0
0.0
0.0
0.005
0.0
0.005
0.015
0.015
0.015
0.02
0.015
0.02
0.02
0.025
0.02
0.025
0.025
0.03
0.025
0.03
0.03
0.03
0.03
0.03
0.03
0.035
0.03
0.04
0.03
0.04
0.04
-0.01
0.015
0.0
-0.01
0.04
0.045
0.03
0.04
0.04
0.03
0.035
0.02
0.025
0.015
0.05
0.05
0.145
-0.275
-0.655
-0.355
-0.17
0.005
-0.03
-0.02
-0.005
-0.005
0.0
0.0
0.0
0.0
0.005
0.005
0.005
0.005
0.01
0.015
0.015
0.015
0.025
0.03
0.035
0.035
0.04
0.035
0.03
0.02
0.005
-0.02
-0.035
-0.045
-0.04
-0.035
-0.02
-0.02
-0.01
-0.01
-0.005
-0.005
-0.01
-0.005
-0.01
-0.005
-0.005
0.0
0.0
0.0
0.0
0.0
0.0
0.005
0.01
0.005
0.01
0.01
0.01
0.015
0.01
0.015
0.015
0.02
0.015
0.015
0.015
0.02
0.015
0.02
0.015
0.02
0.01
-0.025
0.01
-0.01
-0.005
0.02
0.03
0.025
0.025
0.025
0.02
0.02
0.01
0.01
0.005
0.05
0.085
0.12
-0.295
-0.625
-0.385
-0.155
-0.01
-0.04
-0.025
-0.015
-0.01
-0.005
-0.005
0.0
0.0
0.0
0.0
0.005
0.005
0.005
0.01
0.02
0.02
0.03
0.035
0.04
0.045
0.05
0.045
0.04
0.035
0.02
0.0
-0.015
-0.025
-0.02
-0.02
-0.01
-0.005
-0.005
-0.005
-0.005
-0.005
-0.005
-0.005
0.0
0.0
0.0
0.0
0.0
0.005
0.005
0.005
0.005
0.01
0.01
0.01
0.01
0.01
0.01
0.015
0.015
0.01
0.015
0.01
0.015
0.015
0.02
0.015
0.02
0.015
0.025
0.02
-0.02
0.015
-0.005
0.0
0.02
0.035
0.03
0.025
0.03
0.015
0.015
0.01
0.015
0.005
0.05
0.085
0.16
-0.255
-0.65
-0.42
-0.175
-0.01
-0.045
-0.035
-0.02
-0.015
-0.005
-0.005
0.0
0.0
0.0
0.0
0.005
0.0
0.01
0.01
0.015
0.02
0.025
0.025
0.035
0.04
0.04
0.035
0.035
0.025
0.01
-0.01
-0.025
-0.035
-0.03
-0.025
-0.02
-0.015
-0.01
-0.01
-0.01
-0.01
-0.01
-0.01
-0.01
-0.005
-0.005
-0.005
0.0
0.0
0.0
0.005
0.0
0.005
0.0
0.01
0.01
0.01
0.01
0.015
0.01
0.01
0.01
0.015
0.015
0.015
0.01
0.015
0.01
0.015
0.015
-0.02
0.005
-0.01
-0.025
0.025
0.03
0.02
0.015
0.025
0.015
0.015
0.01
0.01
0.0
0.03
0.045
0.21
-0.1
-0.62
-0.475
-0.265
-0.065
-0.04
-0.04
-0.02
-0.015
-0.005
-0.005
0.0
0.0
0.0
0.0
0.005
0.005
0.01
0.015
0.015
0.02
0.025
0.025
0.035
0.035
0.04
0.04
0.045
0.03
0.02
0.0
-0.02
-0.035
-0.03
-0.03
-0.02
-0.015
-0.01
-0.01
-0.005
-0.005
0.0
0.0
0.0
0.0
0.0
0.0
0.0
0.0
0.0
0.01
0.005
0.01
0.01
0.01
0.01
0.015
0.015
0.01
0.015
0.015
0.015
0.015
0.015
0.01
0.015
0.015
0.02
0.005
-0.015
0.0
-0.02
0.0
0.02
0.035
0.03
0.03
0.025
0.025
0.03
0.015
0.01
0.01
0.065
0.12
0.175
-0.27
-0.68
-0.475
-0.175
-0.005
-0.035
-0.025
-0.01
-0.005
0.0
0.0
0.01
0.0
0.01
0.01
0.005
0.015
0.015
0.015
0.025
0.025
0.03
0.03
0.045
0.04
0.04
0.04
0.035
0.025
0.005
-0.015
-0.03
-0.03
-0.035
-0.03
-0.025
-0.005
-0.01
-0.01
-0.005
-0.005
0.0
0.0
0.0
0.0
0.005
0.01
0.01
0.01
0.015
0.015
0.01
0.015
0.01
0.015
0.015
0.025
0.015
0.025
0.02
0.025
0.015
0.025
0.025
0.03
0.01
-0.02
0.0
-0.025
-0.035
0.02
0.03
0.025
0.03
0.035
0.025
0.025
0.025
0.025
0.015
0.05
0.07
0.21
-0.075
-0.68
-0.51
-0.305
-0.075
0.0
-0.03
-0.005
0.0
0.005
0.005
0.01
0.015
0.02
0.02
0.035
0.02
0.03
0.035
0.035
0.04
0.05
0.035
0.05
0.05
0.055
0.06
0.055
0.04
0.035
0.005
-0.01
-0.025
-0.03
-0.025
-0.02
-0.005
-0.005
0.0
-0.005
-0.005
0.0
-0.005
0.0
0.0
0.0
0.015
0.01
0.015
0.015
0.025
0.02
0.025
0.03
0.03
0.03
0.03
0.03
0.035
0.03
0.03
0.03
0.035
0.03
0.035
0.03
0.0
0.0
-0.02
-0.025
0.02
0.03
0.03
0.035
0.04
0.03
0.035
0.03
0.025
0.025
0.025
0.065
0.14
0.025
-0.455
-0.575
-0.385
-0.135
0.005
-0.03
-0.01
-0.005
0.0
0.005
0.01
0.005
0.015
0.015
0.02
0.015
0.02
0.02
0.025
0.025
0.03
0.035
0.035
0.045
0.045
0.045
0.04
0.035
0.02
0.0
-0.025
-0.035
-0.04
-0.035
-0.03
-0.025
-0.015
-0.01
-0.01
-0.015
-0.01
-0.005
-0.005
-0.005
-0.005
0.0
0.0
0.0
0.0
0.005
0.005
0.005
0.005
0.01
0.015
0.01
0.01
0.015
0.015
0.02
0.02
0.02
0.02
0.02
0.02
0.025
0.02
0.025
0.015
-0.025
-0.02
-0.02
-0.025
0.005
0.02
0.02
0.025
0.025
0.02
0.015
0.02
0.01
0.01
0.005
0.035
0.085
0.04
-0.335
-0.565
-0.345
-0.12
-0.01
-0.04
-0.025
-0.01
-0.005
0.0
0.0
0.0
0.0
0.005
0.005
0.005
0.005
0.005
0.01
0.015
0.025
0.025
0.035
0.035
0.04
0.04
0.04
0.04
0.025
0.005
-0.015
-0.03
-0.035
-0.03
-0.02
-0.02
-0.01
-0.01
-0.005
-0.005
-0.005
-0.005
0.0
0.0
0.0
0.0
0.0
0.005
0.0
0.005
0.005
0.005
0.005
0.01
0.01
0.01
0.01
0.015
0.015
0.015
0.01
0.015
0.015
0.015
0.015
0.02
0.015
0.02
0.01
0.02
0.0
-0.03
0.005
-0.02
-0.01
0.015
0.04
0.025
0.02
0.03
0.02
0.015
0.01
0.01
0.01
0.035
0.045
0.21
-0.095
-0.565
-0.435
-0.25
-0.04
-0.03
-0.035
-0.015
-0.01
0.0
-0.005
0.0
0.0
0.005
0.0
0.005
0.01
0.01
0.01
0.015
0.02
0.02
0.025
0.035
0.04
0.045
0.04
0.045
0.035
0.025
0.005
-0.01
-0.025
-0.03
-0.025
-0.015
-0.01
-0.005
-0.005
0.0
-0.005
0.0
-0.005
0.0
0.0
0.0
0.0
0.0
0.0
0.0
0.0
0.005
0.005
0.005
0.01
0.01
0.01
0.005
0.01
0.01
0.015
0.01
0.005
0.01
0.01
0.015
0.02
0.015
0.015
0.015
0.015
-0.01
-0.005
0.0
-0.015
0.015
0.025
0.02
0.025
0.035
0.025
0.015
0.025
0.015
0.015
0.005
0.055
0.1
0.18
-0.235
-0.63
-0.425
-0.165
-0.005
-0.035
-0.02
-0.01
-0.005
0.0
0.0
0.0
0.0
0.005
0.01
0.015
0.015
0.02
0.015
0.025
0.02
0.035
0.03
0.04
0.045
0.04
0.04
0.04
0.03
0.005
-0.01
-0.03
-0.035
-0.03
-0.025
-0.015
-0.01
-0.005
0.0
0.0
-0.005
-0.005
0.0
0.0
0.005
0.005
0.005
0.005
0.01
0.005
0.01
0.005
0.005
0.015
0.015
0.015
0.015
0.015
0.02
0.015
0.025
0.015
0.02
0.015
0.02
0.015
0.025
0.015
0.02
0.02
0.03
0.025
-0.005
0.01
-0.015
-0.03
0.025
0.04
0.03
0.035
0.04
0.03
0.035
0.02
0.025
0.02
0.025
0.075
0.175
0.065
-0.44
-0.56
-0.39
-0.125
0.01
-0.03
-0.005
0.0
0.005
0.005
0.015
0.01
0.015
0.015
0.025
0.025
0.025
0.025
0.025
0.03
0.04
0.045
0.045
0.05
0.055
0.055
0.055
0.05
0.04
0.015
-0.005
-0.02
-0.02
-0.03
-0.015
-0.01
0.0
0.0
-0.005
0.0
0.0
0.0
0.0
0.005
0.01
0.01
0.01
0.015
0.015
0.02
0.02
0.02
0.02
0.02
0.02
0.02
0.02
0.025
0.025
0.025
0.025
0.03
0.02
0.03
0.025
0.035
0.03
0.03
0.025
0.035
0.025
0.035
0.03
-0.005
0.005
-0.015
-0.02
0.025
0.03
0.025
0.03
0.035
0.03
0.03
0.025
0.025
0.015
0.045
0.065
0.2
-0.125
-0.635
-0.465
-0.28
-0.07
-0.02
-0.035
-0.015
-0.01
0.0
0.0
0.005
0.0
0.005
0.005
0.005
0.01
0.01
0.01
0.015
0.02
0.025
0.025
0.035
0.035
0.04
0.04
0.04
0.03
0.015
-0.005
-0.02
-0.04
-0.04
-0.035
-0.02
-0.015
-0.01
-0.005
-0.005
-0.005
-0.005
-0.005
0.0
0.0
0.0
0.0
0.005
0.0
0.005
0.005
0.005
0.005
0.01
0.01
0.015
0.015
0.02
0.015
0.02
0.02
0.02
0.025
0.02
0.02
0.02
0.02
0.025
0.02
0.025
0.02
0.025
0.025
0.03
0.025
0.03
0.025
-0.01
0.005
0.0
-0.02
0.03
0.03
0.02
0.025
0.03
0.025
0.02
0.01
0.015
0.015
0.045
0.05
0.21
-0.175
-0.625
-0.4
-0.22
-0.02
-0.035
-0.03
-0.015
-0.01
0.0
-0.005
0.0
0.0
0.005
0.0
0.01
0.01
0.015
0.015
0.025
0.02
0.025
0.03
0.04
0.04
0.05
0.045
0.045
0.04
0.02
0.0
-0.015
-0.03
-0.03
-0.025
-0.01
-0.01
0.0
-0.005
0.0
0.0
0.0
0.0
0.0
0.0
0.0
0.0
0.0
0.0
0.0
0.005
0.005
0.005
0.01
0.01
0.01
0.01
0.015
0.01
0.015
0.015
0.015
0.015
0.02
0.025
0.03
0.025
0.025
0.025
0.03
0.025
0.03
0.025
0.025
0.025
0.03
0.02
-0.015
0.015
-0.01
0.0
0.03
0.045
0.03
0.03
0.035
0.02
0.025
0.015
0.02
0.01
0.055
0.11
0.11
-0.3
-0.58
-0.37
-0.14
-0.005
-0.03
-0.02
-0.005
-0.005
0.0
0.0
0.01
0.005
0.01
0.005
0.01
0.01
0.015
0.02
0.02
0.02
0.03
0.03
0.035
0.04
0.045
0.045
0.04
0.025
0.01
-0.01
-0.02
-0.035
-0.02
-0.02
-0.01
-0.01
0.0
-0.005
-0.005
0.0
0.0
0.0
0.0
0.0
0.0
0.0
0.0
0.0
0.0
0.0
0.0
0.0
0.0
0.0
0.005
0.005
0.005
0.01
0.01
0.01
0.005
0.01
0.015
0.015
0.015
0.015
0.015
0.015
0.015
0.02
0.02
0.02
0.01
-0.02
0.005
-0.015
-0.025
0.02
0.04
0.015
0.015
0.03
0.02
0.025
0.015
0.015
0.01
0.065
0.09
0.24
-0.16
-0.685
-0.475
-0.195
-0.01
-0.03
-0.015
-0.005
0.0
0.0
0.005
0.005
0.01
0.015
0.005
0.01
0.015
0.025
0.025
0.025
0.03
0.03
0.04
0.04
0.04
0.045
0.04
0.045
0.03
0.015
-0.01
-0.03
-0.04
-0.035
-0.025
-0.015
-0.015
-0.015
-0.005
0.0
0.0
-0.005
0.0
0.0
0.005
0.005
0.005
0.005
0.005
0.01
0.01
0.02
0.01
0.015
0.025
0.02
0.015
0.015
0.025
0.02
0.015
0.025
0.02
0.02
0.02
0.02
0.025
0.025
0.02
0.0
-0.015
-0.015
-0.035
0.015
0.02
0.02
0.025
0.04
0.02
0.03
0.02
0.025
0.01
0.05
0.08
0.21
-0.065
-0.68
-0.51
-0.31
-0.085
-0.015
-0.03
-0.015
-0.015
0.0
0.0
0.005
0.01
0.01
0.01
0.015
0.01
0.025
0.02
0.03
0.03
0.035
0.045
0.045
0.055
0.055
0.055
0.055
0.045
0.035
0.01
-0.005
-0.025
-0.03
-0.025
-0.025
-0.005
-0.005
-0.005
0.0
0.0
0.0
0.0
0.01
0.005
0.005
0.015
0.02
0.02
0.03
0.03
0.02
0.025
0.025
0.03
0.03
0.035
0.025
0.035
0.025
0.03
0.025
0.03
0.025
0.035
0.02
-0.01
0.015
-0.01
-0.01
0.03
0.045
0.035
0.035
0.045
0.035
0.035
0.025
0.03
0.015
0.07
0.085
0.21
-0.21
-0.735
-0.455
-0.205
-0.02
-0.025
-0.02
0.0
-0.005
0.0
0.005
0.01
0.005
0.01
0.01
0.015
0.01
0.02
0.015
0.025
0.025
0.03
0.04
0.055
0.05
0.055
0.055
0.025
0.0
0.02
0.015
0.0
-0.02
-0.025
-0.02
-0.01
0.0
0.0
0.0
0.0
0.0
0.0
0.005
0.005
0.005
0.01
0.01
0.01
0.015
0.02
0.02
0.025
0.02
0.02
0.025
0.025
0.025
0.025
0.025
0.025
0.025
0.03
0.03
0.025
0.015
-0.015
-0.01
0.0
-0.005
0.03
0.035
0.035
0.035
0.04
0.04
0.015
-0.01
-0.015
0.05
0.055
0.055
0.13
0.005
-0.365
-0.51
-0.325
-0.1
-0.01
-0.03
-0.015
-0.005
0.0
0.0
0.0
0.01
0.01
0.01
0.01
0.01
0.015
0.015
0.02
0.025
0.03
0.04
0.04
0.05
0.055
0.05
0.05
0.045
0.035
0.01
-0.005
-0.02
-0.025
-0.015
-0.005
-0.005
0.0
0.0
0.0
0.0
0.0
0.0
0.0
0.0
0.0
0.005
0.0
0.005
0.0
0.005
0.005
0.01
0.005
0.005
0.01
0.015
0.015
0.005
0.015
0.01
0.015
0.01
0.005
-0.02
-0.015
-0.01
-0.015
0.0
0.02
0.015
0.02
0.025
0.02
0.015
0.015
0.01
0.01
0.0
0.04
0.07
0.22
-0.16
-0.66
-0.45
-0.185
-0.01
-0.04
-0.025
-0.01
0.0
0.005
0.0
0.005
0.005
0.01
0.0
0.015
0.01
0.01
0.02
0.02
0.03
0.035
0.035
0.05
0.05
0.045
0.045
0.05
0.03
0.02
-0.005
-0.02
-0.025
-0.025
-0.025
-0.01
-0.01
-0.005
-0.005
0.0
0.0
0.0
0.0
0.0
0.0
0.0
0.0
0.0
0.01
0.01
0.01
0.02
0.01
0.02
0.02
0.015
0.02
0.02
0.025
0.03
0.02
0.025
0.02
0.025
0.0
-0.005
-0.005
-0.015
0.01
0.025
0.02
0.04
0.035
0.03
0.02
0.03
0.02
0.025
0.015
0.075
0.09
0.235
-0.16
-0.75
-0.495
-0.21
-0.02
-0.02
-0.02
-0.005
0.0
0.01
0.005
0.02
0.01
0.025
0.025
0.025
0.02
0.03
0.03
0.035
0.035
0.045
0.045
0.05
0.06
0.065
0.06
0.055
0.045
0.04
0.01
-0.005
-0.015
-0.025
-0.015
-0.01
-0.005
0.0
0.0
0.0
0.0
0.0
0.0
0.0
0.005
0.005
0.01
0.015
0.015
0.02
0.02
0.02
0.02
0.02
0.025
0.025
0.025
0.025
0.025
0.02
0.02
0.025
0.025
-0.005
-0.025
-0.01
-0.03
0.0
0.015
0.03
0.035
0.03
0.035
0.025
0.025
0.025
0.025
0.02
0.05
0.05
0.205
-0.145
-0.645
-0.45
-0.255
-0.055
-0.025
-0.03
-0.005
-0.005
0.005
0.0
0.005
0.01
0.01
0.01
0.015
0.015
0.015
0.015
0.025
0.025
0.03
0.035
0.045
0.045
0.05
0.05
0.04
0.035
0.02
0.0
-0.02
-0.03
-0.03
-0.02
-0.015
-0.01
-0.005
-0.005
0.0
-0.005
0.0
0.0
0.0
0.0
0.0
0.0
0.0
0.005
0.005
0.005
0.01
0.01
0.01
0.015
0.01
0.02
0.015
0.02
0.02
0.02
0.015
0.02
0.02
0.025
0.02
0.025
0.005
-0.035
0.0
-0.02
-0.015
0.015
0.035
0.015
0.025
0.03
0.025
0.015
0.02
0.015
0.015
0.02
0.035
0.135
-0.005
-0.385
-0.51
-0.315
-0.09
-0.015
-0.035
-0.015
-0.01
0.0
0.0
0.0
0.0
0.005
0.005
0.005
0.01
0.01
0.01
0.015
0.02
0.025
0.03
0.035
0.04
0.05
0.05
0.05
0.045
0.035
0.015
-0.005
-0.015
-0.025
-0.02
-0.015
-0.01
-0.005
0.0
0.0
0.0
0.0
0.0
0.0
0.0
0.0
0.0
0.005
0.005
0.005
0.005
0.005
0.01
0.01
0.01
0.01
0.01
0.02
0.02
0.015
0.015
0.015
0.015
0.015
0.015
0.015
0.015
0.015
0.015
0.015
-0.015
-0.02
-0.005
-0.02
0.0
0.02
0.025
0.025
0.02
0.02
0.01
0.015
0.01
0.01
0.005
0.045
0.065
0.215
-0.185
-0.655
-0.415
-0.195
-0.015
-0.04
-0.03
-0.015
-0.01
0.0
0.0
0.005
0.0
0.005
0.005
0.005
0.005
0.015
0.01
0.02
0.02
0.03
0.03
0.04
0.04
0.05
0.05
0.05
0.04
0.03
0.005
-0.01
-0.02
-0.02
-0.02
-0.01
-0.01
0.0
-0.005
0.0
0.0
0.0
0.0
0.0
0.0
0.0
0.0
0.005
0.005
0.01
0.01
0.01
0.01
0.01
0.015
0.015
0.015
0.02
0.015
0.02
0.015
0.02
0.02
0.015
0.02
0.02
0.015
0.02
0.02
0.02
0.01
-0.02
0.0
-0.01
-0.02
0.02
0.035
0.02
0.025
0.03
0.025
0.02
0.015
0.015
0.015
0.015
0.045
0.145
0.045
-0.375
-0.555
-0.345
-0.115
-0.015
-0.035
-0.015
-0.005
0.0
0.0
0.005
0.005
0.01
0.01
0.015
0.015
0.015
0.015
0.025
0.03
0.03
0.035
0.04
0.045
0.05
0.05
0.05
0.05
0.035
0.015
-0.005
-0.02
-0.02
-0.025
-0.015
-0.01
-0.005
-0.005
0.0
0.0
0.0
-0.005
0.005
0.0
0.0
0.005
0.01
0.005
0.01
0.01
0.01
0.015
0.015
0.01
0.02
0.02
0.025
0.015
0.025
0.02
0.02
0.015
0.03
0.025
0.02
0.025
0.03
0.015
-0.015
0.01
-0.015
-0.02
0.025
0.045
0.025
0.025
0.04
0.025
0.025
0.025
0.025
0.015
0.03
0.075
0.175
0.065
-0.44
-0.575
-0.395
-0.125
0.005
-0.025
-0.005
0.0
0.005
0.01
0.015
0.015
0.02
0.025
0.02
0.025
0.035
0.035
0.035
0.035
0.04
0.04
0.05
0.05
0.05
0.05
0.055
0.045
0.035
0.02
-0.005
-0.02
-0.025
-0.025
-0.015
-0.015
-0.01
0.0
0.0
-0.005
-0.01
0.0
0.005
0.0
0.0
0.005
0.01
0.01
0.01
0.015
0.02
0.02
0.02
0.02
0.025
0.025
0.025
0.025
0.03
0.025
0.02
0.025
0.03
0.03
0.025
0.035
0.025
0.035
0.02
-0.005
0.0
-0.02
-0.02
0.03
0.035
0.03
0.04
0.045
0.04
0.04
0.03
0.035
0.025
0.06
0.085
0.225
-0.08
-0.645
-0.485
-0.275
-0.06
0.0
-0.01
0.01
0.01
0.02
0.025
0.03
0.03
0.035
0.035
0.045
0.035
0.04
0.04
0.05
0.045
0.05
0.055
0.06
0.065
0.07
0.065
0.065
0.05
0.035
0.015
0.0
-0.02
-0.02
-0.02
-0.01
-0.005
0.0
0.0
0.0
0.0
0.0
0.0
0.0
0.005
0.01
0.01
0.015
0.015
0.015
0.02
0.02
0.02
0.025
0.025
0.03
0.025
0.03
0.03
0.03
0.03
0.035
0.03
0.035
0.035
0.03
0.03
0.035
0.035
0.04
0.02
-0.02
0.005
-0.015
-0.01
0.03
0.04
0.025
0.035
0.04
0.03
0.03
0.025
0.03
0.025
0.05
0.055
0.19
-0.185
-0.605
-0.415
-0.235
-0.025
-0.02
-0.02
0.0
0.0
0.005
0.005
0.015
0.015
0.015
0.015
0.02
0.015
0.02
0.02
0.025
0.025
0.035
0.03
0.04
0.04
0.045
0.045
0.04
0.03
0.015
-0.005
-0.025
-0.035
-0.04
-0.03
-0.02
-0.01
-0.005
-0.005
0.0
0.0
0.0
-0.005
0.0
0.0
0.0
0.0
0.0
0.005
0.005
0.01
0.01
0.01
0.015
0.015
0.015
0.015
0.015
0.01
0.015
0.015
0.015
0.015
0.02
0.02
0.015
0.02
0.02
0.015
0.02
0.015
0.015
-0.015
-0.005
-0.01
-0.02
0.015
0.03
0.015
0.025
0.03
0.02
0.02
0.015
0.015
0.01
0.005
0.045
0.115
0.08
-0.33
-0.595
-0.37
-0.135
-0.01
-0.035
-0.025
-0.01
-0.005
-0.005
0.0
0.0
0.0
0.005
0.0
0.005
0.005
0.015
0.01
0.015
0.015
0.02
0.025
0.03
0.035
0.04
0.04
0.03
0.02
0.0
-0.02
-0.035
-0.045
-0.04
-0.03
-0.03
-0.025
-0.015
-0.015
-0.015
-0.015
-0.01
-0.01
-0.01
-0.005
0.0
-0.005
0.0
0.0
0.0
0.005
0.0
0.005
0.005
0.01
0.01
0.01
0.01
0.01
0.01
0.015
0.02
0.015
0.015
0.02
0.02
0.02
0.02
0.02
0.025
0.025
0.02
0.02
-0.005
-0.005
0.0
-0.015
0.02
0.035
0.03
0.03
0.035
0.035
0.025
0.03
0.025
0.025
0.015
0.06
0.115
0.145
-0.28
-0.615
-0.385
-0.145
0.0
-0.035
-0.02
-0.005
0.0
0.005
0.005
0.01
0.005
0.015
0.01
0.025
0.015
0.02
0.025
0.025
0.03
0.035
0.035
0.04
0.045
0.05
0.045
0.04
0.03
0.005
-0.015
-0.03
-0.035
-0.035
-0.025
-0.025
-0.02
-0.01
-0.015
-0.015
-0.01
-0.01
-0.01
-0.005
-0.01
-0.005
0.0
0.005
0.0
0.0
0.0
0.0
0.005
0.0
0.005
0.005
0.005
0.005
0.01
0.01
0.01
0.015
0.01
0.01
0.01
0.015
0.015
0.01
0.01
0.02
0.01
-0.005
-0.01
-0.015
-0.035
0.02
0.025
0.015
0.015
0.03
0.025
0.025
0.015
0.015
0.01
0.02
0.07
0.17
0.08
-0.425
-0.59
-0.405
-0.13
0.005
-0.02
-0.01
0.0
0.005
0.01
0.02
0.015
0.025
0.025
0.03
0.03
0.03
0.03
0.04
0.035
0.04
0.05
0.05
0.055
0.06
0.055
0.06
0.055
0.035
0.025
0.0
-0.02
-0.02
-0.015
-0.01
-0.005
0.0
0.0
0.0
0.0
0.0
0.0
0.005
0.005
0.01
0.005
0.015
0.02
0.015
0.015
0.015
0.025
0.02
0.02
0.02
0.015
0.03
0.025
0.025
0.025
0.025
0.025
0.03
0.025
0.025
0.025
0.03
0.005
-0.01
0.0
-0.03
0.005
0.015
0.035
0.035
0.03
0.04
0.025
0.03
0.025
0.03
0.025
0.085
0.145
0.145
-0.33
-0.685
-0.46
-0.16
0.01
-0.015
0.0
0.005
0.015
0.025
0.025
0.025
0.03
0.035
0.04
0.04
0.04
0.045
0.045
0.05
0.05
0.05
0.06
0.065
0.065
0.065
0.06
0.06
0.045
0.03
0.0
-0.01
-0.025
-0.025
-0.02
-0.01
-0.005
0.0
0.0
0.0
-0.005
-0.005
0.0
0.0
0.005
0.005
0.01
0.01
0.01
0.005
0.01
0.015
0.015
0.02
0.015
0.015
0.025
0.02
0.025
0.02
0.02
0.025
0.025
0.025
0.03
0.02
-0.005
-0.01
-0.01
-0.015
0.015
0.02
0.035
0.035
0.045
0.04
0.035
0.035
0.03
0.03
0.04
0.065
0.17
-0.065
-0.505
-0.485
-0.295
-0.075
0.0
-0.01
0.0
0.0
0.01
0.015
0.02
0.02
0.025
0.025
0.025
0.025
0.03
0.03
0.035
0.035
0.045
0.045
0.05
0.055
0.055
0.055
0.05
0.04
0.025
0.005
-0.015
-0.03
-0.03
-0.02
-0.015
-0.01
0.0
0.0
0.0
0.0
0.005
0.005
0.0
0.005
0.005
0.005
0.005
0.01
0.01
0.015
0.015
0.015
0.015
0.02
0.02
0.025
0.025
0.025
0.025
0.03
0.025
0.025
0.03
0.025
0.02
-0.01
0.0
0.0
-0.01
0.02
0.025
0.025
0.03
0.035
0.025
0.025
0.025
0.02
0.015
0.025
0.045
0.175
-0.005
-0.45
-0.5
-0.305
-0.085
-0.01
-0.025
-0.005
0.0
0.005
0.005
0.015
0.015
0.015
0.015
0.025
0.025
0.02
0.025
0.025
0.035
0.035
0.04
0.05
0.05
0.05
0.055
0.05
0.045
0.035
0.015
-0.005
-0.015
-0.025
-0.02
-0.01
-0.005
0.0
0.0
0.0
0.0
0.0
0.0
0.0
0.005
0.005
0.01
0.01
0.01
0.015
0.015
0.015
0.02
0.025
0.02
0.015
0.02
0.02
0.02
0.025
0.025
0.02
0.02
0.02
-0.01
-0.005
0.0
-0.015
0.01
0.025
0.02
0.02
0.02
0.02
0.015
0.015
0.005
0.01
0.005
0.045
0.105
0.175
-0.23
-0.63
-0.41
-0.165
-0.005
-0.035
-0.02
-0.005
0.0
0.005
0.005
0.01
0.01
0.015
0.015
0.02
0.02
0.025
0.02
0.035
0.035
0.04
0.04
0.05
0.05
0.05
0.05
0.045
0.035
0.02
0.0
-0.02
-0.025
-0.02
-0.015
-0.005
-0.01
-0.005
0.0
0.0
0.0
0.0
0.0
0.0
0.0
0.005
0.005
0.005
0.01
0.01
0.005
0.005
0.01
0.01
0.01
0.01
0.005
0.01
0.01
0.01
0.005
0.0
-0.025
-0.015
-0.015
-0.03
0.0
0.02
0.015
0.025
0.02
0.015
0.005
0.01
0.01
0.01
0.0
0.04
0.095
0.205
-0.195
-0.64
-0.445
-0.175
-0.01
-0.04
-0.025
-0.01
-0.005
0.0
0.0
0.0
0.005
0.015
0.01
0.02
0.02
0.02
0.03
0.025
0.03
0.04
0.04
0.05
0.055
0.055
0.045
0.045
0.035
0.02
0.0
-0.015
-0.025
-0.02
-0.01
-0.01
-0.005
-0.005
0.0
0.005
0.0
0.0
0.0
0.0
0.01
0.01
0.005
0.01
0.015
0.015
0.015
0.01
0.02
0.02
0.02
0.01
0.02
0.015
0.025
0.0
-0.02
0.005
-0.025
-0.025
0.02
0.04
0.025
0.02
0.035
0.015
0.015
0.01
0.02
0.01
0.03
0.065
0.195
0.005
-0.565
-0.535
-0.345
-0.11
-0.005
-0.03
-0.01
-0.005
0.01
0.01
0.015
0.01
0.025
0.025
0.025
0.03
0.035
0.03
0.04
0.05
0.055
0.055
0.06
0.065
0.07
0.07
0.065
0.065
0.05
0.03
0.015
-0.01
-0.01
-0.005
0.0
0.01
0.0
0.01
0.01
0.01
0.015
0.02
0.02
0.02
0.02
0.025
0.025
0.03
0.03
0.035
0.03
0.04
0.035
0.04
0.04
0.04
0.035
0.0
-0.02
-0.015
-0.01
0.01
0.025
0.05
0.04
0.05
0.045
0.045
0.04
0.035
0.03
0.05
0.05
0.205
-0.1
-0.545
-0.435
-0.245
-0.045
-0.015
-0.02
0.0
0.0
0.01
0.005
0.01
0.005
0.015
0.01
0.02
0.015
0.02
0.02
0.03
0.025
0.04
0.035
0.05
0.05
0.06
0.06
0.06
0.05
0.035
0.005
-0.005
-0.02
-0.015
-0.015
-0.01
-0.01
0.0
0.0
0.0
0.0
0.0
0.0
0.0
0.0
0.005
0.0
0.0
0.0
0.01
0.01
0.01
0.01
0.015
0.015
0.015
0.015
0.02
0.015
0.02
0.015
0.02
0.02
0.02
0.015
0.02
-0.02
-0.04
-0.02
-0.01
-0.005
0.015
0.02
0.02
0.02
0.025
0.01
0.015
0.01
0.01
0.015
0.025
0.165
-0.04
-0.425
-0.455
-0.285
-0.06
-0.04
-0.035
-0.025
-0.015
-0.015
-0.005
-0.005
0.0
0.0
0.0
0.0
0.0
0.0
0.01
0.01
0.02
0.02
0.035
0.045
0.05
0.06
0.065
0.07
0.07
0.055
0.04
0.01
0.0
-0.01
-0.01
-0.01
-0.01
-0.01
-0.005
-0.01
-0.01
-0.01
-0.01
-0.01
-0.005
-0.005
0.0
-0.005
0.0
0.0
0.0
0.0
0.0
0.0
0.005
0.005
0.005
0.005
0.01
0.005
0.01
0.005
0.01
0.005
0.01
0.005
0.01
0.005
0.015
-0.005
-0.04
0.0
-0.02
-0.015
0.02
0.03
0.005
0.005
0.015
0.0
0.005
-0.005
0.0
-0.01
0.02
0.065
0.23
-0.115
-0.61
-0.42
-0.18
-0.035
-0.05
-0.045
-0.025
-0.025
-0.015
-0.015
-0.005
-0.01
0.0
-0.005
0.0
0.0
0.005
0.005
0.015
0.02
0.025
0.035
0.05
0.055
0.065
0.065
0.075
0.065
0.05
0.03
0.01
0.0
-0.005
-0.015
-0.015
-0.015
-0.015
-0.025
-0.015
-0.02
-0.015
-0.02
-0.015
-0.015
-0.01
-0.015
-0.01
-0.01
-0.005
-0.005
0.0
-0.005
0.0
-0.005
0.0
0.0
0.0
0.0
0.0
0.0
0.0
0.0
0.0
0.0
0.0
0.0
0.005
0.0
0.005
-0.005
-0.04
-0.005
-0.02
-0.035
0.015
0.025
0.0
0.005
0.01
0.0
0.0
-0.01
-0.005
-0.01
0.015
0.025
0.265
-0.02
-0.56
-0.475
-0.255
-0.055
-0.055
-0.05
-0.03
-0.03
-0.02
-0.02
-0.01
-0.015
-0.005
-0.01
0.0
-0.005
0.0
0.005
0.015
0.02
0.03
0.035
0.05
0.06
0.07
0.07
0.08
0.08
0.075
0.05
0.03
0.01
0.005
-0.005
0.0
-0.005
0.0
-0.005
0.0
0.0
0.0
0.0
0.005
0.005
0.005
0.0
0.01
0.01
0.01
0.015
0.01
0.015
0.015
0.01
0.02
0.015
0.02
0.02
0.02
0.02
0.015
0.015
0.015
0.015
0.015
0.02
0.02
0.0
-0.005
0.0
-0.015
0.02
0.04
0.02
0.025
0.025
0.02
0.015
0.02
0.01
0.01
0.0
0.055
0.175
0.205
-0.275
-0.59
-0.44
-0.15
-0.01
-0.03
-0.01
0.0
0.0
0.005
0.015
0.015
0.02
0.02
0.015
0.03
0.02
0.04
0.04
0.04
0.045
0.055
0.06
0.075
0.075
0.09
0.085
0.09
0.075
0.06
0.04
0.025
0.0
0.0
0.0
0.0
0.0
0.0
0.0
0.0
0.0
0.01
0.0
0.005
0.01
0.01
0.015
0.01
0.02
0.02
0.02
0.02
0.025
0.025
0.015
0.03
0.02
0.035
0.025
0.03
0.02
0.03
0.02
0.04
0.01
-0.02
0.005
-0.025
-0.015
0.025
0.04
0.035
0.025
0.035
0.02
0.025
0.015
0.02
0.005
0.065
0.08
0.26
-0.085
-0.715
-0.525
-0.24
-0.045
-0.025
-0.04
-0.015
-0.005
0.0
0.0
0.01
0.005
0.015
0.01
0.02
0.025
0.02
0.02
0.04
0.035
0.05
0.045
0.06
0.055
0.07
0.075
0.075
0.06
0.045
0.02
0.0
-0.005
-0.02
-0.01
-0.01
-0.01
0.0
-0.005
0.0
0.0
0.0
0.0
0.005
0.005
0.015
0.005
0.01
0.015
0.015
0.015
0.015
0.015
0.015
0.01
0.02
0.02
0.025
0.02
0.035
0.025
0.03
0.025
0.035
0.0
-0.02
-0.01
-0.025
-0.01
0.01
0.04
0.025
0.035
0.035
0.025
0.03
0.03
0.025
0.02
0.065
0.125
0.13
-0.32
-0.6
-0.4
-0.14
0.0
-0.02
-0.01
0.0
0.0
0.01
0.01
0.015
0.01
0.015
0.015
0.02
0.02
0.025
0.025
0.03
0.035
0.045
0.045
0.055
0.06
0.06
0.065
0.06
0.045
0.02
0.0
-0.015
-0.025
-0.02
-0.02
-0.015
-0.01
-0.005
-0.01
-0.005
-0.005
-0.005
-0.005
0.0
0.0
0.0
0.0
0.0
0.0
0.0
0.005
0.01
0.01
0.005
0.015
0.01
0.015
0.01
0.01
0.015
0.01
0.015
0.02
0.015
0.02
0.015
0.02
0.0
-0.04
-0.03
-0.03
-0.015
0.0
0.02
0.01
0.02
0.02
0.015
0.015
0.01
0.01
0.01
0.03
0.025
0.195
-0.15
-0.575
-0.4
-0.23
-0.025
-0.045
-0.035
-0.02
-0.01
-0.005
-0.005
0.0
0.0
0.0
0.0
0.005
0.005
0.01
0.01
0.015
0.02
0.035
0.04
0.045
0.055
0.06
0.065
0.065
0.06
0.045
0.025
0.005
-0.005
-0.01
-0.01
-0.01
-0.005
-0.005
-0.005
-0.005
0.0
-0.005
0.0
-0.005
0.0
0.0
0.0
0.0
0.0
0.0
0.005
0.005
0.005
0.005
0.01
0.01
0.015
0.01
0.015
0.01
0.015
0.015
0.015
0.01
0.015
0.015
0.02
0.0
-0.03
-0.025
-0.02
-0.01
0.0
0.025
0.01
0.01
0.015
0.01
0.005
0.005
0.005
0.005
0.005
0.02
0.14
0.085
-0.3
-0.545
-0.35
-0.12
-0.025
-0.04
-0.025
-0.015
-0.01
-0.01
0.0
0.0
0.0
0.0
0.005
0.005
0.01
0.015
0.02
0.025
0.035
0.045
0.055
0.06
0.07
0.075
0.085
0.08
0.075
0.05
0.03
0.01
0.0
0.0
-0.01
-0.005
-0.005
-0.005
-0.005
-0.005
0.0
-0.005
0.0
0.0
0.0
0.0
0.005
0.005
0.005
0.005
0.005
0.01
0.01
0.01
0.015
0.015
0.01
0.01
0.015
0.015
0.015
0.015
0.015
0.01
0.015
0.015
0.015
0.015
-0.015
-0.01
0.0
-0.015
0.025
0.035
0.02
0.02
0.02
0.015
0.01
0.01
0.01
0.005
0.01
0.035
0.16
0.12
-0.28
-0.55
-0.36
-0.125
-0.025
-0.035
-0.02
-0.01
-0.005
0.0
0.0
0.005
0.005
0.01
0.015
0.01
0.02
0.025
0.03
0.035
0.04
0.05
0.06
0.065
0.075
0.085
0.09
0.085
0.08
0.06
0.04
0.015
0.005
0.0
0.0
-0.005
0.0
0.0
-0.005
-0.005
-0.005
-0.005
0.0
0.0
0.0
0.0
0.0
0.0
0.005
0.005
0.01
0.005
0.01
0.01
0.015
0.01
0.015
0.01
0.015
0.01
0.015
0.015
0.02
0.015
0.02
0.015
0.02
0.015
0.025
0.02
-0.02
0.01
0.005
-0.015
0.035
0.045
0.015
0.015
0.025
0.01
0.01
0.005
0.01
0.0
0.035
0.045
0.265
-0.02
-0.595
-0.48
-0.25
-0.055
-0.045
-0.04
-0.025
-0.02
-0.01
-0.01
0.0
0.0
0.005
0.0
0.01
0.005
0.015
0.015
0.03
0.03
0.04
0.045
0.055
0.06
0.07
0.075
0.08
0.07
0.06
0.035
0.02
0.0
-0.005
-0.01
-0.01
-0.015
-0.015
-0.015
-0.015
-0.015
-0.01
-0.015
-0.01
-0.005
-0.005
-0.005
0.0
0.0
0.0
0.0
0.0
0.0
0.005
0.005
0.005
0.01
0.01
0.01
0.01
0.01
0.015
0.01
0.015
0.01
0.015
0.015
0.02
0.005
-0.025
0.01
0.0
0.0
0.025
0.03
0.02
0.015
0.02
0.005
0.01
0.005
0.005
0.0
0.05
0.11
0.24
-0.135
-0.645
-0.475
-0.19
-0.02
-0.04
-0.025
-0.01
-0.005
0.0
0.0
0.005
0.01
0.015
0.015
0.015
0.015
0.025
0.025
0.03
0.03
0.045
0.045
0.055
0.055
0.07
0.065
0.07
0.06
0.04
0.025
0.005
0.0
-0.005
-0.005
-0.005
0.0
0.0
-0.005
-0.005
0.0
0.0
0.0
0.0
0.005
0.005
0.01
0.01
0.01
0.01
0.01
0.015
0.02
0.02
0.01
0.02
0.015
0.015
0.02
0.03
0.02
0.02
0.025
0.02
0.025
0.02
-0.005
0.0
-0.005
0.01
0.03
0.02
0.02
0.035
0.02
0.02
0.015
0.015
0.005
0.015
0.065
0.17
0.13
-0.38
-0.585
-0.43
-0.155
-0.01
-0.035
-0.015
-0.01
0.0
0.0
0.005
0.005
0.02
0.015
0.025
0.02
0.03
0.035
0.03
0.04
0.045
0.055
0.06
0.07
0.07
0.08
0.08
0.075
0.065
0.045
0.025
0.005
0.0
0.0
0.0
-0.005
0.0
0.0
0.0
-0.005
0.0
0.0
0.005
0.01
0.005
0.015
0.015
0.015
0.015
0.02
0.015
0.015
0.02
0.025
0.025
0.025
0.025
0.025
0.025
0.025
0.03
0.03
0.025
0.03
0.0
-0.025
-0.005
-0.015
-0.005
0.015
0.04
0.035
0.035
0.035
0.03
0.03
0.025
0.025
0.025
0.065
0.15
0.115
-0.325
-0.575
-0.39
-0.145
0.0
-0.03
-0.015
-0.005
0.0
0.005
0.01
0.015
0.01
0.015
0.015
0.015
0.02
0.02
0.02
0.03
0.03
0.04
0.05
0.05
0.06
0.065
0.065
0.06
0.045
0.025
0.0
-0.01
-0.015
-0.015
-0.015
-0.01
-0.005
-0.01
-0.01
-0.01
-0.005
-0.005
-0.005
-0.005
-0.005
0.0
0.0
0.0
0.0
0.0
0.0
0.005
0.005
0.005
0.005
0.01
0.005
0.01
0.005
0.01
0.005
0.005
0.005
0.01
0.005
0.01
-0.02
-0.05
-0.04
-0.04
-0.025
0.0
0.02
0.005
0.005
0.01
0.005
0.0
0.0
0.0
0.0
0.02
0.025
0.23
-0.085
-0.595
-0.45
-0.25
-0.045
-0.05
-0.045
-0.025
-0.02
-0.015
-0.01
-0.005
-0.005
0.0
0.0
0.005
0.005
0.01
0.01
0.02
0.025
0.035
0.04
0.05
0.06
0.07
0.075
0.075
0.07
0.06
0.035
0.015
0.0
-0.005
-0.01
-0.005
-0.005
-0.005
-0.01
-0.005
-0.005
-0.005
-0.005
-0.005
-0.005
0.0
0.0
0.0
0.0
0.0
0.0
0.0
0.0
0.0
0.005
0.005
0.005
0.01
0.005
0.005
0.01
0.005
0.005
0.005
0.01
-0.005
-0.035
-0.04
-0.035
-0.02
-0.01
0.02
0.005
0.01
0.015
0.01
0.005
0.005
0.0
0.0
0.0
0.02
0.115
0.19
-0.175
-0.595
-0.41
-0.16
-0.025
-0.045
-0.03
-0.015
-0.01
0.0
0.0
0.0
0.0
0.005
0.005
0.01
0.01
0.02
0.02
0.025
0.035
0.045
0.05
0.06
0.07
0.075
0.085
0.085
0.075
0.065
0.04
0.02
0.01
0.0
0.0
-0.005
0.0
-0.005
-0.005
-0.005
-0.005
0.0
0.0
-0.005
0.0
0.005
0.0
0.0
0.01
0.005
0.005
0.01
0.01
0.01
0.01
0.015
0.015
0.015
0.015
0.015
0.015
0.015
0.015
0.015
0.015
-0.015
-0.045
-0.015
-0.025
-0.025
0.005
0.03
0.015
0.02
0.015
0.01
0.01
0.01
0.005
0.005
0.015
0.03
0.21
0.095
-0.37
-0.515
-0.32
-0.095
-0.03
-0.03
-0.015
-0.005
0.0
0.0
0.005
0.005
0.01
0.01
0.01
0.015
0.02
0.025
0.03
0.04
0.045
0.05
0.06
0.07
0.08
0.09
0.095
0.095
0.085
0.065
0.045
0.025
0.015
0.005
0.0
0.0
0.0
0.0
0.0
0.0
0.0
0.0
0.005
0.005
0.01
0.01
0.015
0.015
0.02
0.02
0.02
0.015
0.02
0.02
0.02
0.02
0.02
0.025
0.025
0.02
0.02
0.025
0.025
0.025
0.025
0.025
0.0
-0.015
-0.03
-0.02
-0.005
0.0
0.035
0.015
0.02
0.02
0.02
0.01
0.01
0.005
0.005
0.0
0.03
0.15
0.185
-0.205
-0.565
-0.39
-0.15
-0.025
-0.04
-0.03
-0.015
-0.01
0.0
0.0
0.0
0.0
0.0
0.005
0.01
0.01
0.02
0.025
0.03
0.03
0.045
0.055
0.06
0.07
0.08
0.085
0.08
0.07
0.055
0.04
0.02
0.005
0.0
0.0
-0.005
-0.005
-0.01
-0.005
0.0
-0.005
-0.005
0.0
0.0
0.0
0.005
0.005
0.01
0.01
0.01
0.01
0.01
0.01
0.005
0.01
0.015
0.01
0.015
0.02
0.015
0.015
0.015
0.02
0.015
0.025
0.0
-0.015
-0.035
-0.025
-0.005
0.0
0.04
0.025
0.025
0.03
0.02
0.02
0.015
0.02
0.015
0.01
0.05
0.15
0.23
-0.175
-0.595
-0.445
-0.165
-0.005
-0.03
-0.015
0.0
0.0
0.01
0.01
0.02
0.02
0.025
0.02
0.03
0.03
0.03
0.035
0.045
0.05
0.055
0.06
0.075
0.075
0.08
0.085
0.08
0.075
0.055
0.035
0.02
0.005
0.0
0.0
0.0
0.005
0.0
0.0
0.0
0.0
0.005
0.0
0.005
0.01
0.005
0.015
0.02
0.015
0.015
0.02
0.015
0.025
0.015
0.025
0.025
0.02
0.02
0.025
0.025
0.025
0.03
0.025
0.0
-0.02
-0.02
-0.045
-0.02
0.01
0.035
0.02
0.025
0.035
0.015
0.025
0.025
0.025
0.01
0.035
0.065
0.235
0.08
-0.505
-0.535
-0.345
-0.11
-0.005
-0.02
0.0
0.0
0.015
0.015
0.025
0.02
0.035
0.035
0.03
0.035
0.045
0.04
0.045
0.05
0.06
0.06
0.07
0.085
0.085
0.09
0.095
0.09
0.075
0.055
0.035
0.015
0.005
0.005
0.01
0.005
0.005
0.005
0.01
0.005
0.01
0.015
0.015
0.02
0.02
0.025
0.025
0.025
0.025
0.025
0.025
0.03
0.025
0.03
0.03
0.03
0.035
0.03
0.03
0.03
0.03
0.03
0.015
-0.005
-0.035
-0.035
-0.01
-0.01
0.02
0.02
0.03
0.03
0.03
0.025
0.025
0.025
0.02
0.02
0.06
0.115
0.19
-0.23
-0.645
-0.445
-0.175
-0.005
-0.035
-0.015
-0.005
0.0
0.005
0.005
0.01
0.01
0.015
0.015
0.015
0.015
0.02
0.02
0.025
0.03
0.04
0.045
0.055
0.06
0.065
0.065
0.065
0.05
0.035
0.01
0.0
-0.01
-0.01
-0.01
-0.005
-0.005
-0.005
-0.005
-0.005
0.0
0.0
0.0
0.0
0.0
0.0
0.0
0.0
0.0
0.005
0.005
0.005
0.005
0.01
0.01
0.01
0.015
0.015
0.015
0.02
0.015
0.015
0.015
0.015
0.015
0.02
-0.015
-0.045
-0.03
-0.04
-0.025
0.0
0.025
0.01
0.02
0.02
0.01
0.01
0.01
0.01
0.0
0.025
0.025
0.22
-0.065
-0.515
-0.435
-0.26
-0.05
-0.04
-0.03
-0.02
-0.015
-0.005
0.0
0.0
0.0
0.005
0.0
0.005
0.005
0.015
0.015
0.02
0.025
0.035
0.04
0.05
0.06
0.065
0.075
0.075
0.07
0.055
0.035
0.015
0.0
-0.005
-0.01
-0.01
-0.005
-0.005
-0.005
-0.01
-0.005
0.0
-0.005
0.0
0.0
0.0
0.0
0.0
0.0
0.005
0.0
0.005
0.005
0.005
0.005
0.005
0.01
0.005
0.01
0.01
0.01
0.01
0.01
0.01
0.015
-0.02
-0.05
-0.01
-0.02
-0.025
0.01
0.025
0.01
0.015
0.015
0.01
0.005
0.005
0.005
0.005
0.015
0.03
0.23
0.01
-0.48
-0.49
-0.29
-0.075
-0.04
-0.04
-0.025
-0.02
-0.01
-0.005
0.0
0.0
0.0
0.005
0.005
0.01
0.015
0.02
0.025
0.03
0.04
0.045
0.055
0.065
0.075
0.085
0.085
0.085
0.07
0.05
0.03
0.01
0.0
0.0
0.0
-0.005
-0.005
-0.01
-0.005
-0.005
-0.005
-0.005
0.0
0.0
0.0
0.0
0.0
0.005
0.005
0.005
0.005
0.005
0.005
0.01
0.01
0.01
0.015
0.015
0.015
0.01
0.01
0.01
0.01
0.01
-0.005
-0.03
-0.03
-0.02
-0.005
0.0
0.03
0.005
0.015
0.015
0.01
0.005
0.005
0.005
0.0
0.0
0.025
0.12
0.185
-0.18
-0.6
-0.415
-0.17
-0.03
-0.05
-0.035
-0.025
-0.015
-0.01
-0.005
0.0
0.0
0.0
0.0
0.005
0.005
0.01
0.015
0.02
0.025
0.035
0.045
0.055
0.06
0.07
0.075
0.075
0.065
0.045
0.03
0.01
0.0
-0.01
-0.01
-0.015
-0.015
-0.015
-0.01
-0.015
-0.01
-0.015
-0.01
-0.01
-0.01
-0.005
-0.005
0.0
0.0
0.0
0.0
0.0
0.0
0.005
0.005
0.005
0.005
0.005
0.01
0.01
0.01
0.01
0.01
0.01
-0.005
-0.035
-0.03
-0.03
-0.015
-0.01
0.02
0.0
0.01
0.01
0.005
0.0
0.0
-0.005
-0.005
-0.01
0.02
0.115
0.175
-0.2
-0.595
-0.42
-0.17
-0.035
-0.05
-0.04
-0.02
-0.02
-0.01
-0.01
0.0
0.0
0.0
0.005
0.005
0.005
0.015
0.015
0.025
0.025
0.035
0.045
0.055
0.06
0.07
0.07
0.07
0.06
0.05
0.025
0.01
0.0
0.0
-0.005
0.0
-0.005
0.0
-0.005
0.0
-0.005
0.0
0.0
0.0
0.005
0.0
0.005
0.005
0.01
0.01
0.01
0.015
0.015
0.015
0.01
0.025
0.015
0.02
0.015
0.02
0.02
0.02
-0.005
-0.03
-0.015
-0.025
-0.04
0.005
0.025
0.015
0.02
0.025
0.015
0.015
0.005
0.01
0.01
0.035
0.06
0.235
0.08
-0.515
-0.545
-0.345
-0.105
-0.015
-0.035
-0.015
-0.01
0.005
0.0
0.01
0.015
0.02
0.025
0.03
0.025
0.035
0.035
0.04
0.045
0.055
0.055
0.065
0.075
0.085
0.085
0.09
0.08
0.07
0.045
0.035
0.015
0.01
0.005
0.0
0.005
0.005
0.0
0.005
0.0
0.015
0.01
0.01
0.01
0.02
0.02
0.02
0.025
0.02
0.02
0.025
0.025
0.025
0.025
0.025
0.03
0.03
0.025
0.03
0.035
0.03
0.035
0.0
-0.02
-0.015
-0.03
-0.025
0.01
0.03
0.03
0.03
0.04
0.02
0.03
0.025
0.025
0.02
0.05
0.075
0.245
0.005
-0.625
-0.505
-0.29
-0.07
-0.01
-0.02
0.0
0.005
0.015
0.015
0.025
0.02
0.025
0.03
0.035
0.035
0.04
0.04
0.05
0.05
0.055
0.06
0.07
0.08
0.085
0.085
0.09
0.085
0.065
0.045
0.025
0.005
0.0
0.0
0.0
0.005
0.0
0.005
0.0
0.005
0.0
0.005
0.0
0.01
0.005
0.01
0.01
0.015
0.01
0.02
0.015
0.015
0.02
0.02
0.02
0.02
0.02
0.02
0.02
0.025
0.02
0.02
0.02
0.025
0.0
-0.03
-0.045
-0.03
-0.005
-0.01
0.02
0.015
0.02
0.025
0.025
0.015
0.015
0.015
0.015
0.01
0.03
0.105
0.1
-0.245
-0.56
-0.355
-0.13
-0.015
-0.04
-0.02
-0.01
-0.005
0.0
0.0
0.0
0.005
0.005
0.01
0.01
0.015
0.02
0.025
0.03
0.035
0.04
0.05
0.06
0.065
0.07
0.07
0.07
0.055
0.04
0.02
0.0
0.0
-0.005
-0.005
-0.005
0.0
-0.005
0.0
0.0
0.0
-0.005
0.0
0.0
0.0
0.0
0.0
0.0
0.005
0.0
0.01
0.005
0.01
0.01
0.015
0.01
0.015
0.015
0.015
0.01
0.015
0.015
0.015
0.015
0.015
-0.005
-0.025
-0.04
-0.03
0.0
-0.01
0.025
0.01
0.015
0.02
0.015
0.01
0.01
0.005
0.0
0.0
0.03
0.055
0.255
-0.08
-0.635
-0.44
-0.205
-0.03
-0.05
-0.035
-0.02
-0.015
-0.01
-0.005
0.0
0.0
0.0
0.0
0.005
0.005
0.01
0.015
0.02
0.025
0.035
0.045
0.055
0.06
0.065
0.07
0.075
0.07
0.055
0.035
0.015
0.0
-0.005
-0.01
-0.01
-0.01
-0.015
-0.01
-0.015
-0.01
-0.015
-0.01
-0.01
-0.005
-0.005
0.0
0.0
0.0
0.0
0.0
0.0
0.005
0.0
0.005
0.005
0.005
0.005
0.01
0.01
0.01
0.005
0.01
0.01
0.015
0.005
0.01
-0.02
-0.035
-0.005
-0.005
-0.01
0.02
0.015
0.02
0.01
0.015
0.005
0.005
0.0
0.0
0.0
0.025
0.035
0.27
0.015
-0.535
-0.475
-0.255
-0.055
-0.04
-0.035
-0.015
-0.015
-0.005
0.0
0.0
0.0
0.01
0.005
0.015
0.015
0.02
0.02
0.025
0.03
0.045
0.05
0.06
0.065
0.08
0.085
0.09
0.085
0.075
0.05
0.04
0.015
0.01
0.0
0.0
-0.005
0.0
-0.005
0.0
0.0
0.0
0.0
0.0
0.0
0.0
0.0
0.01
0.01
0.015
0.01
0.015
0.01
0.02
0.01
0.015
0.015
0.02
0.02
0.02
0.015
0.02
0.02
0.025
0.015
0.02
0.015
0.025
0.0
-0.025
0.01
-0.005
-0.005
0.025
0.035
0.025
0.025
0.025
0.015
0.01
0.01
0.01
0.005
0.025
0.035
0.24
0.06
-0.44
-0.495
-0.29
-0.08
-0.03
-0.035
-0.015
-0.01
0.0
0.0
0.0
0.0
0.01
0.005
0.01
0.015
0.015
0.02
0.025
0.035
0.04
0.04
0.055
0.06
0.07
0.075
0.08
0.075
0.07
0.045
0.03
0.01
0.0
-0.005
-0.005
-0.01
-0.005
-0.015
-0.01
-0.01
-0.005
-0.015
-0.01
-0.01
0.0
-0.005
0.0
0.0
0.0
0.0
0.005
0.0
0.005
0.0
0.005
0.005
0.015
0.01
0.015
0.01
0.015
0.015
0.015
0.01
0.02
0.015
0.02
0.0
-0.02
0.005
-0.01
-0.01
0.025
0.045
0.02
0.025
0.03
0.02
0.02
0.02
0.015
0.01
0.015
0.045
0.17
0.18
-0.255
-0.57
-0.395
-0.145
-0.02
-0.035
-0.015
-0.015
-0.005
0.0
0.0
0.0
0.01
0.015
0.02
0.02
0.02
0.02
0.035
0.035
0.04
0.045
0.05
0.065
0.07
0.07
0.08
0.07
0.065
0.045
0.03
0.01
0.005
0.0
0.0
-0.005
0.0
-0.005
0.0
-0.005
0.0
-0.005
0.0
0.0
0.0
0.0
0.01
0.005
0.01
0.005
0.01
0.005
0.01
0.015
0.015
0.015
0.02
0.015
0.02
0.01
0.015
0.02
0.025
0.015
0.02
0.005
-0.01
0.0
-0.015
-0.015
0.02
0.03
0.02
0.02
0.025
0.02
0.01
0.01
0.015
0.005
0.005
0.055
0.14
0.195
-0.235
-0.64
-0.475
-0.18
-0.01
-0.045
-0.02
-0.005
0.0
0.0
0.0
0.005
0.015
0.015
0.015
0.02
0.025
0.03
0.035
0.035
0.045
0.045
0.06
0.065
0.07
0.07
0.085
0.075
0.065
0.05
0.03
0.005
0.0
0.0
0.0
0.0
-0.005
0.0
0.0
-0.005
0.0
0.0
0.0
0.0
0.01
0.01
0.015
0.01
0.01
0.01
0.015
0.015
0.015
0.01
0.02
0.02
0.015
0.02
0.02
0.015
0.02
0.015
0.02
0.015
0.0
-0.03
-0.015
-0.03
-0.01
0.005
0.035
0.01
0.02
0.025
0.025
0.015
0.015
0.01
0.01
0.015
0.04
0.155
0.06
-0.355
-0.535
-0.365
-0.125
-0.025
-0.04
-0.03
-0.015
-0.015
-0.005
-0.005
0.0
0.0
0.0
0.0
0.005
0.005
0.01
0.01
0.02
0.02
0.035
0.035
0.05
0.05
0.06
0.06
0.055
0.045
0.025
0.0
-0.005
-0.015
-0.015
-0.015
-0.01
-0.015
-0.01
-0.015
-0.015
-0.015
-0.015
-0.01
-0.01
-0.01
-0.005
-0.005
0.0
-0.005
0.0
0.0
0.0
0.0
0.005
0.0
0.0
0.0
0.0
0.0
0.005
0.0
0.005
0.0
0.005
0.0
0.01
-0.02
-0.045
-0.015
-0.03
-0.03
0.005
0.025
0.005
0.005
0.01
0.0
0.0
0.0
0.0
-0.005
0.01
0.02
0.225
-0.015
-0.5
-0.48
-0.28
-0.07
-0.045
-0.04
-0.025
-0.025
-0.01
-0.015
-0.005
-0.005
0.0
0.0
0.005
0.0
0.005
0.01
0.015
0.02
0.03
0.035
0.05
0.055
0.065
0.07
0.075
0.07
0.06
0.04
0.025
0.005
0.0
-0.005
0.0
-0.005
0.0
-0.005
0.0
-0.005
0.0
-0.005
0.0
0.0
0.0
0.0
0.005
0.0
0.0
0.0
0.005
0.0
0.005
0.0
0.005
0.01
0.01
0.01
0.01
0.01
0.01
0.01
0.01
0.01
0.015
0.01
0.0
-0.035
-0.02
-0.025
-0.005
0.0
0.03
0.005
0.015
0.01
0.01
0.005
0.005
0.0
0.005
0.0
0.035
0.095
0.225
-0.13
-0.615
-0.425
-0.175
-0.025
-0.04
-0.03
-0.015
-0.015
0.0
0.0
0.005
0.0
0.01
0.005
0.01
0.01
0.025
0.02
0.03
0.03
0.045
0.05
0.065
0.07
0.08
0.085
0.09
0.08
0.065
0.045
0.025
0.01
0.005
0.0
0.0
0.0
0.0
0.0
0.0
0.0
0.0
0.0
0.0
0.0
0.0
0.0
0.0
0.005
0.005
0.005
0.01
0.005
0.005
0.005
0.01
0.005
0.01
0.01
0.01
0.01
0.015
0.01
0.01
0.01
0.015
0.01
-0.015
-0.045
0.0
-0.015
-0.02
0.01
0.025
0.015
0.02
0.015
0.01
0.005
0.01
0.0
0.005
0.02
0.04
0.25
0.03
-0.505
-0.49
-0.275
-0.07
-0.045
-0.04
-0.03
-0.02
-0.01
-0.005
0.0
0.0
0.0
0.005
0.01
0.01
0.01
0.02
0.025
0.025
0.035
0.045
0.055
0.065
0.065
0.075
0.075
0.075
0.06
0.045
0.025
0.005
0.0
0.0
0.0
0.0
0.0
0.0
0.0
0.005
0.0
0.0
0.0
0.005
0.0
0.01
0.01
0.015
0.005
0.015
0.01
0.015
0.01
0.015
0.005
0.015
0.015
0.015
0.015
0.02
0.015
0.02
0.015
0.025
-0.005
-0.035
-0.015
-0.03
-0.025
0.005
0.025
0.02
0.015
0.02
0.02
0.01
0.005
0.015
0.01
0.015
0.055
0.165
0.165
-0.295
-0.6
-0.435
-0.155
-0.015
-0.04
-0.015
-0.015
0.0
0.0
0.0
0.0
0.01
0.01
0.02
0.02
0.025
0.02
0.025
0.03
0.045
0.045
0.055
0.065
0.07
0.07
0.085
0.07
0.065
0.045
0.03
0.005
0.0
0.0
-0.01
-0.005
0.0
-0.005
-0.005
-0.005
0.0
-0.005
0.0
0.0
0.005
0.01
0.005
0.005
0.015
0.015
0.02
0.01
0.02
0.015
0.025
0.025
0.025
0.02
0.03
0.025
0.025
0.025
0.025
0.0
-0.005
-0.035
-0.045
-0.015
-0.005
0.025
0.02
0.03
0.035
0.03
0.025
0.025
0.02
0.025
0.015
0.055
0.085
0.265
-0.085
-0.69
-0.49
-0.22
-0.025
-0.03
-0.015
0.0
0.0
0.005
0.01
0.015
0.015
0.02
0.02
0.025
0.025
0.03
0.03
0.04
0.04
0.045
0.05
0.06
0.07
0.075
0.075
0.075
0.065
0.045
0.025
0.005
-0.005
-0.01
-0.005
-0.005
-0.005
-0.005
0.0
0.0
0.0
0.0
0.0
0.0
0.005
0.0
0.005
0.005
0.01
0.01
0.015
0.01
0.015
0.01
0.02
0.015
0.015
0.015
0.02
0.015
0.02
0.02
0.025
0.02
0.02
0.02
0.02
0.02
0.015
-0.015
-0.045
-0.015
-0.01
-0.03
0.015
0.025
0.02
0.02
0.025
0.015
0.015
0.005
0.015
0.01
0.04
0.035
0.255
-0.065
-0.56
-0.42
-0.225
-0.03
-0.035
-0.035
-0.015
-0.015
-0.005
-0.01
0.0
0.0
0.0
0.0
0.01
0.005
0.015
0.015
0.025
0.025
0.04
0.04
0.055
0.055
0.07
0.07
0.08
0.07
0.055
0.03
0.015
0.0
0.0
-0.01
-0.005
-0.005
-0.005
-0.005
-0.005
-0.005
-0.005
-0.005
-0.005
-0.005
0.0
0.0
0.0
0.0
0.0
0.0
0.005
0.0
0.005
0.0
0.005
0.005
0.005
0.005
0.01
0.01
0.005
0.01
0.01
0.005
0.01
0.01
0.015
0.01
-0.015
-0.045
-0.03
-0.045
-0.025
0.0
0.03
0.0
0.015
0.015
0.01
0.005
0.01
0.005
0.005
0.0
0.03
0.13
0.15
-0.23
-0.555
-0.37
-0.135
-0.03
-0.04
-0.03
-0.015
-0.015
-0.01
-0.005
0.0
0.0
0.005
0.0
0.01
0.01
0.015
0.02
0.03
0.03
0.04
0.045
0.06
0.07
0.075
0.075
0.08
0.07
0.055
0.03
0.015
0.005
0.0
-0.005
0.0
-0.005
-0.005
-0.005
-0.005
-0.005
0.0
-0.005
0.0
0.0
0.0
0.0
0.0
0.0
0.005
0.0
0.005
0.005
0.01
0.005
0.01
0.01
0.015
0.015
0.015
0.01
0.02
0.015
0.015
0.015
0.02
0.015
0.015
0.01
0.02
0.015
0.025
-0.005
-0.025
-0.02
-0.02
-0.015
0.005
0.04
0.015
0.015
0.02
0.015
0.01
0.01
0.01
0.005
0.01
0.03
0.175
0.115
-0.29
-0.53
-0.34
-0.12
-0.025
-0.035
-0.02
-0.015
-0.005
0.0
0.0
0.0
0.0
0.005
0.01
0.005
0.015
0.015
0.02
0.025
0.04
0.045
0.055
0.06
