signal
-0.02
-0.02
-0.025
-0.01
-0.01
-0.015
-0.01
-0.02
-0.025
-0.04
-0.035
-0.055
-0.04
-0.055
-0.055
-0.045
0.005
0.03
0.06
0.055
0.12
0.085
0.055
-0.01
-0.005
-0.09
-0.095
-0.11
-0.095
-0.115
-0.095
-0.12
-0.09
-0.08
0.2
0.535
-0.32
-0.355
-0.195
-0.09
-0.085
-0.105
-0.09
-0.095
-0.075
-0.095
-0.07
-0.085
-0.06
-0.065
-0.03
-0.025
0.0
0.01
0.035
0.055
0.11
0.13
0.175
0.21
0.24
0.255
0.285
0.295
0.29
0.23
0.2
0.115
0.055
0.01
-0.015
-0.03
-0.045
-0.04
-0.035
-0.02
-0.035
-0.02
-0.025
-0.02
-0.03
-0.02
-0.03
-0.03
-0.045
-0.035
-0.045
-0.045
-0.065
-0.055
-0.04
0.035
0.05
0.07
0.06
0.105
0.085
0.03
0.0
-0.035
-0.1
-0.11
-0.12
-0.09
-0.11
-0.105
-0.125
-0.085
-0.06
0.195
0.41
-0.455
-0.385
-0.2
-0.085
-0.085
-0.105
-0.095
-0.13
-0.095
-0.105
-0.075
-0.09
-0.055
-0.07
-0.045
-0.035
0.0
0.0
0.05
0.06
0.12
0.125
0.185
0.2
0.25
0.27
0.3
0.315
0.28
0.245
0.175
0.095
0.045
0.0
-0.04
-0.035
-0.045
-0.045
-0.055
-0.05
-0.04
-0.045
-0.02
-0.05
-0.03
-0.05
-0.04
-0.055
-0.06
-0.055
-0.045
-0.06
-0.065
-0.055
0.0
0.03
0.055
0.035
0.11
0.085
0.06
0.0
-0.03
-0.115
-0.125
-0.125
-0.105
-0.12
-0.105
-0.135
-0.12
-0.08
0.135
0.465
-0.235
-0.385
-0.265
-0.15
-0.125
-0.13
-0.1
-0.12
-0.1
-0.12
-0.08
-0.09
-0.065
-0.07
-0.04
-0.04
-0.005
0.005
0.025
0.055
0.08
0.11
0.18
0.19
0.245
0.26
0.285
0.3
0.29
0.255
0.22
0.115
0.055
0.01
-0.015
-0.055
-0.035
-0.04
-0.06
-0.045
-0.03
-0.035
-0.035
-0.03
-0.035
-0.04
-0.055
-0.055
-0.045
-0.05
-0.06
-0.05
-0.05
-0.05
-0.025
0.045
0.045
0.05
0.12
0.095
0.045
-0.01
-0.01
-0.1
-0.12
-0.11
-0.105
-0.11
-0.11
-0.125
-0.115
-0.07
0.16
0.515
-0.135
-0.37
-0.23
-0.12
-0.09
-0.1
-0.105
-0.105
-0.09
-0.105
-0.075
-0.09
-0.065
-0.07
-0.045
-0.04
0.0
0.0
0.04
0.055
0.09
0.11
0.16
0.195
0.225
0.26
0.28
0.28
0.3
0.265
0.205
0.13
0.07
0.01
-0.02
-0.045
-0.035
-0.03
-0.03
-0.035
-0.045
-0.04
-0.025
-0.02
-0.03
-0.03
-0.045
-0.045
-0.04
-0.05
-0.06
-0.055
-0.07
-0.07
-0.025
0.04
0.045
0.07
0.105
0.105
0.08
0.0
0.0
-0.06
-0.11
-0.1
-0.1
-0.11
-0.115
-0.11
-0.125
-0.085
0.055
0.325
0.0
-0.415
-0.28
-0.14
-0.085
-0.11
-0.105
-0.105
-0.1
-0.105
-0.1
-0.08
-0.075
-0.06
-0.05
-0.03
-0.01
0.0
0.025
0.06
0.09
0.12
0.16
0.205
0.235
0.25
0.295
0.3
0.3
0.28
0.21
0.14
0.07
0.015
-0.015
-0.025
-0.05
-0.055
-0.05
-0.035
-0.04
-0.045
-0.035
-0.035
-0.025
-0.035
-0.045
-0.025
-0.035
-0.05
-0.055
-0.05
-0.06
-0.055
-0.005
0.045
0.05
0.055
0.105
0.085
0.06
0.005
-0.02
-0.1
-0.115
-0.115
-0.115
-0.12
-0.12
-0.12
-0.125
-0.07
0.075
0.335
-0.015
-0.405
-0.275
-0.17
-0.1
-0.105
-0.105
-0.09
-0.11
-0.11
-0.08
-0.08
-0.075
-0.075
-0.045
-0.025
-0.01
0.0
0.025
0.065
0.08
0.105
0.165
0.2
0.235
0.265
0.275
0.31
0.315
0.27
0.22
0.125
0.08
0.005
-0.025
-0.025
-0.05
-0.04
-0.05
-0.05
-0.045
-0.04
-0.02
-0.035
-0.05
-0.04
-0.04
-0.045
-0.055
-0.055
-0.06
-0.07
-0.065
-0.065
0.0
0.04
0.04
0.05
0.115
0.075
0.055
-0.02
-0.015
-0.1
-0.115
-0.125
-0.105
-0.12
-0.115
-0.13
-0.105
-0.07
0.165
0.505
-0.165
-0.38
-0.245
-0.15
-0.11
-0.105
-0.105
-0.115
-0.075
-0.1
-0.09
-0.095
-0.055
-0.04
-0.05
-0.05
-0.01
0.015
0.055
0.045
0.105
0.135
0.165
0.2
0.255
0.295
0.295
0.31
0.31
0.26
0.22
0.135
0.055
0.035
-0.01
-0.005
-0.035
-0.035
-0.06
-0.025
-0.025
-0.045
-0.025
-0.04
-0.025
-0.04
-0.05
-0.04
-0.07
-0.065
-0.07
-0.065
-0.07
-0.065
-0.035
0.04
0.035
0.075
0.06
0.115
0.09
0.015
-0.01
-0.06
-0.125
-0.1
-0.12
-0.115
-0.125
-0.095
-0.13
-0.065
0.01
0.35
0.47
-0.39
-0.29
-0.145
-0.065
-0.09
-0.12
-0.09
-0.125
-0.09
-0.11
-0.07
-0.085
-0.05
-0.065
-0.025
-0.05
-0.005
0.02
0.055
0.065
0.105
0.15
0.19
0.225
0.255
0.275
0.31
0.32
0.3
0.255
0.175
0.105
0.045
0.0
-0.025
-0.025
-0.02
-0.025
-0.03
-0.03
-0.02
-0.03
-0.035
-0.03
-0.015
-0.03
-0.015
-0.04
-0.035
-0.045
-0.045
-0.055
-0.045
-0.03
0.045
0.05
0.08
0.075
0.115
0.09
0.02
0.0
-0.04
-0.095
-0.085
-0.115
-0.09
-0.115
-0.1
-0.115
-0.055
0.0
0.26
0.35
-0.445
-0.35
-0.15
-0.06
-0.08
-0.095
-0.09
-0.11
-0.075
-0.095
-0.06
-0.07
-0.06
-0.045
-0.025
-0.01
0.01
0.02
0.065
0.085
0.13
0.16
0.205
0.225
0.26
0.285
0.295
0.31
0.295
0.24
0.18
0.1
0.045
-0.005
-0.03
-0.045
-0.045
-0.04
-0.035
-0.035
-0.03
-0.04
-0.02
-0.03
-0.045
-0.04
-0.035
-0.04
-0.06
-0.06
-0.05
-0.06
-0.065
-0.055
0.0
0.045
0.045
0.045
0.11
0.09
0.06
-0.01
-0.02
-0.1
-0.12
-0.115
-0.11
-0.125
-0.11
-0.12
-0.08
-0.075
0.14
0.415
-0.275
-0.41
-0.225
-0.135
-0.1
-0.115
-0.11
-0.1
-0.09
-0.095
-0.08
-0.095
-0.065
-0.045
-0.04
-0.035
0.0
0.005
0.035
0.07
0.12
0.14
0.16
0.21
0.235
0.26
0.305
0.315
0.31
0.28
0.21
0.115
0.075
0.01
-0.025
-0.04
-0.045
-0.055
-0.03
-0.045
-0.04
-0.03
-0.03
-0.03
-0.04
-0.035
-0.015
-0.04
-0.04
-0.04
-0.045
-0.065
-0.05
-0.045
-0.01
0.045
0.06
0.065
0.115
0.1
0.06
0.005
-0.025
-0.08
-0.115
-0.105
-0.095
-0.145
-0.115
-0.11
-0.1
-0.065
0.155
0.5
-0.155
-0.36
-0.27
-0.165
-0.095
-0.095
-0.105
-0.11
-0.09
-0.12
-0.08
-0.08
-0.05
-0.075
-0.04
-0.045
0.0
-0.01
0.02
0.065
0.11
0.135
0.16
0.21
0.245
0.285
0.31
0.29
0.31
0.275
0.195
0.12
0.055
0.01
-0.02
-0.035
-0.065
-0.06
-0.055
-0.045
-0.05
-0.06
-0.025
-0.02
-0.045
-0.025
-0.035
-0.07
-0.035
-0.075
-0.05
-0.07
-0.055
-0.07
-0.065
-0.055
0.015
0.025
0.045
0.06
0.11
0.07
0.01
-0.02
-0.04
-0.105
-0.115
-0.135
-0.115
-0.145
-0.105
-0.125
-0.065
0.0
0.31
0.44
-0.4
-0.34
-0.17
-0.075
-0.1
-0.13
-0.105
-0.1
-0.1
-0.105
-0.075
-0.065
-0.04
-0.065
-0.045
-0.01
0.005
0.0
0.05
0.065
0.12
0.155
0.19
0.2
0.255
0.28
0.3
0.3
0.285
0.245
0.19
0.09
0.04
-0.005
-0.02
-0.03
-0.045
-0.05
-0.055
-0.045
-0.04
-0.03
-0.04
-0.03
-0.035
-0.035
-0.04
-0.045
-0.06
-0.045
-0.06
-0.06
-0.07
-0.055
-0.07
-0.01
0.025
0.055
0.06
0.13
0.08
0.035
-0.015
-0.03
-0.105
-0.11
-0.14
-0.11
-0.12
-0.1
-0.13
-0.105
-0.1
0.165
0.46
-0.42
-0.445
-0.23
-0.095
-0.095
-0.12
-0.115
-0.125
-0.1
-0.11
-0.095
-0.095
-0.07
-0.085
-0.06
-0.055
-0.015
0.0
0.03
0.05
0.095
0.125
0.175
0.195
0.23
0.25
0.29
0.295
0.3
0.26
0.195
0.115
0.055
0.0
-0.025
-0.04
-0.05
-0.055
-0.05
-0.065
-0.05
-0.035
-0.04
-0.025
-0.045
-0.04
-0.045
-0.02
-0.035
-0.035
-0.045
-0.045
-0.065
-0.055
-0.05
0.015
0.05
0.075
0.065
0.12
0.095
0.04
-0.015
-0.005
-0.09
-0.1
-0.13
-0.095
-0.115
-0.1
-0.12
-0.08
-0.08
0.18
0.49
-0.355
-0.395
-0.22
-0.135
-0.08
-0.105
-0.09
-0.095
-0.085
-0.105
-0.085
-0.075
-0.06
-0.055
-0.02
-0.015
0.005
-0.005
0.04
0.07
0.1
0.16
0.2
0.215
0.25
0.285
0.31
0.32
0.305
0.27
0.2
0.14
0.075
0.005
-0.015
-0.045
-0.02
-0.035
-0.035
-0.03
-0.03
-0.04
-0.025
-0.02
-0.035
-0.02
-0.035
-0.04
-0.04
-0.045
-0.045
-0.045
-0.06
-0.05
-0.035
0.005
0.04
0.05
0.045
0.125
0.09
0.06
-0.02
-0.015
-0.09
-0.095
-0.12
-0.12
-0.115
-0.095
-0.125
-0.095
-0.07
0.13
0.505
-0.145
-0.37
-0.26
-0.17
-0.085
-0.105
-0.095
-0.105
-0.095
-0.085
-0.1
-0.065
-0.045
-0.065
-0.035
-0.04
0.0
0.03
0.045
0.055
0.095
0.12
0.175
0.22
0.24
0.26
0.28
0.31
0.31
0.29
0.215
0.145
0.08
0.035
-0.01
-0.025
-0.035
-0.07
-0.035
-0.04
-0.03
-0.035
-0.025
-0.015
-0.02
-0.025
-0.045
-0.055
-0.035
-0.03
-0.04
-0.035
-0.05
-0.055
-0.055
-0.05
-0.07
0.0
0.05
0.065
0.06
0.125
0.1
0.065
0.005
0.0
-0.09
-0.1
-0.105
-0.085
-0.105
-0.11
-0.115
-0.1
-0.07
0.185
0.53
-0.175
-0.395
-0.23
-0.11
-0.065
-0.1
-0.11
-0.12
-0.085
-0.09
-0.075
-0.08
-0.055
-0.06
-0.04
-0.035
0.0
0.01
0.035
0.055
0.1
0.125
0.16
0.19
0.235
0.28
0.3
0.295
0.295
0.265
0.21
0.14
0.08
0.02
-0.01
-0.03
-0.03
-0.025
-0.035
-0.05
-0.035
-0.03
-0.03
-0.02
-0.03
-0.02
-0.04
-0.025
-0.05
-0.04
-0.07
-0.06
-0.05
-0.07
-0.07
-0.065
-0.065
-0.005
0.04
0.045
0.05
0.12
0.095
0.04
0.0
-0.005
-0.075
-0.11
-0.12
-0.1
-0.1
-0.1
-0.115
-0.105
-0.105
0.105
0.415
-0.22
-0.435
-0.255
-0.125
-0.1
-0.11
-0.1
-0.115
-0.1
-0.105
-0.085
-0.08
-0.05
-0.06
-0.055
-0.025
0.005
0.0
0.025
0.065
0.095
0.145
0.185
0.205
0.245
0.275
0.295
0.305
0.325
0.285
0.215
0.14
0.08
0.025
-0.01
-0.04
-0.04
-0.025
-0.045
-0.04
-0.025
-0.03
-0.03
-0.03
-0.035
-0.025
-0.035
-0.035
-0.055
-0.05
-0.05
-0.055
-0.065
-0.055
-0.055
-0.05
-0.04
0.025
0.025
0.075
0.07
0.135
0.085
0.03
-0.005
-0.025
-0.1
-0.1
-0.125
-0.08
-0.105
-0.09
-0.125
-0.07
-0.06
0.175
0.505
-0.355
-0.365
-0.235
-0.13
-0.1
-0.115
-0.09
-0.11
-0.1
-0.095
-0.07
-0.07
-0.06
-0.06
-0.02
-0.03
0.01
0.025
0.055
0.06
0.115
0.145
0.2
0.22
0.275
0.285
0.31
0.31
0.32
0.275
0.225
0.15
0.06
0.035
0.0
-0.015
-0.035
-0.03
-0.035
-0.02
-0.04
-0.015
-0.03
-0.035
-0.01
0.0
-0.02
-0.035
-0.04
-0.035
-0.03
-0.045
-0.045
-0.055
-0.07
-0.06
-0.02
0.055
0.04
0.055
0.09
0.11
0.075
0.01
-0.005
-0.06
-0.12
-0.09
-0.115
-0.115
-0.125
-0.105
-0.12
-0.06
0.055
0.375
0.34
-0.37
-0.295
-0.2
-0.095
-0.105
-0.11
-0.09
-0.11
-0.095
-0.105
-0.085
-0.08
-0.065
-0.045
-0.035
-0.025
0.0
0.005
0.04
0.07
0.12
0.135
0.195
0.23
0.255
0.265
0.295
0.305
0.3
0.245
0.175
0.11
0.04
0.0
-0.01
-0.03
-0.025
-0.025
-0.04
-0.04
-0.025
-0.035
-0.03
-0.02
-0.035
-0.04
-0.03
-0.04
-0.02
-0.04
-0.045
-0.045
-0.05
-0.05
-0.045
-0.055
-0.005
0.035
0.07
0.085
0.12
0.095
0.06
0.0
-0.005
-0.075
-0.1
-0.125
-0.105
-0.115
-0.09
-0.115
-0.11
-0.095
0.19
0.52
-0.25
-0.405
-0.22
-0.105
-0.09
-0.115
-0.1
-0.12
-0.095
-0.09
-0.085
-0.085
-0.065
-0.06
-0.045
-0.03
-0.015
0.0
0.02
0.045
0.09
0.115
0.175
0.195
0.24
0.255
0.275
0.275
0.305
0.27
0.2
0.13
0.08
0.03
-0.005
-0.025
-0.045
-0.045
-0.035
-0.04
-0.02
-0.025
-0.035
-0.015
-0.03
-0.025
-0.045
-0.025
-0.04
-0.04
-0.045
-0.04
-0.07
-0.05
-0.06
-0.055
-0.035
0.03
0.04
0.075
0.08
0.11
0.08
0.015
-0.02
-0.045
-0.105
-0.1
-0.12
-0.105
-0.125
-0.095
-0.13
-0.09
-0.05
0.215
0.36
-0.475
-0.385
-0.19
-0.085
-0.1
-0.125
-0.09
-0.105
-0.105
-0.105
-0.08
-0.08
-0.06
-0.065
-0.035
-0.035
0.0
0.01
0.045
0.055
0.13
0.145
0.205
0.205
0.24
0.28
0.305
0.325
0.305
0.25
0.19
0.105
0.03
0.015
-0.01
-0.02
-0.04
-0.04
-0.045
-0.025
-0.04
-0.025
-0.035
0.0
-0.01
-0.02
-0.025
-0.025
-0.03
-0.025
-0.045
-0.03
-0.04
-0.045
-0.01
0.065
0.05
0.08
0.115
0.135
0.11
0.03
0.015
-0.03
-0.105
-0.08
-0.095
-0.085
-0.105
-0.075
-0.11
-0.03
0.01
0.285
0.345
-0.395
-0.32
-0.19
-0.075
-0.08
-0.105
-0.065
-0.095
-0.085
-0.07
-0.055
-0.065
-0.035
-0.035
-0.01
-0.01
0.0
0.03
0.055
0.09
0.135
0.16
0.195
0.24
0.28
0.29
0.32
0.33
0.31
0.255
0.185
0.115
0.06
0.005
-0.01
-0.035
-0.015
-0.015
-0.03
-0.035
-0.02
-0.005
-0.01
0.0
-0.025
-0.01
-0.035
-0.025
-0.02
-0.03
-0.025
-0.045
-0.05
-0.03
-0.025
0.05
0.045
0.085
0.08
0.125
0.105
0.02
-0.01
-0.025
-0.11
-0.09
-0.105
-0.08
-0.115
-0.095
-0.115
-0.05
0.015
0.335
0.5
-0.365
-0.315
-0.15
-0.06
-0.075
-0.09
-0.09
-0.1
-0.075
-0.1
-0.055
-0.065
-0.05
-0.05
-0.025
-0.025
0.01
0.025
0.065
0.07
0.12
0.135
0.18
0.225
0.26
0.28
0.29
0.295
0.3
0.245
0.175
0.09
0.04
0.0
-0.005
-0.025
-0.035
-0.035
-0.05
-0.02
-0.04
-0.03
-0.025
-0.015
-0.03
-0.035
-0.03
-0.035
-0.03
-0.045
-0.045
-0.055
-0.065
-0.06
-0.02
0.055
0.06
0.07
0.12
0.1
0.075
0.005
0.015
-0.075
-0.1
-0.125
-0.11
-0.095
-0.1
-0.12
-0.105
-0.08
0.12
0.415
-0.105
-0.425
-0.275
-0.115
-0.08
-0.1
-0.105
-0.105
-0.1
-0.095
-0.09
-0.08
-0.065
-0.075
-0.05
-0.04
-0.015
0.0
0.025
0.04
0.08
0.12
0.15
0.18
0.22
0.25
0.26
0.28
0.295
0.26
0.205
0.13
0.06
0.005
-0.025
-0.035
-0.04
-0.045
-0.055
-0.04
-0.045
-0.04
-0.045
-0.04
-0.05
-0.025
-0.04
-0.035
-0.05
-0.06
-0.06
-0.04
-0.08
-0.065
-0.035
0.04
0.035
0.08
0.085
0.11
0.08
0.01
0.0
-0.05
-0.105
-0.105
-0.13
-0.1
-0.12
-0.115
-0.145
-0.045
0.02
0.23
0.305
-0.445
-0.35
-0.19
-0.09
-0.11
-0.12
-0.09
-0.12
-0.085
-0.09
-0.08
-0.085
-0.045
-0.04
-0.015
-0.045
0.0
0.005
0.065
0.085
0.105
0.14
0.18
0.22
0.27
0.295
0.29
0.29
0.3
0.25
0.18
0.085
0.025
-0.005
-0.035
-0.05
-0.05
-0.03
-0.075
-0.065
-0.015
-0.035
-0.055
-0.03
-0.04
-0.035
-0.06
-0.035
-0.075
-0.055
-0.06
-0.07
-0.045
0.005
0.045
0.045
0.055
0.11
0.085
0.07
-0.035
-0.01
-0.1
-0.11
-0.125
-0.095
-0.13
-0.115
-0.135
-0.075
-0.035
0.215
0.57
-0.325
-0.325
-0.185
-0.12
-0.115
-0.13
-0.095
-0.12
-0.085
-0.105
-0.085
-0.1
-0.07
-0.065
-0.04
-0.07
-0.025
-0.01
0.025
0.05
0.075
0.105
0.18
0.185
0.23
0.255
0.27
0.29
0.28
0.255
0.175
0.095
0.05
0.005
-0.015
-0.045
-0.045
-0.055
-0.045
-0.06
-0.03
-0.045
-0.035
-0.035
-0.05
-0.02
-0.055
-0.04
-0.04
-0.075
-0.05
-0.065
-0.07
-0.035
0.02
0.035
0.08
0.075
0.12
0.085
0.015
-0.025
-0.045
-0.105
-0.105
-0.115
-0.105
-0.13
-0.115
-0.12
-0.07
0.05
0.355
0.365
-0.45
-0.33
-0.14
-0.08
-0.085
-0.12
-0.11
-0.12
-0.095
-0.11
-0.085
-0.08
-0.065
-0.07
-0.035
-0.035
-0.005
0.01
0.05
0.06
0.095
0.125
0.175
0.2
0.245
0.26
0.28
0.29
0.27
0.215
0.155
0.08
0.025
-0.005
-0.01
-0.025
-0.05
-0.04
-0.04
-0.035
-0.045
-0.04
-0.05
-0.025
-0.045
-0.02
-0.04
-0.05
-0.06
-0.045
-0.07
-0.06
-0.045
0.03
0.05
0.065
0.075
0.115
0.085
0.035
-0.01
-0.015
-0.105
-0.105
-0.125
-0.095
-0.12
-0.1
-0.135
-0.09
-0.05
0.21
0.425
-0.48
-0.39
-0.19
-0.065
-0.09
-0.125
-0.095
-0.12
-0.095
-0.1
-0.085
-0.1
-0.075
-0.065
-0.03
-0.03
0.0
-0.005
0.02
0.05
0.095
0.12
0.165
0.195
0.24
0.25
0.265
0.255
0.265
0.235
0.165
0.085
0.035
0.0
-0.015
-0.025
-0.035
-0.035
-0.045
-0.045
-0.035
-0.035
-0.025
-0.02
-0.03
-0.035
-0.035
-0.045
-0.025
-0.03
-0.05
-0.025
-0.03
0.015
0.06
0.075
0.06
0.12
0.1
0.065
0.0
0.005
-0.075
-0.1
-0.115
-0.1
-0.105
-0.1
-0.105
-0.085
-0.045
0.17
0.445
-0.225
-0.41
-0.255
-0.14
-0.09
-0.085
-0.1
-0.095
-0.06
-0.09
-0.07
-0.06
-0.06
-0.045
-0.015
-0.02
0.0
0.02
0.045
0.05
0.1
0.13
0.185
0.2
0.235
0.255
0.28
0.315
0.3
0.26
0.215
0.125
0.08
0.03
0.0
-0.04
-0.045
-0.04
-0.03
-0.005
-0.045
-0.035
-0.035
-0.02
-0.02
0.0
-0.06
-0.035
-0.045
-0.045
-0.065
-0.02
-0.015
0.0
0.04
0.065
0.06
0.145
0.085
0.035
-0.005
0.0
-0.085
-0.1
-0.135
-0.1
-0.115
-0.115
-0.125
-0.07
-0.045
0.255
0.585
-0.345
-0.335
-0.19
-0.1
-0.095
-0.115
-0.08
-0.12
-0.115
-0.105
-0.065
-0.08
-0.055
-0.09
-0.045
-0.02
0.0
0.0
0.045
0.05
0.11
0.13
0.18
0.215
0.25
0.25
0.27
0.285
0.275
0.25
0.17
0.095
0.045
0.0
-0.045
-0.05
-0.045
-0.03
-0.035
-0.045
-0.025
-0.03
-0.04
-0.035
-0.045
-0.025
-0.04
-0.06
-0.055
-0.045
-0.055
-0.065
-0.06
-0.015
0.04
0.06
0.055
0.115
0.09
0.065
0.0
0.01
-0.09
-0.11
-0.12
-0.1
-0.12
-0.11
-0.105
-0.1
-0.06
0.21
0.535
-0.175
-0.385
-0.225
-0.11
-0.09
-0.105
-0.105
-0.115
-0.09
-0.105
-0.095
-0.075
-0.06
-0.075
-0.04
-0.035
-0.015
0.0
0.025
0.05
0.085
0.11
0.165
0.18
0.23
0.25
0.26
0.285
0.27
0.235
0.175
0.125
0.075
0.015
-0.02
-0.03
-0.025
-0.025
-0.04
-0.035
-0.045
-0.035
-0.035
-0.025
-0.03
-0.025
-0.035
-0.03
-0.045
-0.06
-0.055
-0.055
-0.045
0.005
0.04
0.05
0.065
0.12
0.075
0.045
-0.02
-0.015
-0.09
-0.115
-0.125
-0.105
-0.145
-0.12
-0.135
-0.105
-0.085
0.165
0.465
-0.34
-0.405
-0.22
-0.105
-0.09
-0.125
-0.11
-0.125
-0.11
-0.125
-0.09
-0.095
-0.07
-0.07
-0.05
-0.04
-0.015
-0.005
0.015
0.04
0.085
0.115
0.165
0.19
0.215
0.23
0.265
0.275
0.275
0.235
0.165
0.09
0.04
-0.01
-0.035
-0.05
-0.055
-0.045
-0.055
-0.055
-0.05
-0.06
-0.055
-0.05
-0.035
-0.045
-0.05
-0.065
-0.05
-0.055
-0.055
-0.06
-0.07
-0.045
0.01
0.025
0.055
0.065
0.125
0.075
0.03
-0.025
-0.025
-0.095
-0.1
-0.14
-0.1
-0.125
-0.105
-0.13
-0.09
-0.08
0.165
0.48
-0.38
-0.365
-0.21
-0.1
-0.1
-0.13
-0.095
-0.095
-0.07
-0.105
-0.075
-0.085
-0.06
-0.055
-0.035
-0.02
-0.01
0.005
0.045
0.05
0.115
0.125
0.185
0.2
0.235
0.25
0.29
0.29
0.265
0.235
0.18
0.105
0.04
-0.005
-0.025
-0.04
-0.045
-0.05
-0.02
-0.045
-0.05
-0.045
0.0
-0.025
-0.035
-0.045
-0.025
-0.045
-0.065
-0.06
-0.055
-0.09
-0.065
-0.04
0.015
0.02
0.055
0.07
0.12
0.085
0.03
-0.035
-0.065
-0.12
-0.125
-0.13
-0.12
-0.125
-0.105
-0.145
-0.07
-0.02
0.225
0.425
-0.39
-0.32
-0.205
-0.1
-0.105
-0.105
-0.09
-0.135
-0.09
-0.105
-0.075
-0.085
-0.065
-0.06
-0.02
-0.035
-0.01
0.02
0.05
0.065
0.11
0.115
0.17
0.21
0.23
0.25
0.285
0.28
0.26
0.21
0.155
0.07
0.03
0.0
-0.03
-0.035
-0.045
-0.055
-0.05
-0.045
-0.04
-0.035
-0.035
-0.03
-0.025
-0.04
-0.05
-0.05
-0.055
-0.055
-0.06
-0.065
-0.065
-0.05
-0.06
0.0
0.035
0.055
0.065
0.115
0.09
0.06
0.015
0.0
-0.075
-0.115
-0.11
-0.105
-0.12
-0.105
-0.105
-0.1
-0.09
0.13
0.43
-0.16
-0.37
-0.235
-0.12
-0.085
-0.11
-0.1
-0.105
-0.09
-0.1
-0.085
-0.075
-0.07
-0.07
-0.04
-0.03
-0.01
0.0
0.025
0.055
0.09
0.125
0.16
0.185
0.22
0.245
0.28
0.28
0.28
0.255
0.205
0.135
0.065
0.01
-0.005
-0.025
-0.03
-0.025
-0.025
-0.025
-0.035
-0.02
-0.025
-0.005
-0.01
-0.005
-0.005
-0.015
-0.035
-0.02
-0.035
-0.045
-0.045
-0.035
-0.05
-0.045
-0.04
0.035
0.05
0.08
0.075
0.14
0.095
0.04
-0.015
-0.02
-0.085
-0.085
-0.11
-0.085
-0.13
-0.105
-0.11
-0.08
-0.065
0.17
0.485
-0.35
-0.35
-0.2
-0.115
-0.09
-0.105
-0.1
-0.125
-0.08
-0.105
-0.09
-0.08
-0.055
-0.075
-0.035
-0.03
-0.02
0.0
0.035
0.07
0.105
0.115
0.16
0.2
0.235
0.26
0.28
0.275
0.29
0.245
0.18
0.11
0.06
0.01
-0.02
-0.035
-0.04
-0.055
-0.03
-0.035
-0.035
-0.035
-0.015
-0.03
-0.025
-0.02
-0.03
-0.05
-0.02
-0.03
-0.06
-0.04
-0.05
-0.07
-0.05
-0.065
-0.01
0.06
0.045
0.055
0.12
0.11
0.07
0.0
-0.025
-0.09
-0.1
-0.09
-0.095
-0.115
-0.115
-0.105
-0.1
-0.06
0.105
0.445
0.0
-0.375
-0.26
-0.16
-0.1
-0.09
-0.115
-0.125
-0.105
-0.085
-0.075
-0.09
-0.08
-0.045
-0.04
-0.04
-0.025
-0.01
0.02
0.035
0.07
0.12
0.145
0.175
0.205
0.225
0.25
0.265
0.275
0.255
0.215
0.135
0.075
0.03
-0.005
-0.025
-0.045
-0.04
-0.05
-0.04
-0.04
-0.035
-0.03
-0.025
-0.02
-0.025
-0.04
-0.035
-0.03
-0.025
-0.06
-0.06
-0.06
-0.065
-0.075
-0.06
-0.035
0.025
0.035
0.07
0.075
0.135
0.09
0.035
-0.01
-0.005
-0.09
-0.105
-0.13
-0.095
-0.12
-0.09
-0.12
-0.07
-0.025
0.265
0.505
-0.38
-0.345
-0.17
-0.055
-0.085
-0.12
-0.11
-0.11
-0.1
-0.1
-0.07
-0.085
-0.055
-0.065
-0.025
-0.04
-0.005
0.0
0.035
0.055
0.105
0.125
0.175
0.185
0.23
0.245
0.26
0.265
0.245
0.225
0.16
0.095
0.04
0.0
-0.02
-0.045
-0.045
-0.04
-0.035
-0.025
-0.025
-0.025
-0.03
-0.04
-0.035
-0.035
-0.03
-0.025
-0.045
-0.04
-0.05
-0.055
-0.07
-0.07
-0.075
-0.065
-0.03
0.03
0.035
0.065
0.11
0.1
0.075
0.0
-0.005
-0.075
-0.11
-0.105
-0.105
-0.115
-0.11
-0.1
-0.13
-0.08
0.05
0.285
0.015
-0.41
-0.28
-0.14
-0.075
-0.105
-0.105
-0.105
-0.11
-0.1
-0.095
-0.07
-0.07
-0.065
-0.05
-0.03
-0.015
0.005
0.01
0.055
0.07
0.125
0.15
0.18
0.21
0.235
0.265
0.29
0.28
0.265
0.215
0.145
0.09
0.03
-0.005
-0.035
-0.04
-0.03
-0.035
-0.04
-0.025
-0.035
-0.025
-0.01
-0.02
-0.025
-0.01
-0.04
-0.025
-0.03
-0.04
-0.05
-0.045
-0.055
-0.065
-0.04
0.04
0.045
0.095
0.075
0.12
0.105
0.04
0.0
-0.02
-0.105
-0.08
-0.1
-0.085
-0.12
-0.095
-0.12
-0.045
-0.03
0.19
0.44
-0.375
-0.315
-0.2
-0.11
-0.095
-0.105
-0.09
-0.105
-0.075
-0.1
-0.085
-0.075
-0.04
-0.03
-0.04
-0.025
0.015
0.02
0.065
0.055
0.11
0.14
0.2
0.235
0.235
0.245
0.3
0.295
0.29
0.25
0.18
0.085
0.06
0.01
-0.015
-0.03
-0.04
-0.025
-0.025
-0.03
-0.04
-0.01
-0.015
-0.02
-0.03
-0.03
-0.05
-0.025
-0.03
-0.055
-0.065
-0.045
-0.065
-0.055
-0.05
-0.01
0.035
0.065
0.05
0.12
0.085
0.05
-0.02
-0.01
-0.08
-0.115
-0.135
-0.1
-0.14
-0.1
-0.13
-0.075
-0.055
0.205
0.56
-0.29
-0.345
-0.22
-0.13
-0.095
-0.105
-0.105
-0.125
-0.085
-0.095
-0.07
-0.075
-0.055
-0.045
-0.025
-0.035
0.005
0.0
0.045
0.055
0.085
0.13
0.16
0.205
0.24
0.245
0.265
0.28
0.28
0.245
0.19
0.12
0.065
0.005
0.0
-0.02
-0.04
-0.04
-0.01
-0.02
-0.02
-0.02
-0.025
-0.02
-0.015
-0.02
-0.02
-0.035
-0.03
-0.045
-0.04
-0.05
-0.065
-0.065
-0.065
-0.03
0.04
0.055
0.07
0.11
0.105
0.08
0.01
0.01
-0.065
-0.1
-0.105
-0.115
-0.085
-0.11
-0.095
-0.11
-0.06
0.08
0.33
0.065
-0.375
-0.25
-0.115
-0.06
-0.09
-0.095
-0.095
-0.095
-0.09
-0.085
-0.085
-0.07
-0.055
-0.045
-0.02
-0.005
0.01
0.03
0.06
0.08
0.11
0.16
0.195
0.215
0.25
0.26
0.275
0.28
0.255
0.205
0.145
0.08
0.025
-0.005
-0.02
-0.03
-0.05
-0.045
-0.03
-0.035
-0.03
-0.025
-0.015
-0.02
-0.03
-0.04
-0.04
-0.035
-0.045
-0.05
-0.055
-0.055
-0.05
-0.045
-0.015
0.05
0.065
0.07
0.105
0.095
0.09
0.01
0.005
-0.065
-0.1
-0.1
-0.11
-0.11
-0.105
-0.095
-0.1
-0.065
0.065
0.3
-0.005
-0.395
-0.26
-0.14
-0.08
-0.09
-0.11
-0.1
-0.09
-0.08
-0.08
-0.075
-0.07
-0.055
-0.035
-0.025
0.0
0.01
0.04
0.06
0.09
0.12
0.155
0.215
0.225
0.26
0.265
0.295
0.29
0.265
0.225
0.15
0.085
0.015
-0.005
-0.025
-0.04
-0.025
-0.025
-0.035
-0.03
-0.035
-0.025
-0.025
-0.03
-0.02
-0.04
-0.03
-0.05
-0.045
-0.065
-0.035
-0.06
-0.055
-0.03
0.045
0.045
0.05
0.105
0.105
0.095
0.0
0.0
-0.08
-0.11
-0.105
-0.11
-0.13
-0.115
-0.095
-0.105
-0.055
0.085
0.35
0.065
-0.39
-0.275
-0.15
-0.12
-0.11
-0.11
-0.09
-0.09
-0.1
-0.09
-0.065
-0.08
-0.055
-0.045
-0.025
-0.015
0.01
0.02
0.045
0.095
0.11
0.145
0.19
0.23
0.235
0.265
0.28
0.28
0.28
0.205
0.15
0.07
0.005
-0.015
-0.025
-0.035
-0.035
-0.045
-0.035
-0.04
-0.025
-0.02
-0.025
-0.035
-0.035
-0.035
-0.035
-0.045
-0.04
-0.055
-0.04
-0.055
-0.05
-0.025
0.035
0.05
0.075
0.09
0.125
0.095
0.02
0.0
-0.025
-0.095
-0.095
-0.115
-0.1
-0.115
-0.1
-0.11
-0.06
0.02
0.29
0.355
-0.38
-0.31
-0.165
-0.075
-0.095
-0.105
-0.095
-0.11
-0.09
-0.1
-0.075
-0.075
-0.055
-0.065
-0.035
-0.03
0.005
0.015
0.06
0.08
0.11
0.145
0.19
0.205
0.24
0.25
0.27
0.275
0.265
0.21
0.15
0.08
0.03
-0.005
-0.03
-0.045
-0.035
-0.03
-0.02
-0.035
-0.035
-0.02
-0.015
-0.03
-0.025
-0.025
-0.025
-0.035
-0.04
-0.05
-0.045
-0.06
-0.06
-0.05
0.01
0.035
0.06
0.06
0.125
0.09
0.065
-0.005
-0.005
-0.085
-0.11
-0.12
-0.095
-0.11
-0.105
-0.125
-0.075
-0.075
0.175
0.44
-0.44
-0.425
-0.22
-0.09
-0.09
-0.12
-0.105
-0.12
-0.09
-0.1
-0.08
-0.085
-0.06
-0.065
-0.04
-0.03
-0.01
0.005
0.025
0.05
0.1
0.125
0.18
0.205
0.24
0.25
0.275
0.285
0.27
0.23
0.17
0.1
0.045
0.0
-0.02
-0.035
-0.05
-0.04
-0.055
-0.045
-0.045
-0.04
-0.035
-0.04
-0.04
-0.04
-0.05
-0.035
-0.04
-0.045
-0.065
-0.06
-0.075
-0.065
-0.05
0.03
0.035
0.06
0.07
0.115
0.085
0.015
-0.02
-0.055
-0.115
-0.1
-0.11
-0.1
-0.115
-0.11
-0.125
-0.055
-0.02
0.205
0.335
-0.45
-0.37
-0.205
-0.09
-0.1
-0.115
-0.09
-0.12
-0.1
-0.1
-0.065
-0.08
-0.04
-0.05
-0.03
-0.035
0.0
0.025
0.055
0.075
0.1
0.14
0.205
0.205
0.24
0.28
0.29
0.3
0.28
0.23
0.155
0.085
0.035
-0.015
-0.03
-0.04
-0.06
-0.06
-0.055
-0.04
-0.03
-0.04
-0.04
-0.05
-0.05
-0.045
-0.05
-0.045
-0.04
-0.06
-0.05
-0.08
-0.065
-0.055
-0.01
0.035
0.045
0.04
0.12
0.08
0.045
-0.015
-0.015
-0.1
-0.1
-0.135
-0.115
-0.115
-0.12
-0.11
-0.095
-0.08
0.095
0.445
-0.18
-0.375
-0.275
-0.185
-0.115
-0.125
-0.11
-0.12
-0.11
-0.1
-0.08
-0.09
-0.045
-0.065
-0.03
-0.045
-0.005
0.015
0.01
0.065
0.095
0.12
0.155
0.195
0.245
0.265
0.29
0.285
0.3
0.265
0.19
0.14
0.06
-0.01
-0.025
-0.03
-0.045
-0.065
-0.045
-0.025
-0.035
-0.045
-0.045
-0.03
-0.03
-0.03
-0.035
-0.035
-0.04
-0.05
-0.045
-0.045
-0.05
-0.06
-0.055
-0.015
0.045
0.05
0.055
0.115
0.095
0.065
0.0
-0.005
-0.07
-0.105
-0.115
-0.105
-0.11
-0.115
-0.115
-0.105
-0.065
0.13
0.47
-0.055
-0.365
-0.25
-0.14
-0.085
-0.095
-0.1
-0.1
-0.08
-0.08
-0.085
-0.07
-0.055
-0.065
-0.045
-0.025
-0.01
0.005
0.04
0.06
0.1
0.12
0.165
0.195
0.24
0.255
0.275
0.28
0.295
0.26
0.195
0.125
0.06
0.01
-0.025
-0.04
-0.045
-0.045
-0.05
-0.04
-0.045
-0.03
-0.025
-0.025
-0.025
-0.03
-0.035
-0.025
-0.025
-0.035
-0.05
-0.04
-0.05
-0.05
-0.06
-0.07
-0.04
0.04
0.035
0.065
0.075
0.11
0.09
0.025
-0.005
-0.03
-0.115
-0.1
-0.11
-0.085
-0.105
-0.085
-0.115
-0.05
-0.025
0.21
0.31
-0.485
-0.375
-0.17
-0.06
-0.085
-0.11
-0.075
-0.09
-0.075
-0.085
-0.07
-0.07
-0.05
-0.045
-0.025
-0.015
0.005
0.02
0.055
0.065
0.12
0.155
0.195
0.225
0.265
0.285
0.3
0.3
0.29
0.245
0.17
0.105
0.045
0.0
-0.025
-0.04
-0.045
-0.05
-0.04
-0.04
-0.035
-0.03
-0.035
-0.03
-0.035
-0.03
-0.04
-0.035
-0.04
-0.05
-0.06
-0.06
-0.065
-0.05
-0.07
-0.065
-0.04
0.03
0.02
0.055
0.06
0.09
0.075
0.0
-0.025
-0.065
-0.125
-0.095
-0.125
-0.105
-0.14
-0.1
-0.12
-0.075
-0.04
0.195
0.32
-0.465
-0.38
-0.215
-0.115
-0.11
-0.105
-0.11
-0.125
-0.1
-0.115
-0.075
-0.08
-0.065
-0.06
-0.025
-0.03
0.01
0.0
0.05
0.07
0.115
0.14
0.195
0.235
0.275
0.275
0.3
0.3
0.305
0.25
0.185
0.09
0.035
0.015
-0.015
-0.035
-0.05
-0.035
-0.03
-0.035
-0.045
-0.025
-0.03
-0.025
0.0
-0.03
-0.02
-0.02
-0.035
-0.04
-0.02
-0.04
-0.04
-0.045
-0.045
-0.05
0.005
0.065
0.065
0.065
0.135
0.11
0.075
0.015
-0.01
-0.07
-0.085
-0.12
-0.09
-0.095
-0.08
-0.11
-0.085
-0.07
0.1
0.465
-0.135
-0.37
-0.27
-0.195
-0.12
-0.105
-0.095
-0.105
-0.085
-0.1
-0.09
-0.075
-0.06
-0.065
-0.04
-0.02
0.0
0.0
0.025
0.065
0.095
0.13
0.17
0.21
0.255
0.265
0.31
0.31
0.335
0.295
0.22
0.145
0.08
0.025
0.0
-0.015
-0.06
-0.045
-0.045
-0.035
-0.04
-0.01
-0.015
-0.02
-0.015
-0.01
-0.03
-0.025
-0.035
-0.02
-0.045
-0.035
-0.04
-0.04
-0.055
-0.05
-0.05
0.01
0.045
0.06
0.055
0.13
0.1
0.055
-0.005
0.0
-0.1
-0.105
-0.105
-0.105
-0.135
-0.085
-0.11
-0.1
-0.09
0.15
0.525
-0.255
-0.385
-0.24
-0.135
-0.1
-0.11
-0.105
-0.115
-0.09
-0.105
-0.085
-0.085
-0.065
-0.065
-0.04
-0.045
-0.005
0.0
0.02
0.055
0.105
0.11
0.17
0.205
0.24
0.27
0.27
0.28
0.295
0.255
0.195
0.125
0.06
0.01
-0.015
-0.05
-0.045
-0.045
-0.045
-0.04
-0.045
-0.045
-0.025
-0.025
-0.025
-0.035
-0.03
-0.03
-0.03
-0.04
-0.05
-0.045
-0.05
-0.045
-0.06
-0.06
-0.055
-0.05
0.01
0.04
0.055
0.065
0.13
0.095
0.05
0.0
0.0
-0.08
-0.1
-0.11
-0.095
-0.11
-0.095
-0.11
-0.1
-0.1
0.14
0.45
-0.31
-0.435
-0.27
-0.135
-0.07
-0.105
-0.09
-0.105
-0.085
-0.1
-0.075
-0.065
-0.065
-0.05
-0.03
-0.025
0.0
0.0
0.045
0.06
0.105
0.12
0.18
0.215
0.25
0.27
0.285
0.31
0.31
0.28
0.225
0.15
0.07
0.015
-0.005
-0.025
-0.04
-0.05
-0.04
-0.045
-0.04
-0.03
-0.025
-0.02
-0.025
-0.02
-0.01
-0.02
-0.035
-0.02
-0.04
-0.04
-0.035
-0.035
-0.055
-0.04
-0.06
-0.045
-0.015
0.04
0.055
0.08
0.1
0.11
0.075
0.015
-0.005
-0.05
-0.115
-0.085
-0.1
-0.09
-0.095
-0.085
-0.105
-0.065
0.005
0.285
0.26
-0.435
-0.34
-0.2
-0.1
-0.075
-0.1
-0.085
-0.095
-0.065
-0.09
-0.055
-0.065
-0.045
-0.04
-0.025
-0.005
0.015
0.005
0.055
0.085
0.135
0.145
0.18
0.22
0.27
0.29
0.315
0.32
0.3
0.245
0.175
0.115
0.05
0.005
-0.035
-0.055
-0.03
-0.03
-0.04
-0.045
-0.05
-0.03
-0.03
-0.02
-0.015
-0.015
-0.035
-0.04
-0.035
-0.04
-0.06
-0.035
-0.065
-0.06
-0.07
-0.065
-0.045
0.055
0.025
0.05
0.075
0.135
0.09
0.0
-0.015
-0.045
-0.11
-0.1
-0.11
-0.085
-0.115
-0.095
-0.11
-0.055
0.01
0.305
0.405
-0.415
-0.32
-0.21
-0.11
-0.095
-0.11
-0.08
-0.13
-0.085
-0.08
-0.07
-0.07
-0.07
-0.05
-0.015
-0.035
0.0
0.01
0.065
0.075
0.115
0.14
0.175
0.22
0.28
0.3
0.32
0.34
0.305
0.265
0.205
0.13
0.045
0.005
0.005
-0.035
-0.045
-0.035
-0.05
-0.035
-0.025
-0.025
-0.015
-0.02
-0.02
-0.01
-0.02
-0.03
-0.03
-0.04
-0.045
-0.025
-0.04
-0.05
-0.05
-0.055
-0.04
0.05
0.05
0.085
0.07
0.125
0.11
0.045
0.0
-0.015
-0.095
-0.09
-0.085
-0.09
-0.1
-0.08
-0.115
-0.065
-0.035
0.285
0.525
-0.41
-0.345
-0.165
-0.075
-0.07
-0.105
-0.09
-0.095
-0.075
-0.095
-0.055
-0.07
-0.04
-0.06
-0.03
-0.035
0.0
0.005
0.06
0.065
0.11
0.13
0.175
0.215
0.26
0.275
0.295
0.3
0.295
0.255
0.19
0.115
0.045
0.01
-0.01
-0.02
-0.035
-0.04
-0.045
-0.04
-0.045
-0.02
-0.025
-0.02
-0.02
-0.02
-0.02
-0.025
-0.04
-0.045
-0.055
-0.045
-0.05
-0.05
-0.055
-0.05
-0.05
0.005
0.045
0.05
0.055
0.125
0.09
0.05
0.0
0.0
-0.1
-0.095
-0.115
-0.095
-0.115
-0.09
-0.115
-0.1
-0.1
0.145
0.44
-0.385
-0.465
-0.275
-0.13
-0.085
-0.105
-0.1
-0.11
-0.085
-0.1
-0.085
-0.09
-0.055
-0.065
-0.05
-0.035
0.0
0.0
0.03
0.05
0.09
0.115
0.18
0.21
0.235
0.265
0.305
0.315
0.3
0.275
0.22
0.14
0.065
0.03
-0.02
-0.035
-0.035
-0.035
-0.055
-0.05
-0.05
-0.045
-0.025
-0.04
-0.025
-0.02
-0.02
-0.035
-0.035
-0.05
-0.03
-0.055
-0.06
-0.06
-0.045
-0.05
0.005
0.03
0.065
0.075
0.125
0.085
0.03
-0.025
-0.025
-0.115
-0.1
-0.115
-0.105
-0.135
-0.085
-0.12
-0.065
-0.075
0.165
0.515
-0.355
-0.4
-0.275
-0.14
-0.095
-0.1
-0.105
-0.125
-0.09
-0.085
-0.055
-0.065
-0.085
-0.06
-0.03
-0.03
-0.005
0.015
0.04
0.055
0.1
0.145
0.195
0.205
0.275
0.28
0.32
0.32
0.32
0.27
0.205
0.125
0.07
0.0
-0.01
-0.03
-0.035
-0.045
-0.03
-0.03
-0.035
-0.045
-0.04
-0.03
-0.015
-0.035
-0.05
-0.045
-0.025
-0.045
-0.065
-0.07
-0.05
-0.05
-0.075
-0.055
0.03
0.03
0.055
0.085
0.105
0.085
0.0
-0.01
-0.05
-0.11
-0.11
-0.12
-0.1
-0.105
-0.11
-0.14
-0.055
0.04
0.36
0.355
-0.385
-0.33
-0.19
-0.085
-0.08
-0.115
-0.11
-0.1
-0.085
-0.115
-0.08
-0.07
-0.045
-0.075
-0.035
-0.03
0.005
0.0
0.04
0.07
0.095
0.14
0.175
0.2
0.25
0.28
0.31
0.32
0.285
0.235
0.155
0.095
0.05
0.005
-0.015
-0.055
-0.06
-0.05
-0.045
-0.04
-0.01
-0.04
-0.035
-0.02
-0.05
-0.03
-0.035
-0.04
-0.055
-0.035
-0.05
-0.04
-0.065
-0.05
-0.06
0.015
0.055
0.08
0.07
0.13
0.09
0.055
0.0
-0.015
-0.1
-0.105
-0.12
-0.095
-0.105
-0.09
-0.11
-0.08
-0.05
0.24
0.55
-0.395
-0.41
-0.185
-0.065
-0.075
-0.095
-0.095
-0.105
-0.08
-0.09
-0.05
-0.07
-0.045
-0.055
-0.025
-0.025
-0.01
0.0
0.045
0.065
0.11
0.125
0.185
0.21
0.245
0.255
0.29
0.295
0.295
0.255
0.18
0.115
0.06
0.0
-0.02
-0.04
-0.04
-0.045
-0.05
-0.04
-0.05
-0.045
-0.04
-0.035
-0.04
-0.035
-0.04
-0.04
-0.045
-0.05
-0.06
-0.07
-0.075
-0.065
-0.075
-0.065
-0.045
0.03
0.015
0.06
0.075
0.09
0.07
0.01
-0.01
-0.055
-0.115
-0.105
-0.13
-0.115
-0.125
-0.105
-0.14
-0.075
-0.025
0.215
0.24
-0.495
-0.395
-0.2
-0.085
-0.1
-0.12
-0.095
-0.1
-0.09
-0.11
-0.06
-0.075
-0.06
-0.06
-0.04
-0.005
0.01
0.01
0.045
0.06
0.1
0.15
0.185
0.225
0.265
0.265
0.28
0.29
0.315
0.24
0.17
0.09
0.02
-0.01
-0.04
-0.05
-0.04
-0.045
-0.055
-0.055
-0.07
-0.055
-0.035
-0.015
-0.02
-0.055
-0.055
-0.035
-0.055
-0.025
-0.07
-0.06
-0.065
-0.075
-0.065
0.015
0.03
0.04
0.03
0.115
0.07
0.055
-0.035
-0.035
-0.11
-0.11
-0.125
-0.12
-0.125
-0.11
-0.12
-0.1
-0.08
0.135
0.505
-0.265
-0.4
-0.265
-0.18
-0.11
-0.085
-0.115
-0.105
-0.085
-0.1
-0.07
-0.09
-0.055
-0.06
-0.035
-0.02
-0.035
0.005
0.045
0.065
0.085
0.11
0.155
0.205
0.26
0.265
0.285
0.31
0.315
0.285
0.22
0.125
0.08
0.02
-0.02
-0.06
-0.015
-0.06
-0.045
-0.04
-0.06
-0.02
-0.05
-0.06
-0.03
-0.03
-0.025
-0.04
-0.045
-0.07
-0.03
-0.045
-0.065
-0.075
-0.055
-0.035
0.03
0.04
0.06
0.08
0.125
0.095
0.025
-0.005
-0.04
-0.1
-0.085
-0.125
-0.095
-0.115
-0.105
-0.12
-0.07
-0.025
0.325
0.54
-0.395
-0.335
-0.185
-0.08
-0.085
-0.11
-0.08
-0.11
-0.09
-0.09
-0.06
-0.07
-0.05
-0.045
-0.025
-0.015
0.005
0.015
0.03
0.065
0.115
0.135
0.195
0.205
0.255
0.275
0.305
0.3
0.305
0.25
0.175
0.115
0.05
0.0
-0.015
-0.03
-0.025
-0.04
-0.035
-0.04
-0.045
-0.035
-0.02
-0.005
-0.02
-0.03
-0.03
-0.03
-0.045
-0.03
-0.06
-0.025
-0.05
-0.05
-0.055
0.02
0.055
0.07
0.07
0.125
0.11
0.055
0.0
0.0
-0.085
-0.1
-0.11
-0.1
-0.12
-0.09
-0.115
-0.1
-0.085
0.175
0.495
-0.365
-0.415
-0.24
-0.1
-0.075
-0.09
-0.085
-0.115
-0.075
-0.095
-0.065
-0.07
-0.05
-0.06
-0.03
-0.03
0.0
0.005
0.04
0.06
0.11
0.13
0.18
0.205
0.25
0.265
0.285
0.305
0.305
0.27
0.2
0.13
0.085
0.025
-0.005
-0.025
-0.03
-0.04
-0.025
-0.03
-0.02
-0.025
-0.02
-0.045
-0.025
-0.025
-0.025
-0.04
-0.035
-0.045
-0.05
-0.05
-0.045
-0.055
-0.07
-0.01
0.045
0.04
0.05
0.1
0.09
0.065
0.0
-0.015
-0.08
-0.145
-0.135
-0.12
-0.125
-0.135
-0.1
-0.095
-0.09
0.05
0.31
0.055
-0.425
-0.335
-0.195
-0.08
-0.125
-0.11
-0.1
-0.105
-0.1
-0.09
-0.09
-0.07
-0.05
-0.05
-0.03
-0.035
-0.01
0.015
0.035
0.08
0.105
0.11
0.175
0.235
0.235
0.265
0.285
0.27
0.28
0.22
0.165
0.07
0.015
-0.02
-0.065
-0.065
-0.06
-0.075
-0.065
-0.055
-0.065
-0.05
-0.04
-0.05
-0.055
-0.045
-0.065
-0.08
-0.045
-0.08
-0.06
-0.07
-0.07
-0.08
0.0
0.01
0.05
0.045
0.1
0.07
0.03
-0.04
-0.035
-0.12
-0.1
-0.11
-0.1
-0.145
-0.12
-0.115
-0.095
-0.07
0.19
0.545
-0.35
-0.38
-0.24
-0.14
-0.115
-0.13
-0.09
-0.09
-0.09
-0.105
-0.05
-0.075
-0.025
-0.06
-0.03
-0.03
0.005
0.025
0.065
0.06
0.095
0.11
0.175
0.2
0.245
0.265
0.275
0.29
0.28
0.24
0.18
0.11
0.08
0.05
-0.03
-0.055
-0.05
-0.025
-0.03
-0.06
-0.04
-0.045
-0.045
-0.04
-0.02
-0.07
-0.05
-0.05
-0.035
-0.075
-0.06
-0.065
-0.08
-0.08
-0.055
-0.05
0.045
0.035
0.06
0.085
0.115
0.085
0.01
-0.01
-0.055
-0.125
-0.105
-0.13
-0.1
-0.105
-0.11
-0.11
-0.055
0.035
0.34
0.33
-0.425
-0.335
-0.165
-0.085
-0.095
-0.115
-0.105
-0.1
-0.08
-0.11
-0.08
-0.095
-0.06
-0.05
-0.035
-0.055
0.0
0.005
0.035
0.05
0.1
0.135
0.155
0.2
0.245
0.275
0.285
0.285
0.275
0.225
0.16
0.1
0.04
0.0
-0.02
-0.045
-0.055
-0.055
-0.06
-0.05
-0.06
-0.05
-0.035
-0.045
-0.045
-0.035
-0.055
-0.05
-0.06
-0.065
-0.07
-0.055
-0.07
-0.06
-0.05
0.015
0.045
0.065
0.06
0.115
0.075
0.045
-0.01
0.0
-0.09
-0.105
-0.12
-0.105
-0.125
-0.1
-0.12
-0.105
-0.085
0.16
0.48
-0.285
-0.405
-0.25
-0.105
-0.09
-0.1
-0.09
-0.105
-0.08
-0.095
-0.07
-0.075
-0.055
-0.055
-0.03
-0.03
-0.005
0.0
0.035
0.055
0.1
0.135
0.17
0.185
0.245
0.25
0.265
0.29
0.295
0.25
0.205
0.125
0.075
0.025
-0.015
-0.025
-0.04
-0.045
-0.06
-0.035
-0.03
-0.025
-0.02
-0.03
-0.035
-0.04
-0.045
-0.03
-0.035
-0.04
-0.045
-0.06
-0.055
-0.04
-0.045
0.03
0.025
0.075
0.08
0.12
0.095
0.04
-0.005
-0.03
-0.105
-0.08
-0.12
-0.085
-0.14
-0.075
-0.11
-0.04
-0.045
0.205
0.5
-0.405
-0.37
-0.23
-0.12
-0.105
-0.1
-0.095
-0.105
-0.095
-0.105
-0.065
-0.07
-0.07
-0.045
-0.01
-0.035
-0.005
0.005
0.035
0.075
0.09
0.14
0.175
0.185
0.24
0.285
0.315
0.28
0.29
0.27
0.2
0.1
0.06
-0.02
-0.005
-0.03
-0.03
-0.065
-0.03
-0.04
-0.05
-0.03
-0.02
-0.045
-0.035
-0.04
-0.015
-0.03
-0.045
-0.055
-0.045
-0.06
-0.04
-0.05
0.0
0.03
0.06
0.065
0.145
0.115
0.065
0.0
0.0
-0.05
-0.115
-0.115
-0.11
-0.11
-0.1
-0.105
-0.085
-0.09
0.225
0.59
-0.185
-0.38
-0.21
-0.105
-0.07
-0.1
-0.09
-0.105
-0.08
-0.09
-0.065
-0.08
-0.075
-0.06
-0.025
-0.03
0.0
0.005
0.035
0.045
0.06
0.115
0.16
0.18
0.23
0.26
0.275
0.285
0.285
0.26
0.18
0.13
0.075
0.025
-0.025
-0.04
-0.04
-0.045
-0.03
-0.035
-0.045
-0.03
-0.04
-0.035
-0.03
-0.015
-0.03
-0.045
-0.05
-0.055
-0.055
-0.06
-0.05
-0.055
-0.04
0.035
0.045
0.07
0.105
0.11
0.105
0.005
0.0
-0.04
-0.105
-0.095
-0.085
-0.09
-0.105
-0.095
-0.105
-0.04
0.105
0.39
0.185
-0.445
-0.31
-0.125
-0.055
-0.095
-0.115
-0.09
-0.095
-0.085
-0.09
-0.07
-0.08
-0.065
-0.065
-0.03
-0.025
0.0
0.02
0.05
0.075
0.11
0.15
0.175
0.215
0.25
0.265
0.28
0.28
0.26
0.215
0.15
0.09
0.045
0.02
-0.02
-0.025
-0.03
-0.045
-0.035
-0.025
-0.02
-0.025
-0.015
-0.025
-0.02
-0.025
-0.03
-0.035
-0.035
-0.04
-0.05
-0.055
-0.05
-0.06
0.0
0.045
0.055
0.06
0.12
0.09
0.065
-0.005
0.0
-0.08
-0.11
-0.115
-0.115
-0.12
-0.105
-0.13
-0.105
-0.065
0.125
0.4
-0.19
-0.425
-0.27
-0.125
-0.08
-0.085
-0.105
-0.12
-0.105
-0.09
-0.08
-0.085
-0.065
-0.055
-0.045
-0.035
-0.005
0.015
0.02
0.065
0.085
0.095
0.17
0.21
0.215
0.23
0.27
0.285
0.29
0.245
0.2
0.135
0.075
0.015
0.0
-0.02
-0.04
-0.045
-0.035
-0.015
-0.01
-0.025
-0.035
-0.02
-0.035
-0.025
-0.025
-0.02
-0.045
-0.04
-0.055
-0.05
-0.05
-0.055
-0.025
0.055
0.04
0.06
0.11
0.115
0.07
0.02
0.005
-0.07
-0.115
-0.095
-0.095
-0.12
-0.12
-0.1
-0.105
-0.055
0.1
0.345
0.105
-0.38
-0.29
-0.185
-0.075
-0.09
-0.105
-0.105
-0.11
-0.08
-0.06
-0.085
-0.055
-0.065
-0.075
-0.025
0.005
0.025
0.015
0.05
0.065
0.11
0.14
0.19
0.215
0.235
0.265
0.275
0.275
0.27
0.215
0.14
0.09
0.01
-0.01
-0.03
-0.035
-0.03
-0.045
-0.04
-0.03
-0.015
-0.04
-0.015
-0.015
-0.04
-0.025
-0.045
-0.04
-0.035
-0.055
-0.035
-0.055
-0.07
-0.035
0.04
0.045
0.07
0.095
0.1
0.075
0.015
-0.005
-0.08
-0.115
-0.1
-0.125
-0.095
-0.1
-0.11
-0.12
-0.05
0.12
0.42
0.22
-0.38
-0.285
-0.145
-0.1
-0.085
-0.115
-0.1
-0.12
-0.1
-0.09
-0.075
-0.075
-0.055
-0.025
-0.035
-0.015
0.005
0.04
0.04
0.085
0.115
0.165
0.205
0.225
0.255
0.26
0.285
0.305
0.295
0.22
0.155
0.095
0.065
0.0
-0.02
-0.025
-0.01
-0.03
-0.015
-0.025
0.0
-0.03
0.005
-0.005
-0.02
-0.03
-0.015
-0.035
-0.015
-0.025
-0.035
-0.05
-0.035
-0.02
0.04
0.06
0.08
0.1
0.145
0.11
0.035
0.0
-0.005
-0.065
-0.085
-0.11
-0.085
-0.11
-0.075
-0.105
-0.055
0.015
0.32
0.455
-0.43
-0.345
-0.15
-0.055
-0.085
-0.105
-0.07
-0.1
-0.07
-0.08
-0.065
-0.065
-0.05
-0.045
-0.02
-0.015
0.025
0.02
0.045
0.08
0.105
0.14
0.175
0.205
0.24
0.26
0.27
0.265
0.265
0.23
0.17
0.11
0.055
0.015
0.005
0.0
-0.015
-0.01
-0.02
-0.02
-0.01
-0.01
0.0
-0.02
-0.005
-0.025
-0.025
-0.04
-0.04
-0.04
-0.04
-0.05
-0.04
-0.04
0.01
0.045
0.075
0.055
0.12
0.08
0.04
-0.02
-0.035
-0.14
-0.15
-0.16
-0.13
-0.115
-0.105
-0.135
-0.09
-0.07
0.185
0.47
-0.43
-0.41
-0.205
-0.105
-0.115
-0.11
-0.08
-0.1
-0.075
-0.1
-0.075
-0.075
-0.05
-0.055
-0.035
-0.04
0.01
0.025
0.045
0.055
0.105
0.12
0.185
0.215
0.24
0.225
0.26
0.265
0.285
0.245
0.175
0.125
0.04
-0.01
-0.03
-0.025
-0.045
-0.02
-0.035
-0.035
-0.02
-0.025
-0.03
-0.02
-0.045
-0.02
-0.05
-0.04
-0.06
-0.02
-0.065
-0.08
-0.065
0.01
0.055
0.055
0.08
0.12
0.085
0.055
-0.005
-0.005
-0.085
-0.13
-0.115
-0.095
-0.115
-0.095
-0.125
-0.095
-0.06
0.23
0.55
-0.325
-0.37
-0.215
-0.12
-0.085
-0.105
-0.085
-0.105
-0.07
-0.11
-0.075
-0.055
-0.05
-0.055
-0.02
-0.025
0.005
0.02
0.04
0.06
0.105
0.115
0.18
0.205
0.235
0.25
0.29
0.28
0.28
0.245
0.19
0.135
0.075
0.01
0.0
-0.03
-0.01
-0.025
-0.025
-0.025
-0.025
0.0
-0.015
-0.03
-0.01
-0.025
-0.02
-0.025
-0.035
-0.045
-0.035
-0.07
-0.035
-0.02
0.03
0.045
0.08
0.085
0.135
0.1
0.025
0.0
-0.02
-0.095
-0.095
-0.105
-0.09
-0.115
-0.09
-0.12
-0.055
0.01
0.315
0.505
-0.395
-0.335
-0.16
-0.075
-0.09
-0.11
-0.08
-0.105
-0.095
-0.105
-0.06
-0.07
-0.06
-0.06
-0.02
-0.03
0.0
0.0
0.045
0.06
0.1
0.14
0.165
0.19
0.225
0.25
0.265
0.26
0.25
0.22
0.15
0.085
0.05
0.005
-0.01
-0.03
-0.015
-0.03
-0.045
-0.035
-0.025
-0.045
-0.02
-0.015
-0.005
-0.025
-0.03
-0.055
-0.045
-0.065
-0.045
-0.07
-0.055
-0.05
0.01
0.055
0.065
0.06
0.115
0.09
0.05
0.0
-0.01
-0.095
-0.095
-0.12
-0.105
-0.125
-0.1
-0.115
-0.07
-0.06
0.225
0.495
-0.42
-0.4
-0.2
-0.095
-0.095
-0.11
-0.09
-0.095
-0.075
-0.1
-0.085
-0.09
-0.06
-0.06
-0.04
-0.035
0.0
0.01
0.04
0.065
0.09
0.105
0.16
0.185
0.22
0.22
0.25
0.255
0.255
0.22
0.165
0.11
0.055
0.0
-0.025
-0.03
-0.035
-0.02
-0.035
-0.04
-0.03
-0.025
-0.02
-0.015
-0.03
-0.03
-0.04
-0.03
-0.035
-0.045
-0.065
-0.04
-0.075
-0.06
-0.04
0.035
0.025
0.055
0.065
0.125
0.1
0.02
-0.025
-0.045
-0.12
-0.11
-0.135
-0.11
-0.13
-0.11
-0.14
-0.08
-0.04
0.21
0.435
-0.425
-0.4
-0.225
-0.115
-0.11
-0.115
-0.075
-0.1
-0.105
-0.115
-0.075
-0.085
-0.04
-0.055
-0.025
-0.03
-0.005
0.0
0.045
0.065
0.095
0.12
0.16
0.2
0.24
0.25
0.275
0.265
0.265
0.205
0.15
0.11
0.03
-0.015
-0.025
-0.05
-0.04
-0.045
-0.035
-0.04
-0.04
-0.025
-0.03
-0.045
-0.015
-0.025
-0.05
-0.07
-0.045
-0.06
-0.075
-0.075
-0.065
-0.05
0.005
0.035
0.055
0.06
0.13
0.07
0.015
0.005
-0.03
-0.12
-0.11
-0.135
-0.09
-0.135
-0.095
-0.115
-0.07
-0.03
0.265
0.56
-0.36
-0.34
-0.19
-0.105
-0.11
-0.125
-0.085
-0.125
-0.1
-0.125
-0.085
-0.08
-0.085
-0.075
-0.035
-0.035
0.0
0.0
0.05
0.065
0.1
0.12
0.165
0.18
0.215
0.24
0.265
0.26
0.26
0.21
0.155
0.09
0.025
0.0
-0.03
-0.05
-0.03
-0.065
-0.05
-0.045
-0.025
-0.04
-0.015
-0.02
-0.04
-0.055
-0.05
-0.045
-0.055
-0.055
-0.065
-0.07
-0.09
-0.055
-0.025
0.035
0.04
0.055
0.075
0.095
0.065
-0.01
-0.03
-0.075
-0.125
-0.12
-0.12
-0.115
-0.115
-0.12
-0.13
-0.065
0.1
0.415
0.165
-0.395
-0.28
-0.125
-0.055
-0.095
-0.09
-0.095
-0.095
-0.085
-0.075
-0.06
-0.065
-0.035
-0.05
-0.015
-0.015
0.005
0.005
0.05
0.075
0.09
0.145
0.16
0.2
0.22
0.235
0.25
0.255
0.235
0.18
0.125
0.07
0.01
0.0
-0.015
-0.045
-0.04
-0.04
-0.04
-0.025
-0.035
-0.02
-0.02
-0.015
-0.015
-0.035
-0.035
-0.02
-0.035
-0.045
-0.05
-0.045
-0.055
-0.05
-0.035
0.04
0.035
0.065
0.095
0.1
0.08
0.015
-0.005
-0.05
-0.115
-0.105
-0.125
-0.105
-0.13
-0.105
-0.125
-0.075
0.03
0.27
0.115
-0.43
-0.305
-0.15
-0.075
-0.11
-0.12
-0.1
-0.11
-0.085
-0.105
-0.07
-0.085
-0.065
-0.075
-0.035
-0.02
0.005
0.03
0.04
0.07
0.12
0.15
0.18
0.21
0.225
0.245
0.25
0.27
0.265
0.195
0.13
0.095
0.005
-0.015
-0.035
-0.035
-0.035
-0.04
-0.035
-0.03
-0.03
-0.04
-0.03
-0.045
-0.025
-0.025
-0.04
-0.055
-0.055
-0.05
-0.055
-0.055
-0.06
-0.06
0.0
0.04
0.065
0.06
0.12
0.1
0.065
-0.02
0.0
-0.09
-0.12
-0.11
-0.11
-0.125
-0.075
-0.115
-0.095
-0.075
0.15
0.52
-0.215
-0.375
-0.255
-0.145
-0.1
-0.105
-0.085
-0.11
-0.1
-0.105
-0.07
-0.075
-0.04
-0.06
-0.05
-0.03
0.0
0.015
0.045
0.06
0.09
0.125
0.16
0.185
0.23
0.27
0.255
0.265
0.3
0.25
0.175
0.135
0.05
0.02
-0.025
-0.03
-0.025
-0.025
-0.05
-0.035
-0.05
-0.035
-0.035
-0.005
-0.035
-0.065
-0.035
-0.045
-0.06
-0.05
-0.05
-0.06
-0.075
-0.06
-0.06
-0.005
0.045
0.055
0.055
0.12
0.09
0.055
0.0
-0.005
-0.095
-0.105
-0.12
-0.1
-0.13
-0.1
-0.135
-0.08
-0.055
0.21
0.58
-0.27
-0.35
-0.195
-0.095
-0.085
-0.105
-0.1
-0.105
-0.09
-0.095
-0.07
-0.085
-0.05
-0.065
-0.035
-0.02
0.015
0.01
0.035
0.05
0.09
0.13
0.145
0.185
0.23
0.235
0.265
0.26
0.26
0.23
0.185
0.115
0.045
0.01
-0.01
-0.025
-0.045
-0.045
-0.03
-0.025
-0.02
-0.025
-0.025
-0.005
-0.02
-0.025
-0.03
-0.02
-0.03
-0.045
-0.045
-0.035
-0.065
-0.05
-0.035
0.015
0.06
0.08
0.07
0.135
0.105
0.055
0.0
0.01
-0.09
-0.105
-0.115
-0.095
-0.115
-0.095
-0.115
-0.09
-0.085
0.2
0.5
-0.37
-0.385
-0.185
-0.065
-0.075
-0.09
-0.08
-0.105
-0.065
-0.085
-0.06
-0.06
-0.045
-0.045
-0.02
-0.015
0.015
0.02
0.07
0.065
0.11
0.13
0.175
0.21
0.225
0.265
0.285
0.29
0.275
0.23
0.2
0.105
0.06
0.015
-0.01
-0.01
-0.025
-0.03
-0.025
-0.02
-0.005
-0.015
-0.005
-0.02
-0.015
0.005
-0.025
-0.03
-0.045
-0.03
-0.025
-0.04
-0.03
-0.04
0.0
0.06
0.065
0.07
0.13
0.1
0.08
-0.005
-0.01
-0.085
-0.095
-0.11
-0.115
-0.125
-0.095
-0.115
-0.075
-0.06
0.15
0.475
-0.195
-0.375
-0.24
-0.15
-0.1
-0.105
-0.1
-0.125
-0.095
-0.095
-0.085
-0.085
-0.05
-0.06
-0.035
-0.025
-0.005
0.0
0.025
0.06
0.1
0.14
0.155
0.175
0.215
0.245
0.27
0.295
0.28
0.25
0.215
0.13
0.045
0.015
-0.01
-0.015
-0.05
-0.04
-0.035
-0.035
-0.025
-0.03
-0.02
-0.03
-0.02
-0.035
-0.035
-0.04
-0.045
-0.035
-0.045
-0.04
-0.065
-0.075
-0.04
0.02
0.04
0.035
0.085
0.07
0.075
-0.02
-0.03
-0.085
-0.12
-0.125
-0.125
-0.11
-0.11
-0.105
-0.125
-0.06
0.145
0.45
0.05
-0.37
-0.26
-0.14
-0.09
-0.105
-0.12
-0.105
-0.1
-0.105
-0.085
-0.07
-0.055
-0.065
-0.05
-0.04
-0.02
0.0
0.02
0.05
0.085
0.115
0.145
0.185
0.22
0.235
0.245
0.28
0.275
0.235
0.19
0.125
0.08
0.035
-0.005
-0.025
-0.04
-0.035
-0.03
-0.02
-0.02
-0.015
-0.01
-0.005
-0.025
-0.03
-0.055
-0.025
-0.04
-0.035
-0.045
-0.045
-0.06
-0.055
-0.04
0.02
0.035
0.07
0.065
0.115
0.085
0.03
0.0
-0.025
-0.11
-0.105
-0.12
-0.105
-0.13
-0.1
-0.125
-0.07
-0.03
0.23
0.355
-0.46
-0.365
-0.17
-0.065
-0.09
-0.115
-0.1
-0.1
-0.075
-0.1
-0.075
-0.085
-0.06
-0.055
-0.035
-0.02
0.01
0.02
0.045
0.06
0.11
0.13
0.165
0.19
0.225
0.23
0.255
0.275
0.275
0.2
0.15
0.08
0.03
-0.015
-0.025
-0.045
-0.045
-0.04
-0.035
-0.035
-0.02
-0.055
-0.03
-0.015
-0.025
-0.03
-0.07
-0.07
-0.04
-0.055
-0.05
-0.065
-0.085
-0.035
0.05
0.02
0.06
0.1
0.09
0.085
0.035
-0.025
-0.07
-0.115
-0.11
-0.15
-0.105
-0.125
-0.105
-0.12
-0.075
0.045
0.3
0.255
-0.385
-0.315
-0.2
-0.105
-0.1
-0.11
-0.095
-0.11
-0.08
-0.09
-0.08
-0.09
-0.04
-0.03
-0.025
-0.02
0.0
0.02
0.045
0.08
0.125
0.135
0.18
0.21
0.22
0.245
0.27
0.29
0.27
0.2
0.135
0.055
0.015
-0.005
-0.025
-0.05
-0.065
-0.055
-0.045
-0.04
-0.045
-0.04
-0.02
-0.04
-0.04
-0.05
-0.055
-0.04
-0.06
-0.065
-0.045
-0.07
-0.08
-0.03
0.05
0.04
0.055
0.09
0.115
0.085
0.015
-0.005
-0.045
-0.11
-0.105
-0.12
-0.1
-0.12
-0.095
-0.125
-0.06
0.075
0.37
0.285
-0.395
-0.29
-0.16
-0.065
-0.1
-0.115
-0.095
-0.1
-0.085
-0.09
-0.075
-0.07
-0.05
-0.045
-0.025
-0.025
0.0
0.015
0.05
0.065
0.11
0.135
0.175
0.18
0.225
0.245
0.245
0.26
0.235
0.195
0.135
0.065
0.02
-0.01
-0.04
-0.04
-0.035
-0.045
-0.025
-0.04
-0.03
-0.025
-0.025
-0.025
-0.025
-0.03
-0.03
-0.055
-0.05
-0.045
-0.05
-0.06
-0.05
-0.015
0.04
0.045
0.075
0.105
0.1
0.09
0.01
0.005
-0.065
-0.105
-0.095
-0.11
-0.105
-0.11
-0.105
-0.12
-0.07
0.065
0.28
0.02
-0.435
-0.315
-0.14
-0.07
-0.085
-0.095
-0.1
-0.1
-0.09
-0.085
-0.065
-0.075
-0.06
-0.055
-0.035
-0.02
0.0
0.03
0.06
0.085
0.11
0.155
0.19
0.215
0.23
0.255
0.275
0.275
0.26
0.21
0.155
0.08
0.01
-0.005
-0.015
-0.035
-0.045
-0.045
-0.03
-0.015
-0.005
-0.05
-0.035
-0.015
-0.035
0.0
-0.045
-0.045
-0.05
-0.045
-0.07
-0.055
-0.04
0.015
0.035
0.065
0.075
0.13
0.095
0.055
-0.015
-0.02
-0.09
-0.095
-0.145
-0.12
-0.115
-0.09
-0.13
-0.08
-0.055
0.18
0.485
-0.375
-0.375
-0.24
-0.14
-0.11
-0.135
-0.115
-0.125
-0.09
-0.115
-0.075
-0.095
-0.075
-0.08
-0.045
-0.025
-0.01
0.0
0.02
0.04
0.1
0.125
0.165
0.185
0.205
0.235
0.26
0.275
0.265
0.225
0.165
0.095
0.035
-0.01
-0.01
-0.04
-0.04
-0.045
-0.05
-0.03
-0.02
-0.025
-0.035
-0.035
-0.035
-0.035
-0.03
-0.06
-0.03
-0.065
-0.05
-0.055
-0.06
-0.02
0.04
0.025
0.07
0.105
0.125
0.1
-0.005
0.0
-0.065
-0.115
-0.11
-0.135
-0.135
-0.12
-0.12
-0.13
-0.065
0.105
0.42
0.175
-0.385
-0.28
-0.165
-0.1
-0.1
-0.115
-0.12
-0.12
-0.1
-0.095
-0.075
-0.07
-0.07
-0.055
-0.04
-0.03
-0.005
0.0
0.04
0.06
0.105
0.145
0.165
0.195
0.225
0.24
0.255
0.26
0.235
0.185
0.12
0.04
0.015
-0.01
-0.035
-0.055
-0.025
-0.055
-0.045
-0.035
-0.055
-0.04
-0.025
-0.045
-0.035
-0.05
-0.055
-0.05
-0.065
-0.05
-0.06
-0.06
-0.06
-0.02
0.04
0.04
0.07
0.095
0.11
0.08
0.0
0.015
-0.04
-0.095
-0.11
-0.125
-0.105
-0.1
-0.11
-0.11
-0.05
0.1
0.36
0.095
-0.435
-0.275
-0.13
-0.085
-0.095
-0.105
-0.105
-0.105
-0.095
-0.085
-0.08
-0.075
-0.07
-0.055
-0.015
-0.035
-0.005
0.01
0.03
0.065
0.115
0.125
0.16
0.2
0.235
0.235
0.255
0.25
0.24
0.18
0.115
0.055
0.015
-0.015
-0.055
-0.06
-0.06
-0.05
-0.05
-0.04
-0.025
-0.025
-0.01
-0.045
-0.05
-0.035
-0.04
-0.055
-0.05
-0.055
-0.045
-0.075
-0.065
-0.035
0.015
0.03
0.06
0.06
0.1
0.08
0.03
-0.01
-0.03
-0.12
-0.125
-0.145
-0.095
-0.12
-0.125
-0.125
-0.075
-0.055
0.225
0.42
-0.445
-0.375
-0.19
-0.095
-0.095
-0.12
-0.09
-0.115
-0.07
-0.09
-0.06
-0.08
-0.04
-0.055
-0.025
-0.03
0.0
0.015
0.035
0.055
0.095
0.13
0.175
0.185
0.235
0.255
0.265
0.28
0.255
0.21
0.155
0.085
0.035
-0.02
-0.03
-0.04
-0.05
-0.045
-0.045
-0.05
-0.03
-0.04
-0.02
-0.03
-0.03
-0.045
-0.04
-0.035
-0.025
-0.075
-0.06
-0.06
-0.03
-0.045
0.02
0.02
0.045
0.095
0.125
0.07
0.04
-0.005
-0.05
-0.095
-0.105
-0.125
-0.09
-0.115
-0.11
-0.115
-0.06
-0.03
0.23
0.48
-0.39
-0.345
-0.2
-0.105
-0.095
-0.11
-0.1
-0.12
-0.07
-0.09
-0.075
-0.085
-0.05
-0.06
-0.015
-0.025
0.0
0.02
0.04
0.06
0.115
0.13
0.185
0.2
0.245
0.26
0.26
0.295
0.275
0.225
0.165
0.085
0.035
0.0
-0.005
-0.05
-0.065
-0.055
-0.035
-0.01
-0.045
-0.035
-0.025
-0.045
-0.02
-0.035
-0.03
-0.06
-0.065
-0.055
-0.045
-0.055
-0.065
-0.065
0.01
0.035
0.075
0.05
0.11
0.06
0.055
-0.01
-0.025
-0.125
-0.115
-0.145
-0.095
-0.125
-0.12
-0.15
-0.07
-0.05
0.27
0.62
-0.36
-0.365
-0.205
-0.095
-0.1
-0.115
-0.1
-0.125
-0.1
-0.11
-0.08
-0.075
-0.055
-0.055
-0.035
-0.04
0.0
0.02
0.05
0.045
0.09
0.115
0.175
0.19
0.25
0.255
0.255
0.27
0.28
0.225
0.165
0.105
0.035
0.0
-0.015
-0.05
-0.025
-0.03
-0.045
-0.06
-0.035
-0.025
-0.025
-0.04
-0.035
-0.025
-0.05
-0.045
-0.04
-0.05
-0.04
-0.065
-0.065
-0.075
-0.01
0.05
0.05
0.06
0.115
0.095
0.075
-0.005
-0.01
-0.09
-0.1
-0.105
-0.1
-0.12
-0.09
-0.11
-0.1
-0.055
0.22
0.53
-0.255
-0.4
-0.22
-0.08
-0.065
-0.11
-0.11
-0.095
-0.095
-0.1
-0.07
-0.08
-0.06
-0.07
-0.035
-0.03
0.0
0.0
0.025
0.05
0.09
0.115
0.15
0.175
0.23
0.24
0.26
0.275
0.28
0.24
0.175
0.11
0.045
0.0
-0.025
-0.03
-0.035
-0.04
-0.04
-0.04
-0.035
-0.03
-0.02
-0.03
-0.025
-0.03
-0.03
-0.05
-0.03
-0.035
-0.05
-0.06
-0.06
-0.055
-0.07
-0.025
0.055
0.035
0.08
0.11
0.1
0.085
0.01
0.005
-0.075
-0.1
-0.1
-0.105
-0.095
-0.095
-0.095
-0.1
-0.06
0.075
0.325
0.0
-0.43
-0.295
-0.155
-0.075
-0.105
-0.095
-0.09
-0.085
-0.08
-0.08
-0.075
-0.06
-0.045
-0.04
-0.025
-0.01
0.01
0.03
0.07
0.085
0.125
0.16
0.19
0.22
0.27
0.275
0.295
0.285
0.26
0.215
0.145
0.065
0.02
-0.005
-0.045
-0.05
-0.055
-0.04
-0.045
-0.03
-0.035
-0.02
-0.025
-0.025
-0.025
-0.015
-0.045
-0.045
-0.06
-0.045
-0.055
-0.055
-0.06
-0.035
-0.045
0.035
0.025
0.07
0.08
0.13
0.1
0.02
-0.01
-0.035
-0.105
-0.1
-0.115
-0.085
-0.095
-0.095
-0.115
-0.07
-0.035
0.195
0.4
-0.42
-0.365
-0.21
-0.115
-0.105
-0.11
-0.085
-0.11
-0.095
-0.09
-0.065
-0.08
-0.065
-0.07
-0.025
-0.035
0.005
0.025
0.04
0.055
0.1
0.14
0.175
0.2
0.24
0.255
0.285
0.275
0.27
0.225
0.175
0.085
0.015
-0.01
-0.03
-0.025
-0.04
-0.055
-0.06
-0.035
-0.03
-0.02
-0.045
-0.04
-0.035
-0.035
-0.05
-0.035
-0.05
-0.05
-0.06
-0.045
-0.095
-0.075
-0.05
0.0
0.025
0.05
0.05
0.12
0.075
0.025
-0.02
-0.02
-0.105
-0.1
-0.135
-0.12
-0.125
-0.12
-0.13
-0.095
-0.085
0.165
0.535
-0.28
-0.385
-0.245
-0.17
-0.13
-0.13
-0.115
-0.115
-0.11
-0.085
-0.1
-0.08
-0.07
-0.065
-0.035
-0.025
0.005
0.0
0.035
0.045
0.1
0.11
0.16
0.2
0.245
0.255
0.27
0.27
0.3
0.245
0.185
0.12
0.05
0.01
-0.02
-0.04
-0.035
-0.06
-0.04
-0.04
-0.02
-0.035
-0.04
-0.035
-0.02
-0.035
-0.045
-0.035
-0.035
-0.045
-0.05
-0.055
-0.05
-0.065
-0.05
-0.035
0.035
0.035
0.075
0.1
0.12
0.1
0.025
-0.01
-0.065
-0.115
-0.12
-0.12
-0.11
-0.125
-0.105
-0.125
-0.06
0.045
0.36
0.285
-0.435
-0.34
-0.17
-0.08
-0.095
-0.11
-0.1
-0.115
-0.095
-0.09
-0.075
-0.08
-0.055
-0.06
-0.05
-0.035
0.01
0.005
0.055
0.07
0.095
0.135
0.18
0.215
0.24
0.275
0.28
0.3
0.255
0.21
0.145
0.075
0.025
-0.005
-0.03
-0.035
-0.045
-0.04
-0.035
-0.05
-0.04
-0.025
-0.025
-0.02
-0.02
-0.025
-0.035
-0.025
-0.045
-0.035
-0.05
-0.045
-0.065
-0.05
-0.02
0.045
0.05
0.07
0.075
0.1
0.09
0.015
-0.02
-0.035
-0.095
-0.095
-0.115
-0.1
-0.12
-0.1
-0.12
-0.07
-0.01
0.22
0.3
-0.45
-0.375
-0.18
-0.065
-0.08
-0.1
-0.09
-0.1
-0.1
-0.085
-0.07
-0.075
-0.05
-0.06
-0.025
-0.02
0.01
0.005
0.05
0.07
0.105
0.15
0.195
0.205
0.255
0.255
0.28
0.29
0.275
0.225
0.16
0.085
0.03
0.0
-0.015
-0.035
-0.05
-0.05
-0.06
-0.045
-0.045
-0.035
-0.035
-0.035
-0.055
-0.05
-0.04
-0.03
-0.035
-0.055
-0.04
-0.06
-0.065
-0.055
-0.025
0.045
0.03
0.05
0.085
0.09
0.085
0.0
-0.015
-0.075
-0.125
-0.12
-0.11
-0.115
-0.12
-0.11
-0.125
-0.085
0.05
0.335
0.055
-0.435
-0.33
-0.205
-0.09
-0.1
-0.105
-0.095
-0.1
-0.1
-0.095
-0.085
-0.07
-0.055
-0.055
-0.02
-0.03
0.0
0.0
0.055
0.08
0.115
0.135
0.18
0.22
0.24
0.285
0.29
0.31
0.27
0.2
0.14
0.065
0.02
-0.01
-0.03
-0.05
-0.07
-0.06
-0.05
-0.03
-0.05
-0.06
-0.05
-0.065
-0.025
-0.04
-0.06
-0.07
-0.04
-0.06
-0.06
-0.06
-0.08
-0.035
0.01
0.01
0.05
0.075
0.11
0.07
0.0
-0.03
-0.06
-0.13
-0.1
-0.115
-0.11
-0.115
-0.125
-0.13
-0.05
0.03
0.325
0.31
-0.425
-0.305
-0.185
-0.115
-0.09
-0.115
-0.095
-0.08
-0.095
-0.105
-0.075
-0.06
-0.045
-0.055
-0.03
-0.025
0.0
0.02
0.045
0.065
0.13
0.13
0.21
0.23
0.265
0.27
0.305
0.315
0.305
0.24
0.15
0.105
0.03
0.0
-0.03
-0.015
-0.045
-0.035
-0.025
-0.04
-0.06
-0.03
-0.025
-0.025
-0.05
-0.025
-0.04
-0.03
-0.055
-0.07
-0.065
-0.045
-0.065
-0.05
-0.045
0.005
0.03
0.07
0.065
0.115
0.09
0.035
-0.005
-0.025
-0.115
-0.105
-0.13
-0.09
-0.105
-0.1
-0.13
-0.065
-0.025
0.27
0.49
-0.44
-0.37
-0.19
-0.095
-0.08
-0.105
-0.09
-0.115
-0.095
-0.1
-0.08
-0.08
-0.05
-0.045
-0.02
-0.035
-0.01
0.01
0.05
0.065
0.11
0.13
0.185
0.2
0.255
0.255
0.285
0.29
0.275
0.235
0.17
0.095
0.05
0.0
-0.01
-0.035
-0.04
-0.03
-0.03
-0.025
-0.025
-0.02
-0.035
-0.02
-0.03
-0.025
-0.03
-0.02
-0.04
-0.04
-0.055
-0.04
-0.06
-0.05
-0.05
0.02
0.055
0.065
0.06
0.115
0.085
0.04
-0.005
0.0
-0.095
-0.1
-0.11
-0.085
-0.115
-0.085
-0.115
-0.08
-0.09
0.165
0.46
-0.42
-0.42
-0.225
-0.095
-0.085
-0.1
-0.085
-0.095
-0.08
-0.09
-0.07
-0.075
-0.05
-0.065
-0.025
-0.03
-0.005
0.015
0.04
0.075
0.085
0.125
0.18
0.205
0.255
0.27
0.29
0.295
0.305
0.245
0.18
0.11
0.06
0.005
-0.03
-0.055
-0.045
-0.06
-0.045
-0.045
-0.025
-0.045
-0.03
-0.025
-0.015
-0.03
-0.02
-0.04
-0.035
-0.05
-0.045
-0.06
-0.055
-0.075
-0.055
-0.04
0.035
0.045
0.08
0.085
0.1
0.085
-0.005
-0.01
-0.035
-0.115
-0.105
-0.12
-0.115
-0.11
-0.09
-0.105
-0.06
-0.025
0.21
0.31
-0.435
-0.345
-0.21
-0.115
-0.07
-0.115
-0.105
-0.09
-0.075
-0.105
-0.075
-0.075
-0.045
-0.06
-0.015
-0.015
0.015
0.005
0.04
0.06
0.11
0.145
0.18
0.235
0.25
0.26
0.295
0.3
0.285
0.235
0.155
0.085
0.04
0.0
-0.03
-0.055
-0.055
-0.055
-0.045
-0.035
-0.045
-0.05
-0.035
-0.015
-0.025
-0.04
-0.05
-0.055
-0.04
-0.05
-0.07
-0.075
-0.06
-0.05
-0.06
-0.02
0.025
0.05
0.05
0.115
0.105
0.06
-0.015
-0.025
-0.075
-0.115
-0.125
-0.105
-0.155
-0.105
-0.105
-0.095
-0.08
0.105
0.465
-0.07
-0.395
-0.27
-0.18
-0.115
-0.105
-0.11
-0.09
-0.105
-0.095
-0.06
-0.075
-0.055
-0.045
-0.045
-0.035
-0.005
0.0
0.04
0.06
0.09
0.12
0.15
0.21
0.235
0.265
0.29
0.305
0.315
0.28
0.225
0.145
0.08
0.02
-0.01
-0.01
-0.04
-0.04
-0.05
-0.05
-0.02
-0.025
-0.015
-0.03
-0.035
-0.015
-0.03
-0.05
-0.045
-0.05
-0.045
-0.055
-0.05
-0.04
-0.085
-0.07
-0.03
0.045
0.03
0.085
0.075
0.12
0.09
0.025
-0.02
-0.02
-0.095
-0.095
-0.12
-0.095
-0.1
-0.09
-0.12
-0.075
-0.05
0.26
0.485
-0.425
-0.37
-0.19
-0.085
-0.095
-0.125
-0.105
-0.12
-0.105
-0.105
-0.07
-0.085
-0.06
-0.065
-0.04
-0.04
-0.015
0.0
0.035
0.05
0.095
0.12
0.165
0.2
0.235
0.245
0.265
0.285
0.275
0.22
0.16
0.1
0.035
-0.005
-0.01
-0.06
-0.055
-0.05
-0.045
-0.045
-0.035
-0.035
-0.035
-0.02
-0.035
-0.025
-0.04
-0.035
-0.055
-0.05
-0.055
-0.05
-0.065
-0.05
-0.065
-0.06
-0.06
0.0
0.035
0.055
0.055
0.105
0.09
0.045
-0.01
-0.005
-0.08
-0.115
-0.115
-0.105
-0.115
-0.105
-0.11
-0.105
-0.095
0.125
0.435
-0.255
-0.425
-0.255
-0.135
-0.085
-0.105
-0.085
-0.105
-0.09
-0.1
-0.08
-0.065
-0.055
-0.06
-0.04
-0.025
-0.005
0.0
0.02
0.055
0.105
0.125
0.165
0.19
0.23
0.26
0.28
0.29
0.285
0.265
0.215
0.135
0.06
0.015
-0.01
-0.025
-0.045
-0.06
-0.04
-0.045
-0.025
-0.015
-0.02
-0.03
-0.03
-0.025
-0.025
-0.04
-0.04
-0.035
-0.045
-0.045
-0.055
-0.055
-0.055
-0.065
-0.06
-0.055
-0.005
0.035
0.05
0.045
0.125
0.1
0.04
0.0
-0.015
-0.105
-0.12
-0.12
-0.1
-0.095
-0.08
-0.115
-0.095
-0.1
0.1
0.445
-0.195
-0.41
-0.29
-0.165
-0.105
-0.105
-0.1
-0.115
-0.1
-0.1
-0.07
-0.085
-0.06
-0.06
-0.04
-0.04
-0.005
0.0
0.03
0.055
0.075
0.115
0.16
0.2
0.235
0.25
0.285
0.285
0.295
0.29
0.215
0.13
0.06
0.02
-0.005
-0.03
-0.04
-0.045
-0.035
-0.055
-0.04
-0.025
-0.02
-0.03
-0.025
-0.01
-0.025
-0.04
-0.025
-0.06
-0.035
-0.035
-0.05
-0.055
-0.05
-0.065
-0.055
-0.025
0.045
0.05
0.06
0.095
0.12
0.08
0.03
-0.01
-0.07
-0.115
-0.105
-0.1
-0.11
-0.13
-0.1
-0.115
-0.08
-0.015
0.285
0.32
-0.395
-0.33
-0.235
-0.115
-0.11
-0.12
-0.1
-0.11
-0.1
-0.105
-0.07
-0.09
-0.06
-0.065
-0.03
-0.04
0.0
0.0
0.045
0.065
0.115
0.15
0.185
0.23
0.265
0.275
0.29
0.3
0.285
0.24
0.18
0.11
0.05
0.0
-0.01
-0.03
-0.03
-0.035
-0.02
-0.03
-0.02
-0.015
0.0
-0.015
-0.015
-0.015
0.0
-0.02
-0.03
-0.045
-0.03
-0.03
-0.035
-0.05
-0.045
-0.06
-0.05
-0.03
0.05
0.035
0.09
0.095
0.14
0.1
0.05
0.015
-0.035
-0.09
-0.07
-0.085
-0.07
-0.09
-0.075
-0.1
-0.045
-0.035
0.245
0.515
-0.385
-0.355
-0.18
-0.07
-0.065
-0.085
-0.065
-0.075
-0.055
-0.075
-0.06
-0.08
-0.045
-0.05
-0.005
-0.015
0.015
0.02
0.065
0.085
0.115
0.145
0.195
0.23
0.25
0.275
0.285
0.29
0.29
0.245
0.195
0.105
0.06
0.025
-0.005
-0.02
-0.035
-0.035
-0.025
-0.035
-0.03
-0.02
-0.02
-0.015
-0.02
-0.015
-0.02
-0.03
-0.035
-0.035
-0.045
-0.05
-0.05
-0.045
-0.07
-0.055
-0.06
-0.055
-0.035
0.02
0.045
0.07
0.07
0.12
0.095
0.05
0.0
0.0
-0.07
-0.08
-0.105
-0.095
-0.1
-0.08
-0.1
-0.095
-0.095
0.13
0.465
-0.275
-0.405
-0.245
-0.135
-0.085
-0.095
-0.08
-0.105
-0.07
-0.095
-0.075
-0.085
-0.05
-0.06
-0.035
-0.03
-0.005
0.015
0.04
0.055
0.085
0.125
0.175
0.19
0.245
0.27
0.275
0.29
0.29
0.265
0.2
0.15
0.08
0.015
0.0
-0.035
-0.045
-0.055
-0.035
-0.04
-0.03
-0.03
-0.015
-0.035
-0.01
-0.005
-0.025
-0.035
-0.03
-0.05
-0.035
-0.06
-0.045
-0.04
-0.055
-0.07
-0.055
-0.035
0.035
0.035
0.1
0.075
0.115
0.085
0.01
-0.01
-0.04
-0.105
-0.08
-0.1
-0.095
-0.13
-0.095
-0.1
-0.06
-0.06
0.205
0.515
-0.36
-0.37
-0.235
-0.14
-0.1
-0.095
-0.095
-0.105
-0.055
-0.095
-0.07
-0.05
-0.05
-0.06
-0.03
-0.035
0.0
0.015
0.05
0.075
0.105
0.11
0.18
0.22
0.265
0.245
0.275
0.305
0.3
0.25
0.205
0.09
0.04
0.02
0.0
-0.035
-0.05
-0.03
-0.05
-0.03
-0.025
-0.03
-0.035
-0.01
-0.03
-0.025
-0.04
-0.035
-0.05
-0.035
-0.04
-0.05
-0.065
-0.055
-0.065
-0.045
-0.04
0.02
0.02
0.065
0.065
0.125
0.09
0.035
-0.02
-0.01
-0.1
-0.1
-0.13
-0.09
-0.11
-0.09
-0.11
-0.07
-0.055
0.245
0.595
-0.35
-0.37
-0.215
-0.11
-0.085
-0.125
-0.095
-0.11
-0.085
-0.1
-0.07
-0.075
-0.05
-0.055
-0.02
-0.04
0.0
0.0
0.035
0.055
0.11
0.135
0.18
0.205
0.23
0.25
0.29
0.295
0.275
0.235
0.185
0.115
0.055
0.0
-0.03
-0.04
-0.04
-0.04
-0.05
-0.035
-0.04
-0.04
-0.035
-0.03
-0.04
-0.035
-0.05
-0.045
-0.05
-0.04
-0.065
-0.055
-0.075
-0.08
-0.08
-0.06
-0.05
0.0
0.03
0.055
0.05
0.12
0.09
0.035
-0.015
-0.015
-0.11
-0.1
-0.11
-0.1
-0.125
-0.09
-0.115
-0.085
-0.08
0.185
0.5
-0.405
-0.395
-0.215
-0.1
-0.08
-0.105
-0.1
-0.11
-0.09
-0.095
-0.08
-0.085
-0.05
-0.055
-0.025
-0.02
0.005
-0.005
0.04
0.065
0.115
0.12
0.165
0.215
0.245
0.255
0.275
0.265
0.285
0.25
0.19
0.115
0.055
0.005
-0.025
-0.035
-0.03
-0.045
-0.045
-0.035
-0.025
-0.035
-0.035
-0.02
-0.025
-0.015
-0.04
-0.03
-0.045
-0.035
-0.055
-0.04
-0.055
-0.045
-0.055
-0.07
-0.045
0.04
0.045
0.07
0.065
0.12
0.07
0.02
0.005
-0.035
-0.11
-0.105
-0.115
-0.1
-0.115
-0.1
-0.115
-0.07
-0.045
0.19
0.375
-0.465
-0.385
-0.19
-0.095
-0.095
-0.12
-0.085
-0.105
-0.075
-0.09
-0.075
-0.09
-0.055
-0.05
-0.02
-0.02
0.0
0.015
0.07
0.08
0.105
0.135
0.19
0.215
0.25
0.265
0.295
0.305
0.295
0.24
0.17
0.1
0.04
0.0
-0.025
-0.035
-0.04
-0.045
-0.035
-0.04
-0.04
-0.04
-0.025
-0.015
0.0
-0.03
-0.045
-0.04
-0.04
-0.045
-0.04
-0.055
-0.055
-0.06
-0.05
-0.04
0.02
0.03
0.065
0.07
0.145
0.07
0.03
-0.005
-0.015
-0.09
-0.095
-0.115
-0.09
-0.105
-0.09
-0.095
-0.07
-0.09
0.155
0.505
-0.34
-0.385
-0.26
-0.155
-0.115
-0.125
-0.105
-0.125
-0.08
-0.085
-0.09
-0.08
-0.055
-0.075
-0.03
-0.035
-0.005
0.005
0.045
0.04
0.105
0.13
0.17
0.205
0.23
0.25
0.3
0.295
0.295
0.26
0.175
0.12
0.07
0.005
-0.03
-0.055
-0.04
-0.025
-0.05
-0.05
-0.04
-0.02
-0.055
-0.02
-0.03
-0.035
-0.025
-0.055
-0.045
-0.035
-0.065
-0.07
-0.07
-0.055
-0.045
-0.02
0.035
0.015
0.065
0.125
0.095
0.085
-0.005
-0.02
-0.08
-0.09
-0.1
-0.12
-0.13
-0.125
-0.105
-0.115
-0.045
0.12
0.465
0.07
-0.385
-0.285
-0.165
-0.08
-0.11
-0.11
-0.115
-0.13
-0.09
-0.085
-0.07
-0.075
-0.055
-0.05
-0.035
-0.025
0.005
0.03
0.065
0.07
0.115
0.15
0.195
0.23
0.255
0.26
0.285
0.29
0.28
0.22
0.13
0.065
0.025
-0.01
-0.03
-0.035
-0.045
-0.04
-0.04
-0.025
-0.04
-0.04
-0.035
-0.035
-0.025
-0.025
-0.035
-0.03
-0.055
-0.035
-0.05
-0.045
-0.07
-0.065
-0.05
0.025
0.045
0.075
0.065
0.11
0.075
0.025
-0.02
-0.035
-0.1
-0.11
-0.115
-0.105
-0.13
-0.085
-0.13
-0.105
-0.05
0.27
0.465
-0.435
-0.375
-0.185
-0.075
-0.08
-0.11
-0.1
-0.12
-0.105
-0.095
-0.085
-0.08
-0.065
-0.065
-0.045
-0.04
-0.005
0.005
0.04
0.06
0.105
0.115
0.18
0.2
0.24
0.245
0.285
0.275
0.275
0.225
0.165
0.095
0.04
0.0
-0.045
-0.04
-0.045
-0.04
-0.045
-0.05
-0.03
-0.02
-0.03
-0.03
-0.02
-0.025
-0.04
-0.035
-0.05
-0.045
-0.055
-0.045
-0.06
-0.055
-0.045
0.0
0.045
0.065
0.06
0.12
0.08
0.055
-0.005
0.0
-0.09
-0.12
-0.12
-0.105
-0.125
-0.09
-0.12
-0.105
-0.09
0.15
0.425
-0.365
-0.43
-0.25
-0.11
-0.09
-0.12
-0.105
-0.115
-0.08
-0.1
-0.08
-0.08
-0.07
-0.075
-0.03
-0.03
-0.01
0.0
0.035
0.055
0.08
0.12
0.175
0.2
0.235
0.26
0.285
0.295
0.29
0.255
0.21
0.125
0.05
0.01
-0.005
-0.045
-0.045
-0.055
-0.055
-0.035
-0.03
-0.035
-0.035
-0.03
-0.03
-0.04
-0.025
-0.035
-0.05
-0.05
-0.045
-0.06
-0.075
-0.065
-0.06
-0.04
0.025
0.035
0.075
0.085
0.09
0.075
0.01
0.0
-0.065
-0.115
-0.1
-0.125
-0.11
-0.11
-0.09
-0.125
-0.065
0.035
0.275
0.235
-0.44
-0.335
-0.22
-0.115
-0.1
-0.105
-0.085
-0.105
-0.095
-0.105
-0.07
-0.065
-0.07
-0.075
-0.025
-0.025
0.0
0.005
0.04
0.065
0.11
0.14
0.18
0.215
0.24
0.255
0.295
0.295
0.265
0.215
0.155
0.095
0.025
-0.005
-0.015
-0.035
-0.045
-0.04
-0.035
-0.04
-0.025
-0.025
-0.035
-0.045
-0.03
-0.035
-0.045
-0.04
-0.05
-0.055
-0.06
-0.045
-0.085
-0.05
-0.045
0.03
0.025
0.075
0.11
0.085
0.07
-0.01
0.0
-0.055
-0.1
-0.115
-0.135
-0.1
-0.12
-0.1
-0.12
-0.06
0.05
0.355
0.22
-0.44
-0.34
-0.21
-0.105
-0.105
-0.1
-0.115
-0.115
-0.09
-0.11
-0.075
-0.08
-0.065
-0.075
-0.035
-0.04
-0.015
0.025
0.04
0.065
0.1
0.145
0.195
0.2
0.235
0.27
0.265
0.3
0.285
0.22
0.16
0.11
0.04
0.01
-0.025
-0.04
-0.035
-0.03
-0.035
-0.02
-0.03
-0.025
-0.01
-0.015
-0.04
-0.025
-0.035
-0.04
-0.045
-0.04
-0.075
-0.055
-0.065
-0.045
-0.045
0.01
0.035
0.065
0.06
0.12
0.085
0.03
-0.025
-0.015
-0.1
-0.115
-0.13
-0.095
-0.13
-0.1
-0.115
-0.105
-0.07
0.24
0.555
-0.37
-0.39
-0.21
-0.095
-0.09
-0.12
-0.11
-0.115
-0.095
-0.1
-0.085
-0.085
-0.055
-0.07
-0.035
-0.04
-0.015
0.0
0.02
0.05
0.1
0.12
0.175
0.195
0.225
0.235
0.27
0.27
0.285
0.245
0.195
0.12
0.06
0.005
-0.01
-0.03
-0.04
-0.04
-0.04
-0.025
-0.025
-0.025
-0.025
-0.025
-0.03
-0.035
-0.02
-0.045
-0.04
-0.045
-0.035
-0.04
-0.06
-0.07
-0.06
-0.06
0.0
0.04
0.06
0.06
0.12
0.08
0.05
-0.01
-0.015
-0.1
-0.11
-0.105
-0.11
-0.11
-0.09
-0.115
-0.105
-0.09
0.135
0.42
-0.31
-0.43
-0.26
-0.125
-0.075
-0.1
-0.085
-0.09
-0.085
-0.1
-0.07
-0.075
-0.065
-0.06
-0.04
-0.025
-0.005
0.01
0.035
0.055
0.095
0.135
0.18
0.2
0.235
0.27
0.285
0.285
0.305
0.265
0.21
0.14
0.065
0.015
-0.015
-0.02
-0.045
-0.055
-0.05
-0.04
-0.03
-0.02
-0.02
-0.035
-0.04
-0.03
-0.03
-0.025
-0.05
-0.025
-0.06
-0.07
-0.055
-0.045
-0.07
-0.06
-0.025
0.04
0.03
0.08
0.09
0.115
0.07
0.01
-0.015
-0.05
-0.105
-0.08
-0.125
-0.115
-0.125
-0.09
-0.105
-0.065
-0.02
0.235
0.395
-0.415
-0.36
-0.215
-0.105
-0.105
-0.115
-0.08
-0.115
-0.085
-0.085
-0.055
-0.09
-0.04
-0.04
-0.035
-0.025
0.0
0.005
0.05
0.06
0.11
0.145
0.18
0.2
0.245
0.285
0.31
0.29
0.28
0.225
0.18
0.115
0.035
0.0
-0.015
-0.045
-0.03
-0.04
-0.03
-0.035
-0.05
-0.025
-0.02
-0.03
-0.025
-0.025
-0.025
-0.04
-0.055
-0.045
-0.065
-0.065
-0.06
-0.07
-0.065
-0.02
0.045
0.03
0.045
0.09
0.1
0.055
0.0
-0.025
-0.075
-0.135
-0.12
-0.105
-0.11
-0.125
-0.11
-0.13
-0.06
0.06
0.37
0.185
-0.41
-0.315
-0.19
-0.115
-0.105
-0.11
-0.1
-0.105
-0.085
-0.09
-0.09
-0.075
-0.06
-0.06
-0.035
-0.025
-0.015
0.015
0.04
0.055
0.075
0.15
0.185
0.225
0.255
0.26
0.28
0.3
0.275
0.21
0.155
0.085
0.035
0.01
-0.02
-0.04
-0.05
-0.045
-0.05
-0.04
-0.055
-0.025
-0.025
-0.04
-0.045
-0.04
-0.035
-0.03
-0.06
-0.065
-0.06
-0.055
-0.065
-0.07
-0.07
-0.015
0.04
0.05
0.055
0.12
0.085
0.07
0.0
-0.02
-0.095
-0.115
-0.13
-0.115
-0.125
-0.105
-0.135
-0.13
-0.085
0.16
0.5
-0.155
-0.42
-0.26
-0.125
-0.075
-0.11
-0.115
-0.12
-0.105
-0.11
-0.085
-0.085
-0.075
-0.075
-0.06
-0.045
-0.01
-0.01
0.015
0.04
0.065
0.105
0.135
0.175
0.215
0.245
0.25
0.26
0.27
0.24
0.195
0.115
0.055
0.005
-0.015
-0.035
-0.055
-0.05
-0.055
-0.065
-0.04
-0.045
-0.05
-0.035
-0.04
-0.04
-0.04
-0.05
-0.055
-0.055
-0.07
-0.055
-0.07
-0.065
-0.075
-0.07
-0.04
0.035
0.03
0.055
0.08
0.09
0.08
0.01
-0.01
-0.06
-0.115
-0.09
-0.11
-0.105
-0.12
-0.1
-0.115
-0.065
0.015
0.275
0.2
-0.465
-0.345
-0.175
-0.05
-0.07
-0.085
-0.075
-0.075
-0.06
-0.06
-0.045
-0.055
-0.025
-0.015
-0.005
0.0
0.035
0.06
0.08
0.1
0.145
0.18
0.22
0.25
0.285
0.3
0.325
0.315
0.3
0.255
0.195
0.11
0.065
0.015
0.0
-0.02
-0.02
-0.015
-0.015
-0.03
-0.015
-0.015
-0.01
-0.01
-0.005
-0.02
-0.02
-0.03
-0.045
-0.04
-0.02
-0.045
-0.055
-0.055
-0.04
-0.005
0.06
0.065
0.07
0.115
0.11
0.06
0.01
-0.005
-0.055
-0.08
-0.095
-0.11
-0.105
-0.085
-0.08
-0.08
-0.065
0.08
0.36
0.055
-0.41
-0.295
-0.175
-0.09
-0.09
-0.09
-0.09
-0.08
-0.065
-0.065
-0.08
-0.055
-0.03
-0.02
0.0
-0.015
0.015
0.06
0.065
0.08
0.145
0.16
0.22
0.25
0.265
0.295
0.33
0.315
0.275
0.235
0.15
0.1
0.055
0.01
-0.035
-0.045
-0.03
-0.04
-0.02
-0.015
-0.035
-0.025
-0.035
-0.01
0.0
-0.02
-0.05
-0.055
-0.02
-0.035
-0.06
-0.045
-0.055
-0.04
-0.03
0.03
0.045
0.095
0.09
0.125
0.09
0.035
0.0
-0.04
-0.095
-0.075
-0.08
-0.075
-0.125
-0.07
-0.1
-0.045
-0.005
0.3
0.49
-0.415
-0.33
-0.2
-0.09
-0.085
-0.11
-0.08
-0.09
-0.065
-0.075
-0.06
-0.065
-0.045
-0.04
-0.02
-0.025
0.0
0.01
0.075
0.08
0.115
0.125
0.19
0.235
0.29
0.265
0.3
0.305
0.305
0.245
0.19
0.11
0.085
0.025
0.02
-0.02
-0.035
-0.035
-0.01
-0.005
-0.02
-0.035
-0.015
-0.02
0.0
-0.015
-0.02
-0.02
-0.03
-0.045
-0.035
-0.055
-0.055
-0.04
-0.06
-0.015
0.045
0.05
0.08
0.115
0.095
0.075
0.01
0.0
-0.065
-0.1
-0.095
-0.085
-0.095
-0.105
-0.095
-0.105
-0.05
0.095
0.43
0.105
-0.395
-0.27
-0.135
-0.06
-0.08
-0.085
-0.08
-0.085
-0.075
-0.065
-0.065
-0.06
-0.055
-0.04
-0.01
-0.01
0.015
0.02
0.065
0.095
0.11
0.15
0.205
0.23
0.26
0.295
0.3
0.295
0.285
0.23
0.15
0.085
0.03
0.005
-0.01
-0.025
-0.035
-0.03
-0.025
-0.025
-0.035
-0.01
-0.015
-0.005
-0.015
-0.01
-0.025
-0.025
-0.03
-0.015
-0.045
-0.04
-0.045
-0.04
-0.005
0.05
0.045
0.08
0.1
0.11
0.09
0.02
0.0
-0.04
-0.105
-0.1
-0.11
-0.09
-0.11
-0.095
-0.105
-0.07
0.005
0.26
0.215
-0.48
-0.375
-0.175
-0.07
-0.095
-0.1
-0.085
-0.095
-0.08
-0.09
-0.06
-0.07
-0.05
-0.04
-0.03
-0.03
0.01
0.015
0.06
0.085
0.11
0.15
0.195
0.23
0.26
0.275
0.3
0.31
0.285
0.22
0.19
0.105
0.025
-0.02
-0.02
-0.045
-0.045
-0.04
-0.03
-0.035
-0.03
-0.02
-0.045
-0.04
-0.05
-0.035
-0.04
-0.055
-0.045
-0.06
-0.045
-0.05
-0.045
-0.06
-0.005
0.035
0.05
0.065
0.135
0.075
0.055
0.01
-0.025
-0.085
-0.115
-0.12
-0.105
-0.115
-0.11
-0.11
-0.095
-0.075
0.11
0.43
-0.135
-0.41
-0.295
-0.175
-0.105
-0.105
-0.11
-0.1
-0.085
-0.095
-0.085
-0.08
-0.075
-0.045
-0.035
-0.04
-0.005
0.0
0.04
0.04
0.085
0.12
0.17
0.2
0.225
0.255
0.275
0.31
0.33
0.26
0.2
0.14
0.07
0.025
0.0
-0.045
-0.045
-0.05
-0.045
-0.035
-0.035
-0.045
-0.04
-0.025
-0.04
-0.025
-0.04
-0.035
-0.055
-0.045
-0.045
-0.045
-0.065
-0.04
-0.045
0.015
0.04
0.07
0.055
0.145
0.085
0.03
0.005
0.0
-0.08
-0.095
-0.12
-0.095
-0.115
-0.095
-0.11
-0.045
-0.025
0.255
0.585
-0.32
-0.37
-0.215
-0.13
-0.07
-0.105
-0.095
-0.11
-0.07
-0.095
-0.065
-0.07
-0.04
-0.055
-0.035
-0.025
0.005
0.015
0.045
0.065
0.095
0.115
0.16
0.205
0.235
0.26
0.3
0.305
0.3
0.25
0.195
0.105
0.05
0.005
-0.015
-0.03
-0.025
-0.025
-0.04
-0.035
-0.03
-0.035
-0.025
-0.015
-0.02
-0.01
-0.01
-0.03
-0.05
-0.035
-0.045
-0.055
-0.065
-0.055
-0.06
-0.005
0.05
0.06
0.055
0.12
0.08
0.05
-0.015
0.0
-0.085
-0.1
-0.11
-0.1
-0.105
-0.11
-0.12
-0.1
-0.095
0.145
0.445
-0.22
-0.42
-0.265
-0.12
-0.08
-0.09
-0.095
-0.11
-0.09
-0.095
-0.08
-0.075
-0.065
-0.065
-0.04
-0.045
-0.01
0.01
0.02
0.035
0.085
0.105
0.145
0.185
0.21
0.235
0.255
0.275
0.27
0.25
0.195
0.12
0.07
0.01
-0.025
-0.035
-0.055
-0.045
-0.035
-0.035
-0.04
-0.03
-0.035
-0.035
-0.025
-0.025
-0.015
-0.025
-0.035
-0.04
-0.045
-0.05
-0.05
-0.06
-0.06
-0.05
0.0
0.055
0.06
0.06
0.13
0.095
0.065
0.0
0.0
-0.075
-0.11
-0.1
-0.105
-0.12
-0.105
-0.12
-0.1
-0.07
0.105
0.38
-0.1
-0.46
-0.305
-0.17
-0.095
-0.1
-0.11
-0.105
-0.1
-0.095
-0.085
-0.08
-0.075
-0.07
-0.045
-0.03
0.0
0.0
0.02
0.035
0.075
0.115
0.175
0.19
0.2
0.245
0.285
0.29
0.275
0.265
0.2
0.15
0.065
0.0
-0.04
-0.04
-0.04
-0.05
-0.065
-0.05
-0.03
-0.03
-0.055
-0.025
-0.03
-0.05
-0.04
-0.03
-0.035
-0.06
-0.07
-0.04
-0.07
-0.08
-0.05
-0.015
0.05
0.05
0.04
0.11
0.1
0.055
-0.01
-0.02
-0.105
-0.11
-0.1
-0.09
-0.115
-0.135
-0.115
-0.095
-0.065
0.145
0.52
-0.11
-0.405
-0.29
-0.155
-0.095
-0.11
-0.11
-0.11
-0.08
-0.095
-0.09
-0.085
-0.055
-0.045
-0.045
-0.05
0.005
0.0
0.035
0.03
0.085
0.12
0.17
0.195
0.22
0.265
0.275
0.28
0.305
0.255
0.195
0.125
0.06
0.015
-0.03
-0.035
-0.045
-0.075
-0.055
-0.045
-0.055
-0.06
-0.05
-0.03
-0.03
-0.05
-0.045
-0.045
-0.04
-0.065
-0.045
-0.07
-0.055
-0.085
-0.065
-0.055
0.04
0.035
0.055
0.075
0.12
0.075
0.01
-0.025
-0.055
-0.12
-0.1
-0.125
-0.095
-0.13
-0.1
-0.12
-0.065
0.01
0.34
0.47
-0.4
-0.35
-0.18
-0.08
-0.085
-0.095
-0.09
-0.095
-0.075
-0.075
-0.065
-0.07
-0.05
-0.055
-0.005
-0.025
0.005
0.01
0.05
0.075
0.105
0.125
0.19
0.22
0.235
0.255
0.285
0.285
0.28
0.235
0.16
0.095
0.04
0.005
-0.01
-0.06
-0.05
-0.045
-0.045
-0.045
-0.04
-0.03
-0.03
-0.025
-0.03
-0.055
-0.035
-0.06
-0.04
-0.06
-0.055
-0.045
-0.05
-0.06
-0.055
-0.035
0.015
0.03
0.065
0.07
0.12
0.085
0.015
-0.005
-0.03
-0.11
-0.1
-0.12
-0.105
-0.12
-0.1
-0.125
-0.075
-0.03
0.24
0.41
-0.45
-0.38
-0.185
-0.065
-0.08
-0.105
-0.08
-0.11
-0.075
-0.09
-0.065
-0.08
-0.05
-0.045
-0.015
-0.02
0.0
0.005
0.04
0.07
0.1
0.13
0.175
0.2
0.245
0.255
0.27
0.285
0.28
0.23
0.17
0.095
0.04
-0.005
-0.01
-0.055
-0.055
-0.035
-0.055
-0.045
-0.015
-0.04
-0.045
-0.04
-0.05
-0.035
-0.03
-0.025
-0.045
-0.05
-0.045
-0.08
-0.05
-0.065
-0.065
-0.035
0.04
0.025
0.065
0.075
0.11
0.085
0.02
-0.02
-0.06
-0.13
-0.105
-0.125
-0.1
-0.11
-0.11
-0.125
-0.07
-0.01
0.245
0.365
-0.455
-0.37
-0.23
-0.11
-0.095
-0.11
-0.095
-0.095
-0.09
-0.11
-0.065
-0.065
-0.055
-0.065
-0.045
-0.03
0.0
0.01
0.065
0.065
0.115
0.13
0.17
0.21
0.26
0.255
0.28
0.29
0.28
0.23
0.18
0.11
0.01
-0.015
-0.035
-0.045
-0.045
-0.05
-0.055
-0.06
-0.035
-0.045
-0.02
-0.035
-0.045
-0.045
-0.06
-0.05
-0.025
-0.04
-0.065
-0.07
-0.075
-0.06
-0.005
0.065
0.025
0.06
0.105
0.11
0.07
-0.01
-0.01
-0.075
-0.1
-0.09
-0.12
-0.125
-0.095
-0.12
-0.07
-0.055
0.17
0.53
-0.08
-0.4
-0.25
-0.145
-0.095
-0.12
-0.065
-0.1
-0.09
-0.095
-0.06
-0.06
-0.07
-0.06
-0.035
-0.025
-0.01
0.01
0.03
0.065
0.1
0.12
0.165
0.205
0.245
0.27
0.295
0.295
0.305
0.265
0.225
0.14
0.09
0.025
0.005
-0.015
-0.03
-0.025
-0.005
-0.02
-0.02
-0.01
-0.015
-0.02
-0.015
-0.015
-0.03
-0.025
-0.03
-0.035
-0.05
-0.035
-0.045
-0.05
-0.045
0.0
0.05
0.05
0.07
0.13
0.105
0.07
0.0
0.025
-0.065
-0.09
-0.12
-0.105
-0.12
-0.11
-0.1
-0.085
-0.06
0.185
0.52
-0.145
-0.395
-0.24
-0.12
-0.07
-0.09
-0.08
-0.1
-0.09
-0.095
-0.065
-0.065
-0.055
-0.065
-0.05
-0.015
0.0
0.005
0.045
0.06
0.075
0.105
0.14
0.18
0.22
0.245
0.265
0.285
0.275
0.25
0.2
0.115
0.07
0.0
-0.015
-0.02
-0.035
-0.035
-0.035
-0.025
-0.035
-0.03
-0.03
-0.02
-0.02
-0.025
-0.025
-0.03
-0.025
-0.02
-0.04
-0.05
-0.06
-0.055
-0.025
0.035
0.05
0.08
0.085
0.11
0.09
0.04
0.0
-0.03
-0.1
-0.095
-0.12
-0.1
-0.105
-0.085
-0.125
-0.055
-0.02
0.225
0.315
-0.455
-0.38
-0.185
-0.065
-0.1
-0.105
-0.09
-0.1
-0.075
-0.095
-0.07
-0.08
-0.04
-0.05
-0.02
-0.015
0.0
0.015
0.045
0.075
0.115
0.135
0.175
0.195
0.25
0.265
0.28
0.28
0.27
0.245
0.175
0.1
0.045
0.0
-0.02
-0.035
-0.04
-0.05
-0.045
-0.05
-0.035
-0.035
-0.01
-0.02
-0.035
-0.045
-0.03
-0.045
-0.04
-0.06
-0.04
-0.065
-0.065
-0.05
0.01
0.045
0.065
0.05
0.125
0.11
0.03
0.015
-0.015
-0.1
-0.1
-0.12
-0.1
-0.11
-0.08
-0.105
-0.07
-0.055
0.19
0.51
-0.345
-0.4
-0.235
-0.13
-0.1
-0.1
-0.085
-0.11
-0.075
-0.09
-0.055
-0.085
-0.055
-0.065
-0.015
-0.015
0.0
0.0
0.04
0.055
0.115
0.135
0.16
0.2
0.215
0.27
0.295
0.285
0.29
0.24
0.18
0.13
0.045
-0.005
-0.015
-0.035
-0.055
-0.04
-0.045
-0.05
-0.035
-0.04
-0.015
-0.04
-0.045
-0.04
-0.02
-0.045
-0.045
-0.065
-0.05
-0.065
-0.05
-0.035
0.025
0.035
0.075
0.09
0.11
0.085
0.015
0.0
-0.03
-0.105
-0.1
-0.13
-0.1
-0.105
-0.08
-0.135
-0.05
0.015
0.335
0.49
-0.38
-0.33
-0.195
-0.08
-0.08
-0.13
-0.095
-0.11
-0.08
-0.1
-0.07
-0.075
-0.045
-0.06
-0.01
-0.025
0.005
0.015
0.055
0.05
0.11
0.135
0.175
0.2
0.24
0.275
0.295
0.275
0.275
0.225
0.16
0.095
0.05
0.01
-0.005
-0.035
-0.045
-0.04
-0.04
-0.025
-0.02
-0.03
-0.025
-0.025
-0.02
-0.03
-0.01
-0.05
-0.045
-0.04
-0.045
-0.055
-0.045
-0.02
0.035
0.05
0.065
0.085
0.105
0.08
0.005
-0.015
-0.05
-0.105
-0.105
-0.12
-0.115
-0.11
-0.095
-0.125
-0.05
0.05
0.335
0.25
-0.41
-0.325
-0.14
-0.055
-0.1
-0.105
-0.1
-0.1
-0.095
-0.09
-0.075
-0.075
-0.065
-0.055
-0.03
-0.025
0.0
0.01
0.045
0.07
0.115
0.14
0.18
0.2
0.225
0.245
0.26
0.255
0.24
0.195
0.145
0.075
0.025
-0.005
-0.03
-0.04
-0.05
-0.045
-0.035
-0.045
-0.025
-0.03
-0.02
-0.015
-0.035
-0.03
-0.035
-0.04
-0.05
-0.045
-0.045
-0.05
-0.05
0.0
0.055
0.035
0.07
0.12
0.09
0.07
0.0
0.0
-0.065
-0.115
-0.11
-0.11
-0.11
-0.11
-0.1
-0.105
-0.06
0.09
0.32
-0.05
-0.45
-0.31
-0.15
-0.06
-0.095
-0.105
-0.09
-0.085
-0.085
-0.08
-0.075
-0.06
-0.055
-0.045
-0.02
-0.005
0.02
0.02
0.06
0.075
0.115
0.15
0.195
0.22
0.245
0.265
0.285
0.29
0.25
0.205
0.125
0.06
0.01
-0.015
-0.025
-0.07
-0.06
-0.06
-0.055
-0.04
-0.045
-0.04
-0.045
-0.055
-0.03
-0.035
-0.065
-0.065
-0.045
-0.055
-0.07
-0.04
0.01
0.02
0.075
0.07
0.115
0.09
0.025
-0.01
-0.005
-0.1
-0.12
-0.135
-0.1
-0.125
-0.09
-0.125
-0.1
-0.09
0.2
0.51
-0.32
-0.41
-0.27
-0.155
-0.11
-0.095
-0.1
-0.14
-0.1
-0.095
-0.09
-0.07
-0.075
-0.075
-0.035
-0.025
0.0
-0.01
0.01
0.055
0.095
0.125
0.14
0.185
0.215
0.25
0.295
0.265
0.27
0.23
0.185
0.125
0.06
-0.005
-0.015
-0.035
-0.035
-0.04
-0.04
-0.04
-0.025
-0.015
-0.04
-0.03
-0.035
-0.025
-0.025
-0.05
-0.055
-0.04
-0.05
-0.045
-0.015
0.05
0.025
0.055
0.105
0.11
0.09
0.0
-0.025
-0.055
-0.095
-0.11
-0.115
-0.11
-0.12
-0.1
-0.13
-0.06
0.11
0.42
0.26
-0.39
-0.295
-0.15
-0.085
-0.1
-0.095
-0.1
-0.085
-0.08
-0.09
-0.07
-0.065
-0.055
-0.06
-0.03
0.0
0.0
0.015
0.035
0.07
0.11
0.14
0.175
0.2
0.235
0.26
0.28
0.265
0.26
0.205
0.135
0.075
0.035
-0.01
-0.02
-0.025
-0.035
-0.025
-0.035
-0.03
-0.02
-0.03
-0.015
-0.045
-0.03
-0.04
-0.025
-0.05
-0.045
-0.06
-0.045
-0.03
0.03
0.035
0.065
0.07
0.12
0.075
0.02
-0.015
-0.005
-0.09
-0.11
-0.135
-0.11
-0.135
-0.105
-0.14
-0.075
-0.03
0.28
0.495
-0.455
-0.385
-0.195
-0.08
-0.105
-0.12
-0.1
-0.115
-0.095
-0.11
-0.075
-0.085
-0.055
-0.075
-0.045
-0.03
0.0
0.005
0.04
0.05
0.095
0.115
0.155
0.19
0.225
0.23
0.26
0.265
0.24
0.2
0.135
0.075
0.025
-0.03
-0.03
-0.045
-0.055
-0.055
-0.045
-0.05
-0.05
-0.045
-0.04
-0.04
-0.05
-0.05
-0.035
-0.06
-0.06
-0.06
-0.065
-0.055
0.0
0.045
0.055
0.055
0.105
0.1
0.07
0.0
0.0
-0.07
-0.105
-0.105
-0.11
-0.115
-0.105
-0.125
-0.11
-0.065
0.12
0.345
-0.17
-0.44
-0.28
-0.135
-0.08
-0.105
-0.095
-0.1
-0.1
-0.09
-0.085
-0.07
-0.05
-0.055
-0.035
-0.03
-0.01
0.015
0.015
0.04
0.1
0.115
0.16
0.17
0.215
0.245
0.275
0.3
0.285
0.245
0.175
0.115
0.05
0.0
-0.005
-0.04
-0.03
-0.045
-0.045
-0.04
-0.04
-0.025
-0.04
-0.045
-0.025
-0.04
-0.025
-0.055
-0.045
-0.045
-0.04
-0.03
0.01
0.03
0.05
0.06
0.105
0.085
0.055
-0.01
-0.015
-0.095
-0.11
-0.145
-0.105
-0.125
-0.085
-0.105
-0.07
-0.045
0.15
0.49
-0.275
-0.38
-0.26
-0.14
-0.09
-0.105
-0.09
-0.115
-0.085
-0.085
-0.06
-0.075
-0.06
-0.07
-0.015
-0.015
-0.005
0.01
0.05
0.05
0.105
0.135
0.17
0.2
0.235
0.255
0.29
0.28
0.28
0.26
0.18
0.11
0.035
0.025
-0.015
-0.04
-0.04
-0.045
-0.03
-0.035
-0.03
-0.03
-0.01
-0.03
-0.04
-0.045
0.0
-0.04
-0.06
-0.06
-0.035
-0.04
0.02
0.035
0.065
0.06
0.135
0.09
0.055
-0.025
0.02
-0.085
-0.125
-0.125
-0.105
-0.105
-0.1
-0.11
-0.09
-0.04
0.24
0.605
-0.29
-0.37
-0.215
-0.09
-0.08
-0.1
-0.09
-0.09
-0.075
-0.095
-0.095
-0.075
-0.055
-0.055
-0.045
-0.04
-0.005
0.0
0.035
0.05
0.07
0.12
0.175
0.185
0.22
0.235
0.27
0.27
0.275
0.23
0.17
0.085
0.045
0.0
-0.02
-0.03
-0.035
-0.045
-0.03
-0.035
-0.03
-0.03
-0.03
-0.025
-0.02
-0.03
-0.02
-0.035
-0.03
-0.055
-0.04
-0.04
0.01
0.055
0.06
0.065
0.13
0.09
0.075
0.0
-0.005
-0.08
-0.105
-0.115
-0.1
-0.105
-0.105
-0.11
-0.09
-0.075
0.21
0.515
-0.305
-0.415
-0.235
-0.095
-0.075
-0.105
-0.09
-0.11
-0.085
-0.08
-0.075
-0.08
-0.045
-0.065
-0.035
-0.03
0.0
0.0
0.045
0.06
0.085
0.115
0.165
0.18
0.215
0.235
0.26
0.27
0.26
0.235
0.165
0.095
0.035
-0.01
-0.02
-0.045
-0.045
-0.045
-0.035
-0.045
-0.04
-0.045
-0.035
-0.025
-0.035
-0.04
-0.05
-0.05
-0.04
-0.05
-0.07
-0.055
-0.02
0.05
0.045
0.065
0.09
0.09
0.06
-0.005
0.0
-0.06
-0.115
-0.115
-0.135
-0.12
-0.115
-0.115
-0.12
-0.065
0.07
0.29
-0.015
-0.475
-0.34
-0.155
-0.075
-0.085
-0.095
-0.1
-0.105
-0.085
-0.08
-0.08
-0.07
-0.045
-0.04
-0.03
0.0
0.0
0.02
0.05
0.09
0.13
0.155
0.19
0.22
0.24
0.275
0.275
0.29
0.255
0.2
0.125
0.05
0.0
0.0
-0.035
-0.055
-0.04
-0.045
-0.045
-0.035
-0.025
-0.02
-0.04
-0.05
-0.045
-0.02
-0.02
-0.045
-0.055
-0.055
-0.04
0.02
0.045
0.075
0.065
0.125
0.085
0.06
0.005
-0.025
-0.1
-0.1
-0.115
-0.085
-0.12
-0.1
-0.11
-0.065
-0.06
0.175
0.485
-0.34
-0.385
-0.245
-0.135
-0.09
-0.1
-0.085
-0.125
-0.1
-0.095
-0.07
-0.07
-0.045
-0.05
-0.025
-0.03
-0.01
0.01
0.055
0.075
0.09
0.13
0.18
0.19
0.235
0.25
0.275
0.28
0.3
0.23
0.175
0.095
0.03
-0.01
-0.02
-0.02
-0.04
-0.055
-0.045
-0.045
-0.025
-0.05
-0.03
-0.045
-0.03
-0.045
-0.03
-0.05
-0.06
-0.08
-0.06
-0.015
0.025
0.04
0.065
0.08
0.11
0.08
0.0
-0.01
-0.05
-0.115
-0.13
-0.14
-0.09
-0.105
-0.105
-0.115
-0.05
0.025
0.325
0.38
-0.43
-0.335
-0.185
-0.08
-0.095
-0.105
-0.105
-0.105
-0.105
-0.12
-0.07
-0.075
-0.045
-0.04
-0.025
-0.03
-0.005
-0.005
0.03
0.05
0.095
0.14
0.18
0.205
0.23
0.255
0.265
0.25
0.24
0.2
0.145
0.07
0.03
0.0
-0.025
-0.05
-0.035
-0.035
-0.035
-0.045
-0.03
-0.025
-0.03
-0.03
-0.03
-0.04
-0.035
-0.07
-0.05
-0.06
-0.05
-0.055
0.0
0.035
0.045
0.045
0.11
0.075
0.045
-0.01
0.0
-0.085
-0.11
-0.12
-0.105
-0.125
-0.1
-0.125
-0.095
-0.08
0.165
0.445
-0.325
-0.42
-0.24
-0.11
-0.095
-0.12
-0.09
-0.1
-0.085
-0.09
-0.08
-0.08
-0.06
-0.06
-0.03
-0.035
0.0
0.005
0.045
0.055
0.09
0.12
0.155
0.18
0.21
0.23
0.265
0.265
0.26
0.235
0.17
0.105
0.045
0.005
-0.025
-0.045
-0.045
-0.055
-0.04
-0.025
-0.025
-0.035
-0.025
-0.035
-0.025
-0.035
-0.04
-0.03
-0.035
-0.055
-0.055
-0.035
0.005
0.045
0.065
0.06
0.13
0.095
0.08
0.005
0.005
-0.09
-0.1
-0.11
-0.1
-0.1
-0.09
-0.115
-0.09
-0.08
0.15
0.42
-0.34
-0.445
-0.255
-0.12
-0.09
-0.11
-0.095
-0.105
-0.09
-0.095
-0.075
-0.08
-0.06
-0.075
-0.03
-0.03
0.0
0.005
0.03
0.045
0.11
0.135
0.165
0.18
0.22
0.255
0.26
0.28
0.26
0.21
0.165
0.105
0.045
-0.015
-0.035
-0.035
-0.055
-0.05
-0.06
-0.04
-0.035
-0.03
-0.045
-0.04
-0.04
-0.02
-0.03
-0.04
-0.055
-0.05
-0.045
-0.04
-0.015
0.05
0.045
0.065
0.11
0.12
0.075
-0.005
0.0
-0.075
-0.115
-0.12
-0.1
-0.11
-0.095
-0.105
-0.105
-0.07
0.06
0.35
0.075
-0.425
-0.315
-0.2
-0.11
-0.105
-0.115
-0.11
-0.105
-0.1
-0.09
-0.075
-0.075
-0.05
-0.06
-0.045
-0.025
0.0
0.025
0.04
0.055
0.1
0.135
0.165
0.215
0.225
0.245
0.26
0.255
0.25
0.18
0.12
0.045
0.02
-0.01
-0.035
-0.055
-0.055
-0.05
-0.045
-0.015
-0.06
-0.04
-0.04
-0.035
-0.05
-0.055
-0.045
-0.05
-0.04
-0.055
-0.075
-0.05
-0.03
0.04
0.04
0.065
0.085
0.115
0.095
0.025
0.005
-0.02
-0.095
-0.095
-0.12
-0.1
-0.115
-0.095
-0.125
-0.06
-0.02
0.27
0.465
-0.4
-0.36
-0.195
-0.075
-0.08
-0.1
-0.09
-0.095
-0.08
-0.095
-0.075
-0.095
-0.045
-0.06
-0.02
-0.025
0.01
0.015
0.05
0.06
0.1
0.12
0.17
0.195
0.215
0.235
0.26
0.26
0.245
0.205
0.145
0.075
0.025
-0.01
-0.03
-0.04
-0.04
-0.04
-0.03
-0.025
-0.025
-0.03
-0.015
-0.03
-0.03
-0.04
-0.04
-0.04
-0.035
-0.055
-0.045
-0.065
-0.05
-0.055
0.01
0.035
0.07
0.065
0.115
0.08
0.04
0.0
-0.005
-0.1
-0.1
-0.13
-0.115
-0.12
-0.1
-0.12
-0.09
-0.095
0.155
0.455
-0.385
-0.43
-0.245
-0.11
-0.08
-0.105
-0.1
-0.115
-0.095
-0.1
-0.07
-0.08
-0.06
-0.07
-0.03
-0.02
-0.005
0.01
0.035
0.06
0.095
0.11
0.15
0.18
0.215
0.24
0.25
0.255
0.26
0.215
0.16
0.1
0.05
0.0
-0.02
-0.04
-0.045
-0.05
-0.03
-0.035
-0.025
-0.02
-0.04
-0.035
-0.03
-0.04
-0.04
-0.03
-0.045
-0.05
-0.055
-0.06
-0.06
-0.045
-0.005
0.035
0.04
0.06
0.12
0.105
0.075
0.015
-0.005
-0.09
-0.11
-0.1
-0.11
-0.11
-0.115
-0.11
-0.1
-0.055
0.1
0.37
-0.025
-0.425
-0.285
-0.175
-0.075
-0.1
-0.085
-0.08
-0.095
-0.075
-0.07
-0.07
-0.05
-0.04
-0.045
0.0
0.0
0.02
0.035
0.05
0.1
0.13
0.16
0.185
0.22
0.255
0.265
0.27
0.26
0.255
0.215
0.13
0.085
0.03
0.0
-0.02
-0.04
-0.035
-0.03
-0.025
-0.01
-0.03
-0.015
-0.005
-0.01
-0.03
-0.025
-0.035
-0.025
-0.045
-0.04
-0.055
-0.04
-0.035
0.015
0.035
0.085
0.09
0.145
0.095
0.035
-0.005
0.0
-0.075
-0.09
-0.105
-0.09
-0.105
-0.08
-0.11
-0.07
-0.045
0.19
0.54
-0.295
-0.385
-0.245
-0.135
-0.1
-0.095
-0.08
-0.105
-0.075
-0.09
-0.05
-0.07
-0.06
-0.055
-0.015
-0.01
0.0
0.02
0.05
0.065
0.115
0.14
0.175
0.185
0.22
0.245
0.25
0.265
0.265
0.235
0.175
0.1
0.055
0.02
-0.01
-0.025
-0.025
-0.03
-0.025
-0.025
-0.01
-0.01
-0.015
-0.005
-0.01
-0.02
-0.025
-0.04
-0.035
-0.05
-0.04
-0.055
-0.05
-0.04
0.005
0.04
0.055
0.075
0.115
0.08
0.075
0.0
0.005
-0.07
-0.11
-0.105
-0.105
-0.11
-0.1
-0.105
-0.115
-0.08
0.13
0.425
-0.125
-0.39
-0.24
-0.115
-0.08
-0.105
-0.09
-0.1
-0.095
-0.09
-0.085
-0.085
-0.05
-0.055
-0.05
-0.025
-0.005
0.0
0.035
0.055
0.085
0.12
0.135
0.175
0.2
0.215
0.23
0.24
0.24
0.22
0.17
0.115
0.055
0.005
-0.01
-0.035
-0.03
-0.035
-0.03
-0.035
-0.03
-0.02
-0.035
-0.02
-0.02
-0.02
-0.02
-0.035
-0.05
-0.05
-0.055
-0.05
-0.06
-0.06
-0.015
0.05
0.05
0.065
0.11
0.09
0.075
0.01
-0.005
-0.075
-0.1
-0.1
-0.115
-0.115
-0.115
-0.105
-0.105
-0.09
0.06
0.32
-0.045
-0.435
-0.315
-0.16
-0.085
-0.1
-0.1
-0.095
-0.095
-0.095
-0.085
-0.075
-0.07
-0.045
-0.045
-0.025
-0.01
0.0
0.025
0.04
0.08
0.105
0.15
0.175
0.195
0.23
0.235
0.25
0.25
0.22
0.185
0.11
0.04
-0.01
-0.015
-0.045
-0.06
-0.06
-0.055
-0.035
-0.04
-0.05
-0.04
-0.055
-0.05
-0.05
-0.04
-0.05
-0.055
-0.075
-0.055
-0.075
-0.06
-0.06
0.035
0.035
0.055
0.085
0.11
0.085
0.02
-0.02
-0.06
-0.105
-0.105
-0.135
-0.095
-0.115
-0.115
-0.135
-0.07
-0.035
0.215
0.395
-0.405
-0.335
-0.205
-0.105
-0.085
-0.12
-0.085
-0.115
-0.09
-0.09
-0.08
-0.08
-0.045
-0.065
-0.035
-0.035
0.0
0.01
0.05
0.05
0.085
0.125
0.155
0.18
0.205
0.24
0.24
0.245
0.24
0.2
0.12
0.055
0.015
-0.025
-0.02
-0.05
-0.065
-0.05
-0.035
-0.035
-0.05
-0.035
-0.05
-0.035
-0.03
-0.035
-0.03
-0.07
-0.06
-0.05
-0.065
-0.055
-0.02
0.06
0.04
0.06
0.12
0.075
0.1
0.01
0.0
-0.075
-0.095
-0.11
-0.125
-0.1
-0.13
-0.085
-0.1
-0.055
0.055
0.385
0.095
-0.385
-0.285
-0.195
-0.12
-0.105
-0.1
-0.11
-0.105
-0.105
-0.09
-0.08
-0.065
-0.05
-0.05
-0.035
-0.025
0.01
0.02
0.04
0.08
0.11
0.14
0.17
0.2
0.23
0.255
0.275
0.275
0.245
0.18
0.125
0.07
0.015
-0.01
-0.025
-0.03
-0.03
-0.025
-0.015
-0.025
-0.01
-0.005
-0.02
-0.035
-0.02
-0.025
-0.03
-0.05
-0.04
-0.055
-0.035
-0.04
0.02
0.045
0.065
0.05
0.1
0.095
0.05
-0.015
-0.01
-0.095
-0.11
-0.13
-0.095
-0.125
-0.1
-0.12
-0.09
-0.07
0.195
0.48
-0.38
-0.38
-0.195
-0.085
-0.095
-0.105
-0.09
-0.11
-0.085
-0.095
-0.075
-0.07
-0.045
-0.05
-0.03
-0.025
0.005
0.01
0.045
0.06
0.105
0.135
0.175
0.19
0.215
0.23
0.265
0.265
0.26
0.215
0.165
0.09
0.04
0.005
-0.02
-0.04
-0.04
-0.03
-0.02
-0.015
-0.02
-0.015
-0.015
-0.01
-0.03
-0.02
-0.025
-0.025
-0.02
-0.045
-0.035
-0.035
0.0
0.06
0.065
0.06
0.115
0.1
0.07
0.005
0.005
-0.07
-0.1
-0.095
-0.095
-0.1
-0.12
-0.115
-0.115
-0.075
0.09
0.325
-0.095
-0.435
-0.29
-0.14
-0.08
-0.095
-0.095
-0.09
-0.095
-0.075
-0.065
-0.06
-0.06
-0.05
-0.035
-0.02
0.0
0.01
0.025
0.05
0.095
0.13
0.16
0.19
0.205
0.245
0.27
0.265
0.28
0.24
0.185
0.115
0.055
0.025
-0.025
-0.04
-0.035
-0.035
-0.05
-0.045
-0.03
-0.025
-0.03
-0.015
-0.02
-0.04
-0.045
-0.035
-0.045
-0.04
-0.06
-0.05
-0.01
0.055
0.05
0.065
0.12
0.12
0.095
0.02
0.0
-0.075
-0.1
-0.085
-0.11
-0.1
-0.1
-0.1
-0.095
-0.055
0.06
0.355
0.11
-0.385
-0.31
-0.205
-0.115
-0.08
-0.09
-0.085
-0.095
-0.08
-0.08
-0.055
-0.065
-0.04
-0.045
-0.025
0.0
0.0
0.035
0.065
0.08
0.115
0.14
0.19
0.215
0.23
0.255
0.27
0.28
0.26
0.19
0.12
0.07
0.01
-0.01
-0.01
-0.055
-0.04
-0.045
-0.015
-0.025
-0.035
-0.03
-0.04
-0.015
0.0
-0.045
-0.04
-0.05
-0.055
-0.05
-0.045
-0.04
0.01
0.03
0.065
0.045
0.115
0.08
0.03
0.0
-0.015
-0.13
-0.135
-0.1
-0.105
-0.13
-0.105
-0.14
-0.085
-0.02
0.3
0.535
-0.39
-0.34
-0.2
-0.105
-0.09
-0.11
-0.085
-0.1
-0.075
-0.085
-0.055
-0.08
-0.055
-0.045
-0.01
-0.015
0.005
0.0
0.045
0.075
0.095
0.13
0.175
0.19
0.23
0.255
0.27
0.275
0.25
0.22
0.155
0.075
0.04
-0.005
-0.045
-0.04
-0.035
-0.04
-0.035
-0.035
-0.035
-0.02
-0.015
-0.03
-0.04
-0.035
-0.035
-0.055
-0.035
-0.045
-0.055
-0.06
-0.015
0.04
0.045
0.065
0.085
0.095
0.08
0.01
0.0
-0.05
-0.1
-0.105
-0.11
-0.105
-0.115
-0.1
-0.12
-0.06
0.085
0.34
0.105
-0.42
-0.3
-0.135
-0.06
-0.085
-0.095
-0.095
-0.09
-0.08
-0.085
-0.075
-0.07
-0.05
-0.05
-0.015
-0.015
0.015
0.025
0.05
0.075
0.125
0.145
0.175
0.2
0.22
0.255
0.255
0.27
0.24
0.18
0.115
0.055
0.0
-0.025
-0.035
-0.045
-0.04
-0.04
-0.035
-0.035
-0.04
-0.02
-0.045
-0.015
-0.04
-0.035
-0.04
-0.03
-0.045
-0.04
-0.055
-0.05
-0.03
0.05
0.055
0.065
0.09
0.1
0.085
0.025
0.01
-0.035
-0.105
-0.09
-0.11
-0.09
-0.12
-0.1
-0.105
-0.05
0.02
0.235
0.205
-0.485
-0.37
-0.18
-0.075
-0.09
-0.11
-0.1
-0.11
-0.08
-0.085
-0.07
-0.075
-0.05
-0.055
-0.02
-0.015
0.005
0.005
0.045
0.07
0.105
0.145
0.18
0.215
0.24
0.255
0.275
0.29
0.255
0.21
0.14
0.08
0.015
-0.03
-0.055
-0.065
-0.08
-0.055
-0.045
-0.03
-0.045
-0.03
-0.05
-0.05
-0.03
-0.03
-0.05
-0.05
-0.065
-0.055
-0.065
-0.055
-0.02
0.035
0.045
0.065
0.1
0.105
0.085
0.0
-0.01
-0.035
-0.1
-0.095
-0.125
-0.115
-0.115
-0.09
-0.13
-0.075
-0.01
0.24
0.245
-0.445
-0.37
-0.235
-0.13
-0.105
-0.13
-0.115
-0.115
-0.085
-0.115
-0.08
-0.075
-0.06
-0.075
-0.055
-0.08
-0.02
0.125
0.11
0.115
0.125
0.145
0.2
0.22
0.235
0.25
0.285
0.28
0.245
0.195
0.135
0.065
0.015
-0.015
-0.04
-0.06
-0.055
-0.05
-0.05
-0.025
-0.03
-0.025
-0.02
-0.04
-0.04
-0.035
-0.02
-0.035
-0.045
-0.05
-0.085
-0.055
-0.01
0.06
0.05
0.065
0.11
0.13
0.08
0.005
-0.005
-0.06
-0.11
-0.12
-0.125
-0.105
-0.125
-0.1
-0.1
-0.075
0.02
0.355
0.305
-0.38
-0.32
-0.185
-0.09
-0.085
-0.135
-0.09
-0.09
-0.095
-0.09
-0.08
-0.09
-0.07
-0.065
-0.015
-0.005
0.01
0.025
0.055
0.085
0.125
0.16
0.19
0.2
0.245
0.265
0.265
0.29
0.27
0.205
0.135
0.06
0.03
-0.015
-0.035
-0.04
-0.04
-0.03
-0.04
-0.02
-0.02
-0.02
-0.045
-0.02
-0.035
-0.035
-0.04
-0.035
-0.04
-0.04
-0.05
-0.05
-0.055
0.0
0.045
0.06
0.065
0.13
0.11
0.05
-0.005
0.0
-0.095
-0.09
-0.105
-0.09
-0.12
-0.08
-0.1
-0.08
-0.055
0.25
0.555
-0.395
-0.405
-0.215
-0.08
-0.075
-0.115
-0.085
-0.105
-0.085
-0.11
-0.08
-0.08
-0.05
-0.06
-0.025
-0.045
0.0
0.0
0.045
0.05
0.09
0.11
0.15
0.195
0.215
0.235
0.26
0.255
0.255
0.21
0.155
0.085
0.03
0.0
-0.03
-0.035
-0.04
-0.04
-0.045
-0.04
-0.03
-0.02
-0.03
-0.02
-0.02
-0.02
-0.01
-0.03
-0.015
-0.025
-0.025
-0.05
-0.03
0.0
0.065
0.04
0.07
0.1
0.08
0.06
0.0
-0.01
-0.06
-0.105
-0.11
-0.105
-0.105
-0.12
-0.11
-0.115
-0.05
0.075
0.345
0.1
-0.465
-0.345
-0.185
-0.08
-0.09
-0.11
-0.1
-0.105
-0.105
-0.085
-0.07
-0.065
-0.07
-0.045
0.0
-0.01
0.005
0.025
0.05
0.08
0.12
0.14
0.18
0.205
0.26
0.26
0.28
0.285
0.25
0.19
0.13
0.09
0.015
-0.025
-0.055
-0.06
-0.035
-0.04
-0.065
-0.06
-0.05
-0.04
-0.035
-0.035
-0.06
-0.055
-0.03
-0.055
-0.07
-0.075
-0.065
-0.065
-0.015
0.04
0.055
0.025
0.12
0.09
0.07
0.0
-0.02
-0.07
-0.09
-0.115
-0.105
-0.14
-0.11
-0.09
-0.105
-0.065
0.145
0.525
-0.1
-0.36
-0.265
-0.165
-0.105
-0.1
-0.105
-0.085
-0.09
-0.105
-0.075
-0.09
-0.06
-0.075
-0.03
-0.045
0.01
-0.01
0.025
0.055
0.075
0.09
0.125
0.18
0.22
0.23
0.235
0.265
0.265
0.235
0.205
0.11
0.05
-0.005
-0.035
-0.035
-0.045
-0.04
-0.06
-0.05
-0.055
-0.025
-0.035
-0.02
-0.03
-0.03
-0.055
-0.055
-0.045
-0.035
-0.055
-0.06
-0.05
-0.02
0.02
0.045
0.065
0.13
0.09
0.08
-0.02
0.015
-0.07
-0.12
-0.105
-0.12
-0.12
-0.1
-0.105
-0.115
-0.045
0.21
0.525
-0.1
-0.405
-0.25
-0.125
-0.08
-0.075
-0.1
-0.105
-0.095
-0.07
-0.085
-0.085
-0.075
-0.09
-0.055
-0.04
-0.015
0.0
0.035
0.05
0.1
0.13
0.155
0.195
0.23
0.245
0.255
0.255
0.28
0.25
0.175
0.125
0.08
0.025
0.0
-0.015
-0.025
-0.04
-0.04
-0.035
-0.03
-0.02
-0.035
-0.03
-0.035
-0.03
-0.03
-0.03
-0.045
-0.035
-0.05
-0.02
-0.035
0.02
0.07
0.085
0.07
0.12
0.1
0.065
0.0
0.015
-0.085
-0.11
-0.12
-0.105
-0.12
-0.095
-0.125
-0.095
-0.085
0.18
0.475
-0.405
-0.425
-0.225
-0.09
-0.08
-0.105
-0.08
-0.1
-0.065
-0.085
-0.055
-0.08
-0.06
-0.055
-0.03
-0.025
0.0
0.01
0.025
0.045
0.09
0.105
0.135
0.18
0.235
0.24
0.25
0.25
0.255
0.215
0.165
0.08
0.025
-0.005
-0.03
-0.04
-0.07
-0.06
-0.05
-0.03
-0.055
-0.07
-0.06
-0.05
-0.045
-0.05
-0.04
-0.055
-0.055
-0.05
-0.085
-0.07
0.0
0.055
0.045
0.055
0.125
0.105
0.095
0.0
-0.015
-0.06
-0.11
-0.115
-0.125
-0.1
-0.12
-0.105
-0.12
-0.07
0.095
0.395
0.0
-0.445
-0.35
-0.225
-0.115
-0.12
-0.12
-0.135
-0.11
-0.085
-0.085
-0.095
-0.075
-0.06
-0.05
-0.03
-0.03
-0.005
0.0
0.04
0.085
0.1
0.14
0.165
0.19
0.205
0.245
0.255
0.245
0.22
0.155
0.085
0.05
-0.005
-0.035
-0.05
-0.025
-0.055
-0.05
-0.04
-0.045
-0.045
-0.05
-0.02
-0.035
-0.04
-0.065
-0.05
-0.045
-0.035
-0.055
-0.075
-0.03
0.03
0.075
0.04
0.105
0.085
0.065
0.015
-0.02
-0.06
-0.11
-0.09
-0.12
-0.115
-0.09
-0.1
-0.11
-0.06
0.18
0.525
0.0
-0.41
-0.275
-0.155
-0.065
-0.085
-0.085
-0.1
-0.085
-0.09
-0.06
-0.065
-0.08
-0.045
-0.05
-0.03
-0.01
0.0
0.04
0.075
0.065
0.1
0.15
0.16
0.195
0.23
0.22
0.24
0.24
0.195
0.155
0.085
0.035
-0.005
-0.045
-0.05
-0.055
-0.05
-0.035
-0.035
-0.035
-0.025
-0.04
-0.045
-0.035
-0.04
-0.03
-0.05
-0.045
-0.055
-0.04
-0.06
-0.005
0.05
0.055
0.04
0.11
0.075
0.05
-0.015
0.005
-0.095
-0.11
-0.13
-0.085
-0.12
-0.095
-0.095
-0.09
-0.05
0.24
0.535
-0.3
-0.42
-0.23
-0.085
-0.08
-0.1
-0.095
-0.1
-0.09
-0.085
-0.095
-0.08
-0.07
-0.065
-0.035
-0.02
-0.005
-0.01
0.03
0.045
0.085
0.12
0.17
0.19
0.22
0.235
0.255
0.26
0.25
0.215
0.16
0.09
0.045
-0.01
-0.025
-0.03
-0.035
-0.065
-0.035
-0.035
-0.035
-0.04
-0.02
-0.03
-0.04
-0.04
-0.04
-0.05
-0.05
-0.06
-0.06
-0.04
0.005
0.03
0.055
0.045
0.1
0.08
0.04
-0.025
-0.015
-0.11
-0.12
-0.145
-0.115
-0.125
-0.11
-0.135
-0.105
-0.09
0.16
0.42
-0.495
-0.46
-0.25
-0.115
-0.095
-0.125
-0.11
-0.13
-0.095
-0.1
-0.075
-0.09
-0.07
-0.075
-0.035
-0.05
-0.01
0.0
0.015
0.035
0.075
0.13
0.16
0.175
0.21
0.235
0.265
0.25
0.255
0.2
0.12
0.065
0.005
-0.035
-0.065
-0.08
-0.065
-0.075
-0.075
-0.085
-0.065
-0.075
-0.06
-0.06
-0.07
-0.06
-0.065
-0.075
-0.085
-0.095
-0.085
-0.01
0.03
0.025
0.04
0.09
0.075
0.06
-0.025
-0.05
-0.1
-0.11
-0.12
-0.145
-0.145
-0.145
-0.12
-0.115
-0.07
0.1
0.425
-0.055
-0.415
-0.28
-0.19
-0.115
-0.1
-0.095
-0.1
-0.095
-0.08
-0.08
-0.07
-0.05
-0.025
-0.005
-0.01
-0.01
0.015
0.05
0.085
0.095
0.12
0.17
0.2
0.275
0.235
0.29
0.29
0.3
0.255
0.195
0.125
0.07
0.025
-0.005
-0.015
-0.035
-0.025
-0.025
-0.03
-0.02
-0.025
-0.01
-0.015
-0.015
-0.025
-0.02
-0.045
-0.05
-0.03
-0.01
-0.03
-0.02
0.08
0.065
0.08
0.14
0.06
0.075
-0.005
0.015
-0.11
-0.085
-0.13
-0.11
-0.11
-0.085
-0.1
-0.055
-0.02
0.3
0.625
-0.37
-0.38
-0.165
-0.06
-0.07
-0.095
-0.055
-0.08
-0.065
-0.085
-0.06
-0.055
-0.035
-0.025
-0.015
-0.035
0.015
0.02
0.065
0.07
0.12
0.135
0.19
0.215
0.225
0.265
0.275
0.29
0.29
0.235
0.185
0.095
0.055
0.015
0.0
-0.015
-0.02
-0.03
-0.015
-0.015
-0.02
-0.01
-0.02
-0.025
-0.01
-0.005
-0.015
-0.03
-0.025
-0.055
-0.055
-0.005
0.07
0.075
0.08
0.12
0.12
0.11
0.02
0.02
-0.025
-0.095
-0.09
-0.1
-0.09
-0.095
-0.1
-0.11
-0.045
0.13
0.415
0.045
-0.48
-0.31
-0.13
-0.07
-0.09
-0.09
-0.085
-0.08
-0.075
-0.08
-0.07
-0.055
-0.045
-0.035
-0.015
0.0
0.01
0.04
0.06
0.095
0.125
0.15
0.18
0.215
0.24
0.245
0.265
0.275
0.245
0.175
0.11
0.06
0.015
-0.02
-0.03
-0.035
-0.03
-0.035
-0.03
-0.03
-0.025
-0.035
-0.025
-0.03
-0.025
-0.04
-0.045
-0.045
-0.035
-0.055
-0.055
-0.025
0.03
0.035
0.07
0.08
0.1
0.08
0.025
-0.005
-0.025
-0.11
-0.1
-0.11
-0.1
-0.11
-0.1
-0.125
-0.07
-0.01
0.225
0.205
-0.525
-0.405
-0.2
-0.075
-0.095
-0.095
-0.09
-0.105
-0.085
-0.085
-0.08
-0.055
-0.06
-0.055
-0.015
-0.03
0.0
0.01
0.055
0.055
0.115
0.145
0.16
0.185
0.23
0.245
0.255
0.275
0.26
0.18
0.135
0.04
0.0
-0.02
-0.025
-0.03
-0.045
-0.065
-0.045
-0.045
-0.045
-0.025
-0.025
-0.05
-0.045
-0.035
-0.03
-0.045
-0.06
-0.07
-0.06
-0.015
0.045
0.055
0.07
0.105
0.09
0.08
0.02
0.005
-0.06
-0.11
-0.12
-0.1
-0.075
-0.1
-0.1
-0.105
-0.045
0.085
0.38
0.15
-0.41
-0.3
-0.16
-0.095
-0.07
-0.075
-0.075
-0.09
-0.08
-0.07
-0.06
-0.035
-0.02
-0.045
-0.03
0.0
0.04
0.045
0.075
0.085
0.13
0.15
0.21
0.23
0.25
0.265
0.3
0.295
0.28
0.185
0.12
0.065
0.025
-0.01
-0.055
-0.01
-0.035
-0.01
-0.025
-0.005
-0.02
-0.005
-0.005
-0.02
-0.01
-0.03
-0.015
-0.03
-0.035
-0.025
-0.035
-0.05
0.02
0.075
0.07
0.08
0.155
0.1
0.115
0.02
0.015
-0.07
-0.08
-0.08
-0.065
-0.09
-0.07
-0.09
-0.065
-0.015
0.275
0.605
-0.245
-0.365
-0.195
-0.06
-0.045
-0.085
-0.065
-0.08
-0.06
-0.085
-0.055
-0.055
-0.03
-0.035
-0.01
0.005
0.025
0.025
0.04
0.06
0.125
0.13
0.185
0.215
0.26
0.26
0.28
0.29
0.285
0.25
0.17
0.115
0.06
0.025
0.0
0.0
-0.01
-0.035
-0.025
-0.015
-0.01
-0.005
-0.02
-0.01
-0.02
-0.015
-0.025
-0.015
-0.03
-0.02
-0.025
-0.045
-0.035
0.005
0.055
0.075
0.08
0.13
0.105
0.075
0.005
0.01
-0.075
-0.09
-0.12
-0.09
-0.115
-0.1
-0.115
-0.095
-0.06
0.205
0.505
-0.33
-0.425
-0.21
-0.09
-0.08
-0.115
-0.095
-0.115
-0.085
-0.095
-0.08
-0.075
-0.055
-0.055
-0.025
-0.035
-0.015
0.0
0.035
0.06
0.09
0.115
0.165
0.18
0.21
0.225
0.25
0.24
0.245
0.215
0.15
0.095
0.035
0.0
-0.015
-0.035
-0.035
-0.035
-0.055
-0.035
-0.025
-0.035
-0.01
-0.025
-0.025
-0.025
-0.025
-0.04
-0.035
-0.03
-0.045
-0.06
-0.045
-0.04
0.01
0.055
0.075
0.08
0.145
0.115
0.08
0.02
0.015
-0.065
-0.095
-0.11
-0.085
-0.105
-0.08
-0.095
-0.08
-0.065
0.14
0.43
-0.3
-0.425
-0.225
-0.1
-0.08
-0.1
-0.085
-0.09
-0.065
-0.07
-0.055
-0.06
-0.045
-0.05
-0.01
-0.015
0.01
0.02
0.045
0.07
0.12
0.15
0.16
0.195
0.225
0.25
0.28
0.285
0.285
0.225
0.185
0.095
0.06
0.015
0.0
-0.025
-0.025
-0.015
-0.04
-0.03
0.0
-0.01
-0.01
-0.015
-0.005
-0.04
-0.025
-0.015
-0.03
-0.05
-0.04
-0.055
-0.04
-0.035
0.035
0.045
0.08
0.075
0.14
0.095
0.07
0.01
-0.02
-0.075
-0.1
-0.11
-0.08
-0.09
-0.08
-0.115
-0.065
-0.045
0.235
0.555
-0.35
-0.38
-0.23
-0.12
-0.065
-0.07
-0.055
-0.11
-0.085
-0.09
-0.075
-0.06
-0.03
-0.03
-0.02
-0.045
0.005
0.02
0.055
0.07
0.105
0.13
0.16
0.205
0.235
0.25
0.27
0.28
0.275
0.225
0.16
0.095
0.045
-0.01
-0.02
-0.035
-0.025
-0.035
-0.04
-0.035
-0.025
-0.03
-0.02
-0.005
-0.015
-0.025
-0.015
-0.03
-0.035
-0.045
-0.035
-0.04
-0.025
-0.04
0.01
0.06
0.095
0.09
0.15
0.11
0.07
0.0
0.015
-0.085
-0.09
-0.115
-0.09
-0.105
-0.07
-0.1
-0.075
-0.04
0.27
0.585
-0.355
-0.355
-0.185
-0.09
-0.09
-0.095
-0.06
-0.1
-0.08
-0.095
-0.055
-0.065
-0.035
-0.055
-0.025
-0.025
0.005
0.015
0.06
0.06
0.085
0.125
0.15
0.185
0.225
0.225
0.255
0.25
0.245
0.2
0.15
0.09
0.025
0.0
-0.025
-0.03
-0.035
-0.035
-0.025
-0.02
-0.025
-0.02
-0.025
-0.01
-0.015
-0.015
-0.03
-0.03
-0.045
-0.05
-0.06
-0.05
-0.06
-0.05
-0.05
0.015
0.03
0.045
0.05
0.135
0.09
0.04
-0.005
0.015
-0.08
-0.095
-0.125
-0.1
-0.125
-0.095
-0.115
-0.08
-0.07
0.175
0.47
-0.415
-0.42
-0.225
-0.095
-0.09
-0.105
-0.085
-0.1
-0.07
-0.085
-0.065
-0.085
-0.045
-0.06
-0.025
-0.015
0.0
0.0
0.04
0.05
0.085
0.12
0.16
0.185
0.22
0.22
0.25
0.25
0.23
0.205
0.145
0.085
0.04
0.0
-0.025
-0.04
-0.055
-0.05
-0.035
-0.03
-0.04
-0.015
-0.03
-0.03
-0.045
-0.04
-0.035
-0.04
-0.05
-0.055
-0.06
-0.065
-0.065
-0.065
-0.025
0.035
0.04
0.055
0.105
0.085
0.065
0.005
0.0
-0.065
-0.1
-0.1
-0.11
-0.11
-0.12
-0.11
-0.12
-0.065
0.065
0.32
-0.005
-0.435
-0.325
-0.17
-0.09
-0.1
-0.09
-0.11
-0.105
-0.085
-0.08
-0.08
-0.07
-0.05
-0.035
-0.025
-0.01
0.005
0.02
0.04
0.085
0.11
0.145
0.175
0.19
0.22
0.255
0.245
0.24
0.22
0.16
0.12
0.065
-0.005
-0.03
-0.05
-0.05
-0.04
-0.045
-0.05
-0.05
-0.035
-0.045
-0.025
-0.045
-0.035
-0.045
-0.04
-0.06
-0.055
-0.08
-0.06
-0.06
-0.06
-0.04
0.015
0.04
0.075
0.07
0.125
0.085
0.02
-0.025
-0.04
-0.105
-0.105
-0.125
-0.095
-0.115
-0.095
-0.115
-0.06
-0.03
0.255
0.445
-0.39
-0.365
-0.225
-0.125
-0.115
-0.105
-0.09
-0.11
-0.095
-0.1
-0.055
-0.065
-0.045
-0.06
-0.025
-0.02
-0.005
0.025
0.05
0.05
0.1
0.135
0.17
0.195
0.245
0.245
0.245
0.26
0.265
0.2
0.135
0.095
0.05
0.005
-0.015
-0.025
-0.035
-0.03
-0.02
-0.01
-0.02
0.0
-0.015
0.0
-0.015
-0.02
-0.035
-0.025
-0.035
-0.035
-0.05
-0.05
-0.06
-0.06
-0.03
0.04
0.035
0.065
0.075
0.11
0.095
0.025
-0.005
-0.04
-0.105
-0.1
-0.12
-0.105
-0.125
-0.095
-0.115
-0.06
-0.015
0.235
0.335
-0.415
-0.355
-0.195
-0.08
-0.085
-0.105
-0.095
-0.105
-0.085
-0.1
-0.085
-0.07
-0.065
-0.05
-0.005
-0.02
0.005
0.005
0.04
0.055
0.12
0.135
0.175
0.2
0.225
0.235
0.25
0.255
0.235
0.19
0.12
0.065
0.02
-0.01
-0.025
-0.04
-0.045
-0.035
-0.04
-0.03
-0.03
-0.025
-0.04
-0.02
-0.035
-0.035
-0.04
-0.04
-0.055
-0.05
-0.06
-0.055
-0.065
-0.055
-0.035
0.03
0.035
0.075
0.085
0.115
0.085
0.015
0.0
-0.035
-0.105
-0.105
-0.12
-0.11
-0.125
-0.115
-0.125
-0.07
-0.05
0.205
0.33
-0.45
-0.375
-0.21
-0.105
-0.11
-0.115
-0.09
-0.115
-0.095
-0.1
-0.07
-0.08
-0.055
-0.04
-0.02
-0.015
0.0
0.005
0.045
0.07
0.105
0.125
0.18
0.205
0.23
0.235
0.27
0.25
0.25
0.19
0.13
0.06
0.02
-0.015
-0.04
-0.045
-0.035
-0.025
-0.045
-0.035
-0.04
-0.015
-0.025
-0.03
-0.015
-0.025
-0.06
-0.04
-0.04
-0.04
-0.055
-0.05
-0.065
-0.05
-0.035
0.035
0.05
0.095
0.065
0.12
0.095
0.045
0.0
-0.03
-0.1
-0.1
-0.125
-0.09
-0.12
-0.075
-0.1
-0.075
-0.035
0.205
0.48
-0.37
-0.35
-0.255
-0.125
-0.1
-0.1
-0.09
-0.095
-0.085
-0.11
-0.06
-0.075
-0.055
-0.06
-0.03
-0.03
0.02
0.01
0.06
0.065
0.11
0.14
0.17
0.185
0.225
0.23
0.255
0.27
0.265
0.215
0.155
0.095
0.035
-0.005
-0.015
-0.035
-0.025
-0.025
-0.03
-0.025
-0.02
-0.03
-0.01
-0.015
-0.02
-0.03
-0.025
-0.03
-0.05
-0.03
-0.045
-0.05
-0.07
-0.05
-0.045
0.005
0.05
0.065
0.06
0.135
0.09
0.055
-0.01
0.0
-0.085
-0.105
-0.115
-0.095
-0.12
-0.095
-0.11
-0.09
-0.09
0.18
0.51
-0.29
-0.365
-0.21
-0.095
-0.08
-0.11
-0.1
-0.11
-0.07
-0.095
-0.07
-0.08
-0.05
-0.05
-0.035
-0.03
-0.005
0.0
0.035
0.065
0.095
0.13
0.165
0.185
0.215
0.235
0.24
0.255
0.255
0.215
0.155
0.095
0.045
0.0
0.0
-0.025
-0.035
-0.04
-0.025
-0.025
-0.02
-0.015
0.0
-0.025
-0.01
-0.015
-0.025
-0.035
-0.025
-0.04
-0.03
-0.055
-0.04
-0.05
-0.045
-0.04
0.02
0.035
0.06
0.06
0.13
0.08
0.045
0.0
-0.015
-0.095
-0.09
-0.11
-0.09
-0.12
-0.1
-0.115
-0.09
-0.085
0.16
0.475
-0.415
-0.405
-0.225
-0.095
-0.08
-0.105
-0.08
-0.095
-0.09
-0.095
-0.07
-0.065
-0.045
-0.06
-0.015
-0.025
0.0
0.015
0.06
0.075
0.115
0.12
0.175
0.2
0.23
0.25
0.275
0.265
0.265
0.235
0.175
0.095
0.045
0.0
-0.02
-0.03
-0.035
-0.035
-0.025
-0.015
-0.025
-0.02
-0.015
-0.005
-0.005
-0.03
-0.035
-0.03
-0.045
-0.045
-0.05
-0.05
-0.055
-0.065
-0.05
-0.005
0.045
0.06
0.07
0.125
0.09
0.065
0.0
0.005
-0.09
-0.1
-0.125
-0.11
-0.115
-0.095
-0.11
-0.1
-0.075
0.12
0.46
-0.14
-0.385
-0.28
-0.18
-0.105
-0.105
-0.095
-0.11
-0.105
-0.1
-0.065
-0.07
-0.065
-0.06
-0.035
-0.03
-0.02
0.005
0.025
0.05
0.08
0.11
0.15
0.18
0.22
0.23
0.25
0.26
0.275
0.245
0.155
0.12
0.06
0.01
-0.015
-0.05
-0.04
-0.05
-0.045
-0.02
-0.025
-0.025
-0.035
-0.05
-0.03
-0.025
-0.03
-0.035
-0.045
-0.055
-0.06
-0.05
-0.06
-0.055
-0.055
0.005
0.04
0.065
0.065
0.13
0.09
0.06
-0.01
0.0
-0.075
-0.105
-0.11
-0.1
-0.12
-0.1
-0.125
-0.085
-0.075
0.2
0.55
-0.265
-0.36
-0.215
-0.115
-0.1
-0.105
-0.095
-0.105
-0.06
-0.095
-0.065
-0.085
-0.055
-0.055
-0.035
-0.03
-0.005
0.005
0.04
0.065
0.095
0.125
0.16
0.195
0.23
0.23
0.245
0.255
0.245
0.215
0.155
0.085
0.04
0.0
-0.02
-0.03
-0.03
-0.035
-0.025
-0.015
-0.025
-0.025
-0.025
-0.015
-0.035
-0.03
-0.03
-0.03
-0.035
-0.02
-0.05
-0.045
-0.07
-0.05
-0.05
0.02
0.035
0.065
0.065
0.125
0.09
0.04
-0.01
-0.005
-0.09
-0.105
-0.115
-0.09
-0.115
-0.08
-0.125
-0.07
-0.06
0.185
0.43
-0.435
-0.395
-0.2
-0.065
-0.085
-0.105
-0.09
-0.105
-0.085
-0.095
-0.06
-0.075
-0.045
-0.05
-0.015
-0.025
0.005
0.02
0.055
0.06
0.105
0.14
0.175
0.205
0.235
0.245
0.26
0.27
0.26
0.205
0.155
0.09
0.03
0.0
-0.03
-0.045
-0.045
-0.03
-0.04
-0.045
-0.04
-0.015
-0.005
-0.015
-0.02
-0.02
-0.04
-0.05
-0.045
-0.02
-0.05
-0.04
-0.07
-0.055
-0.02
0.05
0.05
0.07
0.105
0.11
0.07
0.0
-0.02
-0.06
-0.105
-0.11
-0.13
-0.105
-0.12
-0.095
-0.11
-0.06
0.01
0.28
0.215
-0.435
-0.325
-0.2
-0.11
-0.1
-0.115
-0.105
-0.115
-0.075
-0.085
-0.085
-0.07
-0.055
-0.045
-0.025
-0.02
0.01
0.03
0.06
0.065
0.095
0.13
0.19
0.21
0.24
0.25
0.26
0.265
0.24
0.18
0.135
0.07
0.01
-0.02
-0.03
-0.045
-0.04
-0.04
-0.025
-0.04
-0.02
-0.015
-0.025
-0.015
-0.02
-0.04
-0.025
-0.05
-0.03
-0.055
-0.05
-0.065
-0.045
-0.05
0.02
0.045
0.07
0.08
0.125
0.095
0.04
-0.005
-0.02
-0.095
-0.1
-0.12
-0.09
-0.1
-0.095
-0.12
-0.065
0.0
0.28
0.515
-0.375
-0.335
-0.2
-0.1
-0.085
-0.1
-0.075
-0.095
-0.07
-0.085
-0.055
-0.08
-0.045
-0.05
-0.025
-0.01
0.02
0.02
0.055
0.06
0.12
0.14
0.175
0.195
0.245
0.25
0.27
0.255
0.255
0.2
0.14
0.075
0.01
-0.01
-0.025
-0.045
-0.04
-0.035
-0.035
-0.04
-0.035
-0.03
-0.04
-0.025
-0.01
-0.04
-0.045
-0.045
-0.045
-0.045
-0.05
-0.08
-0.07
-0.06
-0.01
0.05
0.04
0.045
0.125
0.085
0.06
-0.015
0.0
-0.09
-0.1
-0.125
-0.105
-0.115
-0.095
-0.125
-0.11
-0.075
0.155
0.475
-0.23
-0.385
-0.225
-0.11
-0.09
-0.11
-0.095
-0.11
-0.09
-0.1
-0.09
-0.085
-0.065
-0.06
-0.055
-0.045
-0.01
0.0
0.025
0.045
0.09
0.115
0.155
0.17
0.2
0.225
0.245
0.245
0.24
0.21
0.165
0.09
0.025
-0.01
-0.035
-0.035
-0.06
-0.05
-0.04
-0.035
-0.04
-0.035
-0.04
-0.03
-0.04
-0.035
-0.045
-0.06
-0.045
-0.04
-0.06
-0.055
-0.06
-0.055
-0.035
0.045
0.045
0.065
0.075
0.11
0.085
0.025
0.0
-0.035
-0.095
-0.09
-0.105
-0.095
-0.12
-0.095
-0.11
-0.055
-0.015
0.205
0.29
-0.46
-0.365
-0.18
-0.06
-0.075
-0.12
-0.095
-0.1
-0.07
-0.08
-0.065
-0.09
-0.06
-0.055
-0.025
-0.02
0.01
0.02
0.03
0.07
0.11
0.135
0.18
0.21
0.235
0.235
0.265
0.28
0.255
0.19
0.11
0.065
0.015
-0.025
-0.025
-0.05
-0.055
-0.045
-0.055
-0.045
-0.02
-0.03
-0.04
-0.04
-0.04
-0.045
-0.05
-0.03
-0.055
-0.06
-0.06
-0.05
-0.05
0.03
0.035
0.06
0.05
0.155
0.08
0.02
-0.005
-0.01
-0.08
-0.095
-0.145
-0.105
-0.12
-0.095
-0.115
-0.075
-0.07
0.175
0.52
-0.315
-0.39
-0.24
-0.155
-0.115
-0.125
-0.11
-0.105
-0.09
-0.09
-0.085
-0.085
-0.065
-0.06
-0.025
-0.035
-0.015
-0.01
0.025
0.05
0.095
0.11
0.165
0.17
0.24
0.245
0.265
0.255
0.26
0.21
0.16
0.1
0.025
0.0
-0.015
-0.05
-0.05
-0.025
-0.045
-0.035
-0.04
-0.025
-0.005
-0.02
-0.025
-0.04
-0.04
-0.04
-0.03
-0.06
-0.055
-0.05
-0.04
-0.03
0.01
0.04
0.08
0.065
0.145
0.085
0.055
-0.005
0.01
-0.07
-0.1
-0.115
-0.075
-0.105
-0.09
-0.1
-0.07
-0.01
0.285
0.635
-0.295
-0.365
-0.195
-0.085
-0.08
-0.095
-0.075
-0.1
-0.065
-0.085
-0.06
-0.08
-0.045
-0.045
-0.03
0.0
-0.01
0.005
0.05
0.06
0.095
0.115
0.17
0.2
0.22
0.24
0.26
0.255
0.27
0.205
0.15
0.085
0.035
0.0
-0.02
-0.03
-0.03
-0.045
-0.04
-0.025
-0.02
-0.025
-0.005
-0.02
-0.015
-0.035
-0.03
-0.045
-0.035
-0.04
-0.035
-0.045
-0.05
-0.035
0.025
0.055
0.07
0.07
0.12
0.09
0.045
0.0
-0.01
-0.085
-0.09
-0.115
-0.095
-0.115
-0.095
-0.11
-0.075
-0.045
0.22
0.475
-0.42
-0.37
-0.19
-0.075
-0.085
-0.105
-0.08
-0.115
-0.085
-0.095
-0.065
-0.07
-0.06
-0.065
-0.025
-0.02
0.015
0.01
0.06
0.065
0.115
0.135
0.18
0.195
0.23
0.245
0.275
0.265
0.265
0.205
0.15
0.08
0.025
-0.005
-0.035
-0.035
-0.04
-0.035
-0.04
-0.025
-0.025
-0.03
-0.02
-0.065
-0.005
-0.035
-0.03
-0.045
-0.045
-0.055
-0.04
-0.05
-0.055
-0.045
0.02
0.04
0.07
0.07
0.125
0.095
0.04
0.0
-0.005
-0.09
-0.095
-0.105
-0.09
-0.11
-0.08
-0.11
-0.06
-0.055
0.195
0.465
-0.445
-0.41
-0.22
-0.085
-0.085
-0.115
-0.075
-0.105
-0.065
-0.09
-0.055
-0.08
-0.06
-0.045
-0.025
-0.025
-0.005
0.0
0.06
0.075
0.125
0.135
0.165
0.205
0.25
0.26
0.275
0.29
0.27
0.22
0.155
0.09
0.05
0.0
-0.02
-0.045
-0.025
-0.03
-0.045
-0.03
-0.025
-0.02
-0.02
-0.03
-0.025
-0.005
-0.04
-0.04
-0.03
-0.04
-0.06
-0.06
-0.01
0.06
0.045
0.06
0.12
0.095
0.095
0.01
0.0
-0.06
-0.095
-0.095
-0.12
-0.1
-0.12
-0.1
-0.11
-0.08
0.09
0.405
0.09
-0.385
-0.3
-0.19
-0.12
-0.11
-0.13
-0.105
-0.095
-0.105
-0.085
-0.07
-0.055
-0.05
-0.055
-0.04
-0.025
0.005
0.015
0.06
0.085
0.1
0.15
0.165
0.22
0.265
0.26
0.27
0.28
0.225
0.19
0.125
0.05
0.0
-0.03
-0.045
-0.04
-0.065
-0.05
-0.045
-0.05
-0.04
-0.045
-0.03
-0.045
-0.04
-0.04
-0.065
-0.055
-0.045
-0.085
-0.075
-0.065
-0.03
0.04
0.045
0.045
0.095
0.08
0.08
-0.005
0.0
-0.085
-0.105
-0.11
-0.095
-0.115
-0.09
-0.115
-0.11
-0.05
0.2
0.56
-0.075
-0.385
-0.24
-0.135
-0.075
-0.1
-0.09
-0.09
-0.08
-0.09
-0.07
-0.075
-0.055
-0.05
-0.04
-0.025
-0.005
0.005
0.04
0.055
0.09
0.13
0.155
0.18
0.21
0.235
0.26
0.27
0.27
0.23
0.17
0.095
0.045
0.005
-0.02
-0.015
-0.035
-0.045
-0.045
-0.035
-0.025
-0.03
-0.03
-0.02
-0.04
-0.03
-0.035
-0.02
-0.045
-0.045
-0.05
-0.03
-0.04
0.03
0.055
0.075
0.07
0.12
0.095
0.035
0.0
-0.025
-0.105
-0.095
-0.12
-0.09
-0.125
-0.1
-0.125
-0.07
-0.04
0.235
0.41
-0.47
-0.39
-0.19
-0.07
-0.09
-0.115
-0.1
-0.115
-0.085
-0.1
-0.075
-0.085
-0.06
-0.065
-0.04
-0.02
-0.005
0.005
0.04
0.06
0.11
0.14
0.175
0.2
0.235
0.235
0.265
0.255
0.255
0.19
0.135
0.065
0.015
-0.02
-0.035
-0.05
-0.065
-0.05
-0.05
-0.035
-0.035
-0.035
-0.025
-0.035
-0.035
-0.035
-0.035
-0.055
-0.05
-0.065
-0.06
-0.055
0.005
0.04
0.06
0.045
0.12
0.085
0.045
-0.015
-0.015
-0.095
-0.105
-0.12
-0.105
-0.11
-0.11
-0.135
-0.11
-0.085
0.16
0.455
-0.355
-0.45
-0.255
-0.14
-0.085
-0.105
-0.1
-0.105
-0.09
-0.095
-0.08
-0.08
-0.065
-0.06
-0.03
-0.04
0.0
0.01
0.035
0.055
0.1
0.135
0.18
0.2
0.225
0.24
0.275
0.275
0.26
0.24
0.185
0.08
0.035
-0.03
-0.03
-0.03
-0.04
-0.045
-0.04
-0.05
-0.035
-0.055
-0.035
-0.02
-0.025
-0.04
-0.03
-0.055
-0.04
-0.06
-0.04
-0.03
0.045
0.04
0.065
0.06
0.125
0.075
0.035
0.01
-0.03
-0.11
-0.12
-0.12
-0.09
-0.09
-0.1
-0.14
-0.06
-0.025
0.24
0.485
-0.42
-0.38
-0.24
-0.12
-0.095
-0.13
-0.095
-0.11
-0.095
-0.075
-0.06
-0.09
-0.055
-0.04
-0.02
0.0
0.0
-0.01
0.05
0.065
0.115
0.125
0.185
0.235
0.24
0.255
0.28
0.29
0.29
0.21
0.125
0.08
0.015
-0.005
-0.035
-0.06
-0.04
-0.05
-0.035
-0.065
-0.025
-0.025
-0.05
-0.025
-0.035
-0.045
-0.04
-0.045
-0.065
-0.05
-0.07
-0.04
-0.04
0.03
0.04
0.08
0.105
0.12
0.1
0.02
0.0
-0.03
-0.09
-0.095
-0.115
-0.11
-0.11
-0.085
-0.105
-0.04
0.105
0.415
0.24
-0.405
-0.31
-0.165
-0.075
-0.115
-0.105
-0.085
-0.1
-0.09
-0.09
-0.065
-0.06
-0.05
-0.035
-0.035
-0.025
0.005
0.015
0.045
0.08
0.125
0.15
0.19
0.215
0.25
0.27
0.29
0.295
0.26
0.195
0.135
0.07
0.025
-0.005
-0.02
-0.05
-0.03
-0.025
-0.035
-0.02
-0.015
-0.015
-0.03
-0.02
-0.04
-0.04
-0.05
-0.04
-0.045
-0.045
-0.05
-0.045
-0.025
0.035
0.045
0.06
0.09
0.105
0.08
0.02
0.0
-0.05
-0.105
-0.09
-0.105
-0.1
-0.12
-0.1
-0.12
-0.06
0.035
0.285
0.165
-0.47
-0.345
-0.155
-0.075
-0.09
-0.1
-0.1
-0.1
-0.085
-0.09
-0.075
-0.06
-0.045
-0.045
-0.015
-0.025
0.015
0.03
0.05
0.075
0.125
0.165
0.2
0.225
0.255
0.26
0.29
0.29
0.245
0.19
0.125
0.055
0.01
-0.01
-0.03
-0.05
-0.045
-0.04
-0.04
-0.035
-0.03
-0.045
-0.025
-0.025
-0.02
-0.04
-0.045
-0.045
-0.04
-0.04
-0.035
-0.07
-0.06
-0.03
0.05
0.025
0.075
0.09
0.11
0.07
0.005
0.0
-0.05
-0.11
-0.105
-0.115
-0.1
-0.14
-0.11
-0.1
-0.045
0.005
0.255
0.265
-0.485
-0.36
-0.2
-0.11
-0.095
-0.11
-0.1
-0.105
-0.085
-0.1
-0.05
-0.06
-0.065
-0.05
-0.035
-0.01
0.015
0.025
0.055
0.06
0.125
0.135
0.205
0.225
0.245
0.255
0.295
0.305
0.27
0.185
0.135
0.075
0.01
-0.03
-0.04
-0.05
-0.045
-0.06
-0.055
-0.02
-0.05
-0.025
-0.06
-0.045
-0.02
-0.03
-0.04
-0.03
-0.075
-0.04
-0.075
-0.05
-0.035
0.015
0.015
0.055
0.085
0.12
0.075
0.015
-0.025
-0.025
-0.08
-0.125
-0.13
-0.12
-0.1
-0.085
-0.12
-0.08
-0.045
0.25
0.515
-0.41
-0.39
-0.24
-0.145
-0.12
-0.12
-0.125
-0.12
-0.105
-0.12
-0.09
-0.105
-0.07
-0.09
-0.04
-0.05
-0.005
-0.005
0.035
0.05
0.115
0.115
0.195
0.2
0.245
0.27
0.29
0.3
0.275
0.2
0.145
0.075
0.015
-0.01
-0.02
-0.05
-0.04
-0.03
-0.065
-0.055
-0.04
-0.03
-0.045
-0.015
-0.03
-0.065
-0.055
-0.035
-0.065
-0.065
-0.05
-0.07
-0.06
-0.07
-0.035
0.015
0.06
0.05
0.1
0.09
0.07
0.0
-0.005
-0.075
-0.085
-0.12
-0.115
-0.115
-0.125
-0.115
-0.115
-0.06
0.16
0.51
-0.065
-0.45
-0.295
-0.14
-0.08
-0.11
-0.1
-0.105
-0.1
-0.095
-0.085
-0.09
-0.065
-0.06
-0.04
-0.03
-0.015
0.0
0.02
0.065
0.09
0.12
0.155
0.185
0.235
0.25
0.27
0.29
0.28
0.245
0.19
0.12
0.055
0.01
-0.015
-0.02
-0.04
-0.05
-0.04
-0.035
-0.03
-0.04
-0.03
-0.02
-0.015
-0.03
-0.02
-0.04
-0.035
-0.045
-0.045
-0.05
-0.055
-0.05
-0.045
-0.02
0.055
0.04
0.07
0.105
0.1
0.09
0.005
0.005
-0.06
-0.11
-0.095
-0.115
-0.105
-0.12
-0.105
-0.11
-0.09
0.03
0.3
0.07
-0.475
-0.355
-0.18
-0.075
-0.11
-0.11
-0.1
-0.1
-0.09
-0.085
-0.075
-0.075
-0.06
-0.055
-0.04
-0.03
0.0
0.01
0.04
0.07
0.11
0.145
0.18
0.21
0.245
0.27
0.295
0.29
0.26
0.21
0.145
0.085
0.02
-0.025
-0.035
-0.05
-0.05
-0.04
-0.04
-0.05
-0.05
-0.015
-0.02
-0.035
-0.025
-0.025
-0.035
-0.05
-0.035
-0.06
-0.045
-0.055
-0.055
-0.055
-0.065
-0.035
0.03
0.035
0.055
0.075
0.11
0.07
0.04
-0.015
-0.06
-0.115
-0.085
-0.115
-0.1
-0.1
-0.115
-0.105
-0.055
-0.02
0.27
0.37
-0.445
-0.365
-0.235
-0.135
-0.09
-0.115
-0.09
-0.105
-0.105
-0.1
-0.065
-0.075
-0.055
-0.05
-0.015
-0.03
-0.005
0.0
0.05
0.08
0.105
0.125
0.18
0.22
0.255
0.26
0.295
0.285
0.275
0.225
0.15
0.075
0.035
-0.015
-0.02
-0.035
-0.04
-0.04
-0.045
-0.035
-0.035
-0.04
-0.015
-0.02
-0.03
-0.05
-0.03
-0.035
-0.05
-0.045
-0.05
-0.045
-0.055
-0.07
-0.07
-0.03
0.035
0.02
0.055
0.105
0.115
0.07
0.005
0.0
-0.055
-0.12
-0.105
-0.115
-0.105
-0.105
-0.095
-0.1
-0.07
0.06
0.42
0.215
-0.42
-0.32
-0.17
-0.09
-0.085
-0.095
-0.1
-0.095
-0.075
-0.09
-0.07
-0.065
-0.05
-0.06
-0.035
-0.005
0.01
0.03
0.055
0.085
0.11
0.145
0.18
0.235
0.235
0.265
0.275
0.285
0.26
0.2
0.135
0.055
0.02
-0.005
-0.025
-0.03
-0.03
-0.04
-0.045
-0.025
-0.035
-0.025
-0.015
-0.015
-0.01
-0.025
-0.03
-0.02
-0.04
-0.04
-0.05
-0.045
-0.06
-0.05
-0.05
-0.06
-0.03
0.035
0.045
0.08
0.085
0.125
0.09
0.02
-0.005
-0.04
-0.1
-0.085
-0.115
-0.105
-0.125
-0.09
-0.115
-0.075
-0.04
0.225
0.36
-0.475
-0.385
-0.2
-0.08
-0.095
-0.12
-0.09
-0.11
-0.08
-0.095
-0.065
-0.07
-0.065
-0.06
-0.025
-0.025
0.005
0.01
0.055
0.07
0.115
0.14
0.19
0.205
0.24
0.25
0.275
0.28
0.275
0.23
0.16
0.08
0.04
0.01
-0.015
-0.025
-0.045
-0.05
-0.03
-0.025
-0.02
-0.025
-0.02
-0.02
-0.02
-0.02
-0.02
-0.03
-0.02
-0.03
-0.04
-0.055
-0.045
-0.065
-0.065
-0.055
-0.055
0.0
0.045
0.035
0.07
0.095
0.11
0.08
0.01
0.0
-0.065
-0.105
-0.095
-0.12
-0.085
-0.11
-0.095
-0.1
-0.045
0.01
0.32
0.155
-0.435
-0.305
-0.205
-0.115
-0.105
-0.115
-0.08
-0.095
-0.075
-0.095
-0.075
-0.055
-0.065
-0.05
-0.03
-0.01
0.005
0.015
0.05
0.07
0.115
0.145
0.175
0.215
0.235
0.255
0.26
0.28
0.255
0.205
0.14
0.08
0.02
-0.025
-0.035
-0.035
-0.055
-0.03
-0.04
-0.055
-0.02
-0.025
-0.02
-0.025
-0.03
-0.035
-0.025
-0.02
-0.045
-0.025
-0.06
-0.04
-0.065
-0.05
-0.07
-0.07
-0.055
0.03
0.055
0.075
0.085
0.12
0.085
0.0
-0.01
-0.035
-0.1
-0.1
-0.095
-0.075
-0.1
-0.09
-0.105
-0.05
-0.005
0.315
0.45
-0.4
-0.345
-0.2
-0.11
-0.075
-0.095
-0.08
-0.095
-0.085
-0.085
-0.065
-0.07
-0.04
-0.055
-0.03
-0.025
0.0
0.015
0.065
0.065
0.105
0.12
0.18
0.21
0.225
0.24
0.27
0.265
0.26
0.22
0.16
0.08
0.03
0.0
-0.02
-0.045
-0.04
-0.035
-0.02
-0.02
-0.035
-0.005
-0.02
-0.025
-0.02
-0.03
-0.03
-0.025
-0.035
-0.045
-0.06
-0.05
-0.06
-0.06
-0.07
-0.065
-0.06
-0.005
0.04
0.045
0.06
0.11
0.09
0.055
-0.005
0.0
-0.08
-0.115
-0.11
-0.1
-0.115
-0.105
-0.115
-0.11
-0.105
0.115
0.42
-0.205
-0.44
-0.265
-0.135
-0.08
-0.105
-0.1
-0.105
-0.09
-0.09
-0.075
-0.075
-0.06
-0.06
-0.045
-0.03
-0.005
0.0
0.015
0.05
0.085
0.115
0.155
0.175
0.22
0.225
0.24
0.26
0.255
0.23
0.19
0.12
0.06
0.01
-0.02
-0.04
-0.035
-0.035
-0.04
-0.04
-0.05
-0.03
-0.03
-0.025
-0.02
-0.025
-0.03
-0.035
-0.035
-0.035
-0.035
-0.055
-0.05
-0.05
-0.06
-0.06
-0.045
-0.02
0.045
0.035
0.06
0.135
0.115
0.085
0.01
0.0
-0.07
-0.11
-0.095
-0.11
-0.095
-0.11
-0.1
-0.115
-0.07
0.045
0.345
0.15
-0.405
-0.33
-0.205
-0.115
-0.095
-0.095
-0.1
-0.11
-0.085
-0.085
-0.08
-0.065
-0.065
-0.055
-0.025
-0.025
0.0
0.015
0.07
0.05
0.09
0.145
0.18
0.215
0.22
0.25
0.26
0.245
0.24
0.195
0.145
0.06
0.01
-0.015
-0.04
-0.07
-0.055
-0.04
-0.035
-0.045
-0.03
-0.025
-0.025
-0.02
-0.035
-0.035
-0.04
-0.05
-0.03
-0.05
-0.065
-0.065
-0.06
-0.055
-0.05
-0.035
0.005
0.025
0.08
0.075
0.11
0.095
0.015
0.0
-0.035
-0.105
-0.095
-0.11
-0.09
-0.115
-0.08
-0.11
-0.065
0.015
0.315
0.385
-0.385
-0.325
-0.2
-0.085
-0.095
-0.11
-0.09
-0.11
-0.08
-0.075
-0.06
-0.075
-0.04
-0.045
-0.02
-0.025
0.005
0.015
0.05
0.07
0.11
0.14
0.18
0.2
0.23
0.245
0.265
0.275
0.255
0.205
0.15
0.095
0.03
-0.005
-0.01
-0.035
-0.035
-0.03
-0.03
-0.025
-0.01
-0.03
-0.02
-0.03
-0.015
-0.035
-0.03
-0.05
-0.035
-0.05
-0.05
-0.06
-0.055
-0.065
-0.06
-0.045
0.015
0.035
0.07
0.065
0.125
0.09
0.03
0.0
-0.02
-0.105
-0.095
-0.135
-0.1
-0.115
-0.09
-0.12
-0.095
-0.055
0.175
0.445
-0.445
-0.4
-0.22
-0.095
-0.095
-0.11
-0.095
-0.115
-0.09
-0.11
-0.075
-0.08
-0.05
-0.07
-0.03
-0.045
0.005
0.015
0.05
0.07
0.1
0.135
0.17
0.195
0.23
0.24
0.255
0.26
0.255
0.215
0.175
0.085
0.04
0.0
-0.015
-0.045
-0.035
-0.03
-0.03
-0.02
-0.03
-0.025
-0.015
-0.01
-0.025
-0.03
-0.035
-0.05
-0.025
-0.04
-0.05
-0.055
-0.055
-0.06
-0.065
-0.015
0.05
0.04
0.06
0.115
0.1
0.085
0.005
0.0
-0.08
-0.1
-0.11
-0.115
-0.095
-0.09
-0.105
-0.115
-0.055
0.085
0.425
0.015
-0.405
-0.29
-0.19
-0.095
-0.095
-0.1
-0.095
-0.08
-0.095
-0.09
-0.075
-0.06
-0.04
-0.035
-0.02
-0.015
0.005
0.03
0.055
0.085
0.13
0.135
0.175
0.21
0.235
0.24
0.275
0.285
0.25
0.185
0.115
0.06
0.02
0.0
-0.035
-0.05
-0.035
-0.04
-0.02
-0.03
-0.03
-0.025
-0.015
-0.01
-0.045
-0.04
-0.035
-0.045
-0.03
-0.05
-0.055
-0.055
-0.05
-0.055
-0.01
0.05
0.065
0.055
0.135
0.105
0.045
-0.005
-0.005
-0.075
-0.095
-0.13
-0.115
-0.11
-0.095
-0.11
-0.09
-0.055
0.205
0.575
-0.175
-0.375
-0.235
-0.135
-0.1
-0.11
-0.095
-0.105
-0.09
-0.085
-0.065
-0.085
-0.065
-0.055
-0.03
-0.03
-0.015
0.005
0.045
0.05
0.095
0.12
0.17
0.185
0.215
0.225
0.245
0.265
0.26
0.22
0.165
0.105
0.05
0.01
-0.02
-0.03
-0.02
-0.035
-0.04
-0.03
-0.035
-0.025
-0.025
-0.035
-0.035
-0.015
-0.03
-0.045
-0.05
-0.05
-0.06
-0.055
-0.075
-0.055
-0.055
0.005
0.04
0.055
0.05
0.13
0.105
0.05
-0.005
0.0
-0.08
-0.1
-0.105
-0.1
-0.115
-0.095
-0.1
-0.08
-0.075
0.2
0.52
-0.335
-0.39
-0.205
-0.1
-0.08
-0.105
-0.085
-0.105
-0.09
-0.1
-0.075
-0.085
-0.055
-0.065
-0.03
-0.035
-0.005
0.0
0.04
0.065
0.095
0.12
0.165
0.195
0.225
0.235
0.255
0.26
0.255
0.215
0.16
0.105
0.06
0.01
-0.015
-0.03
-0.02
-0.045
-0.035
-0.03
-0.03
-0.03
-0.025
-0.025
-0.03
-0.035
-0.035
-0.045
-0.03
-0.04
-0.04
-0.06
-0.06
-0.045
0.015
0.05
0.065
0.065
0.11
0.095
0.055
0.0
0.005
-0.075
-0.1
-0.12
-0.1
-0.11
-0.1
-0.12
-0.1
-0.075
0.17
0.435
-0.345
-0.425
-0.235
-0.115
-0.075
-0.11
-0.09
-0.105
-0.1
-0.095
-0.075
-0.085
-0.07
-0.055
-0.045
-0.045
-0.01
-0.015
0.03
0.04
0.095
0.105
0.14
0.165
0.22
0.23
0.24
0.245
0.25
0.22
0.15
0.085
0.005
-0.035
-0.05
-0.045
-0.065
-0.065
-0.065
-0.065
-0.07
-0.055
-0.06
-0.05
-0.055
-0.06
-0.06
-0.055
-0.075
-0.065
-0.08
-0.09
-0.07
-0.01
0.0
0.06
0.02
0.075
0.035
0.015
-0.04
-0.05
-0.125
-0.145
-0.175
-0.145
-0.145
-0.125
-0.175
-0.135
-0.08
0.15
0.475
-0.365
-0.42
-0.28
-0.195
-0.16
-0.15
-0.145
-0.14
-0.135
-0.16
-0.105
-0.11
-0.09
-0.11
-0.07
-0.08
-0.045
-0.025
0.0
0.02
0.03
0.1
0.135
0.135
0.18
0.215
0.23
0.24
0.24
0.175
0.13
0.045
0.02
-0.035
-0.04
-0.065
-0.085
-0.055
-0.065
-0.04
-0.05
-0.05
-0.035
-0.045
-0.045
-0.025
-0.04
-0.035
-0.055
-0.03
-0.065
-0.045
-0.02
0.06
0.075
0.11
0.12
0.155
0.12
0.035
0.02
0.0
-0.055
-0.07
-0.075
-0.065
-0.075
-0.05
-0.085
-0.015
0.09
0.395
0.42
-0.375
-0.275
-0.13
-0.05
-0.05
-0.09
-0.06
-0.07
-0.055
-0.08
-0.06
-0.045
-0.02
-0.03
-0.015
0.0
0.02
0.03
0.07
0.08
0.14
0.16
0.205
0.235
0.25
0.29
0.285
0.275
0.265
0.225
0.165
0.09
0.05
0.01
0.0
-0.01
-0.02
-0.02
-0.025
-0.01
-0.01
0.0
0.0
-0.015
-0.005
-0.015
-0.02
-0.025
-0.035
-0.045
-0.045
-0.035
0.015
0.06
0.075
0.08
0.135
0.11
0.085
0.015
0.02
-0.05
-0.085
-0.095
-0.08
-0.085
-0.07
-0.085
-0.085
-0.025
0.175
0.47
-0.125
-0.38
-0.235
-0.09
-0.045
-0.075
-0.07
-0.07
-0.075
-0.065
-0.04
-0.055
-0.035
-0.03
-0.015
-0.015
0.015
0.025
0.05
0.075
0.105
0.15
0.175
0.2
0.225
0.265
0.275
0.285
0.285
0.245
0.175
0.115
0.055
0.02
0.0
-0.025
-0.025
-0.035
-0.02
-0.02
-0.02
-0.02
-0.01
-0.01
-0.015
-0.02
-0.03
-0.03
-0.045
-0.04
-0.04
-0.035
0.0
0.065
0.06
0.08
0.11
0.1
0.095
0.02
0.0
-0.055
-0.1
-0.085
-0.105
-0.09
-0.105
-0.095
-0.11
-0.05
0.075
0.29
0.04
-0.445
-0.305
-0.155
-0.075
-0.075
-0.08
-0.08
-0.07
-0.065
-0.075
-0.055
-0.06
-0.04
-0.04
-0.015
0.005
0.035
0.04
0.07
0.105
0.145
0.175
0.21
0.245
0.26
0.29
0.295
0.29
0.26
0.21
0.125
0.075
0.03
-0.01
-0.02
-0.035
-0.03
-0.025
-0.025
-0.025
-0.02
-0.02
-0.02
-0.025
-0.045
-0.03
-0.03
-0.035
-0.045
-0.045
-0.05
0.01
0.065
0.06
0.055
0.12
0.09
0.055
0.0
-0.01
-0.09
-0.11
-0.12
-0.11
-0.125
-0.09
-0.13
-0.085
-0.075
0.15
0.5
-0.23
-0.38
-0.27
-0.16
-0.125
-0.1
-0.1
-0.105
-0.08
-0.105
-0.08
-0.085
-0.04
-0.055
-0.045
-0.035
0.0
0.01
0.06
0.055
0.075
0.11
0.17
0.19
0.215
0.25
0.265
0.265
0.26
0.235
0.17
0.08
0.015
0.0
-0.005
-0.06
-0.04
-0.065
-0.035
-0.025
-0.025
-0.025
-0.025
-0.035
-0.035
-0.025
-0.025
-0.04
-0.045
-0.085
-0.035
-0.05
0.035
0.06
0.07
0.06
0.13
0.1
0.06
0.005
-0.02
-0.1
-0.105
-0.1
-0.095
-0.115
-0.085
-0.105
-0.075
-0.01
0.275
0.56
-0.375
-0.35
-0.165
-0.085
-0.085
-0.1
-0.075
-0.11
-0.075
-0.11
-0.055
-0.065
-0.055
-0.035
-0.045
-0.04
0.005
0.03
0.05
0.06
0.125
0.13
0.19
0.205
0.25
0.255
0.275
0.28
0.27
0.22
0.155
0.08
0.02
-0.005
-0.03
-0.025
-0.035
-0.04
-0.03
-0.045
-0.04
-0.02
-0.03
-0.02
-0.03
-0.045
-0.035
-0.035
-0.05
-0.035
-0.04
0.025
0.04
0.07
0.06
0.12
0.08
0.055
-0.01
0.0
-0.09
-0.09
-0.115
-0.105
-0.115
-0.095
-0.115
-0.07
-0.045
0.235
0.53
-0.41
-0.405
-0.21
-0.085
-0.09
-0.12
-0.095
-0.115
-0.095
-0.11
-0.08
-0.08
-0.05
-0.065
-0.03
-0.025
-0.005
0.005
0.035
0.05
0.1
0.12
0.17
0.2
0.225
0.245
0.275
0.27
0.265
0.205
0.15
0.07
0.025
-0.01
-0.035
-0.04
-0.035
-0.045
-0.045
-0.04
-0.04
-0.04
-0.02
-0.035
-0.02
-0.035
-0.04
-0.05
-0.035
-0.055
-0.055
-0.025
0.04
0.05
0.06
0.1
0.11
0.085
0.015
-0.01
-0.045
-0.105
-0.105
-0.105
-0.085
-0.11
-0.095
-0.095
-0.055
0.04
0.275
0.175
-0.455
-0.355
-0.165
-0.07
-0.095
-0.095
-0.08
-0.075
-0.055
-0.095
-0.06
-0.06
-0.025
-0.02
-0.02
-0.02
0.0
0.045
0.07
0.095
0.125
0.165
0.175
0.225
0.27
0.275
0.31
0.29
0.25
0.18
0.145
0.06
0.03
0.0
-0.025
-0.035
-0.03
-0.02
-0.025
-0.035
-0.035
-0.015
-0.015
-0.005
-0.055
-0.045
-0.04
-0.01
-0.045
-0.05
-0.055
0.015
0.055
0.065
0.05
0.12
0.1
0.065
-0.005
0.0
-0.085
-0.105
-0.105
-0.1
-0.12
-0.09
-0.115
-0.07
-0.075
0.19
0.535
-0.29
-0.38
-0.24
-0.14
-0.095
-0.105
-0.085
-0.115
-0.11
-0.095
-0.065
-0.05
-0.05
-0.05
-0.035
-0.015
0.0
0.0
0.04
0.06
0.1
0.13
0.19
0.205
0.25
0.245
0.275
0.295
0.28
0.215
0.17
0.105
0.04
0.0
-0.015
-0.03
-0.04
-0.03
-0.05
-0.045
-0.01
-0.025
-0.01
-0.025
-0.025
-0.04
-0.025
-0.03
-0.04
-0.06
-0.07
-0.045
0.005
0.065
0.05
0.065
0.13
0.085
0.06
-0.015
0.0
-0.085
-0.105
-0.125
-0.08
-0.115
-0.1
-0.105
-0.07
-0.05
0.225
0.555
-0.3
-0.415
-0.24
-0.105
-0.085
-0.095
-0.085
-0.115
-0.075
-0.095
-0.055
-0.07
-0.045
-0.055
-0.005
-0.01
-0.005
0.01
0.055
0.07
0.11
0.13
0.18
0.205
0.235
0.26
0.275
0.28
0.275
0.215
0.155
0.095
0.025
0.005
-0.015
-0.03
-0.045
-0.04
-0.035
-0.035
-0.03
-0.03
-0.01
-0.01
-0.02
-0.04
-0.03
-0.04
-0.065
-0.04
-0.045
-0.045
0.01
0.06
0.05
0.07
0.13
0.095
0.09
0.015
0.0
-0.06
-0.1
-0.105
-0.1
-0.115
-0.1
-0.095
-0.12
-0.065
0.14
0.405
-0.075
-0.435
-0.32
-0.15
-0.08
-0.1
-0.095
-0.105
-0.095
-0.095
-0.1
-0.075
-0.05
-0.045
-0.045
-0.015
-0.005
-0.005
0.035
0.06
0.09
0.12
0.16
0.195
0.23
0.255
0.275
0.285
0.29
0.25
0.175
0.1
0.055
0.03
-0.005
-0.035
-0.035
-0.04
-0.02
-0.02
-0.015
-0.025
-0.01
-0.015
-0.015
-0.01
-0.015
-0.01
-0.025
-0.04
-0.045
-0.055
-0.045
-0.02
0.045
0.04
0.08
0.095
0.125
0.095
0.035
-0.01
-0.02
-0.095
-0.105
-0.11
-0.09
-0.12
-0.06
-0.11
-0.05
-0.025
0.255
0.44
-0.445
-0.4
-0.205
-0.09
-0.085
-0.115
-0.1
-0.085
-0.07
-0.08
-0.055
-0.075
-0.05
-0.05
-0.025
-0.02
0.0
0.01
0.045
0.075
0.125
0.14
0.16
0.2
0.235
0.26
0.28
0.28
0.255
0.195
0.15
0.075
0.015
-0.005
-0.015
-0.055
-0.045
-0.05
-0.025
-0.04
-0.055
-0.035
-0.01
-0.035
-0.025
-0.045
-0.04
-0.035
-0.05
-0.05
-0.07
-0.065
-0.05
-0.045
0.0
0.035
0.085
0.045
0.105
0.085
0.025
-0.015
-0.025
-0.12
-0.11
-0.125
-0.105
-0.11
-0.095
-0.115
-0.07
-0.055
0.255
0.555
-0.335
-0.365
-0.225
-0.1
-0.095
-0.125
-0.09
-0.095
-0.075
-0.095
-0.055
-0.075
-0.045
-0.06
-0.03
-0.025
0.01
0.005
0.035
0.065
0.12
0.135
0.18
0.205
0.23
0.25
0.28
0.28
0.265
0.205
0.145
0.085
0.04
-0.005
-0.025
-0.045
-0.04
-0.035
-0.035
-0.055
-0.035
-0.015
-0.035
-0.02
-0.02
-0.025
-0.035
-0.025
-0.04
-0.045
-0.04
-0.045
-0.05
-0.01
0.06
0.07
0.08
0.12
0.08
0.075
0.01
0.0
-0.075
-0.115
-0.11
-0.11
-0.11
-0.105
-0.11
-0.11
-0.06
0.145
0.435
-0.08
-0.43
-0.265
-0.13
-0.075
-0.09
-0.1
-0.11
-0.09
-0.1
-0.085
-0.075
-0.07
-0.05
-0.025
-0.02
-0.015
0.0
0.03
0.05
0.09
0.105
0.155
0.195
0.21
0.225
0.26
0.275
0.28
0.225
0.185
0.11
0.045
0.0
-0.015
-0.035
-0.045
-0.045
-0.06
-0.03
-0.025
-0.03
-0.035
-0.03
-0.03
-0.045
-0.035
-0.045
-0.03
-0.045
-0.045
-0.055
-0.05
-0.03
0.03
0.035
0.085
0.08
0.11
0.1
0.03
-0.005
-0.035
-0.105
-0.105
-0.12
-0.105
-0.13
-0.085
-0.1
-0.025
0.03
0.285
0.335
-0.425
-0.355
-0.195
-0.09
-0.08
-0.105
-0.09
-0.1
-0.065
-0.09
-0.075
-0.08
-0.06
-0.045
-0.025
-0.03
0.005
0.01
0.045
0.065
0.11
0.13
0.155
0.195
0.225
0.24
0.27
0.28
0.26
0.19
0.145
0.07
0.02
-0.01
-0.025
-0.02
-0.035
-0.04
-0.035
-0.04
-0.02
-0.02
-0.03
-0.03
-0.025
-0.01
-0.05
-0.035
-0.035
-0.04
-0.06
-0.05
-0.055
-0.005
0.06
0.07
0.055
0.14
0.1
0.065
0.0
0.005
-0.095
-0.1
-0.11
-0.095
-0.105
-0.09
-0.105
-0.08
-0.05
0.2
0.54
-0.25
-0.4
-0.23
-0.13
-0.09
-0.1
-0.095
-0.095
-0.09
-0.105
-0.07
-0.075
-0.055
-0.035
-0.015
-0.03
-0.02
0.01
0.045
0.07
0.1
0.105
0.155
0.19
0.21
0.245
0.26
0.265
0.265
0.21
0.18
0.095
0.04
-0.005
-0.01
-0.02
-0.045
-0.025
-0.03
-0.035
-0.025
-0.035
-0.015
-0.02
-0.015
-0.025
-0.035
-0.025
-0.035
-0.055
-0.065
-0.045
-0.04
-0.035
-0.01
0.045
0.055
0.07
0.135
0.11
0.07
0.0
0.0
-0.075
-0.11
-0.105
-0.1
-0.105
-0.1
-0.105
-0.105
-0.065
0.17
0.455
-0.12
-0.44
-0.27
-0.14
-0.105
-0.11
-0.105
-0.1
-0.095
-0.105
-0.09
-0.08
-0.065
-0.045
-0.045
-0.04
-0.02
0.0
0.015
0.05
0.075
0.095
0.125
0.165
0.205
0.205
0.22
0.24
0.25
0.22
0.16
0.08
0.02
-0.005
-0.005
-0.03
-0.04
-0.055
-0.015
-0.055
-0.05
-0.03
-0.02
-0.035
-0.025
-0.04
-0.035
-0.03
-0.035
-0.045
-0.06
-0.065
-0.055
-0.03
0.05
0.05
0.075
0.095
0.125
0.1
0.04
0.01
-0.015
-0.105
-0.095
-0.115
-0.115
-0.135
-0.095
-0.135
-0.06
0.0
0.28
0.385
-0.44
-0.375
-0.195
-0.085
-0.095
-0.12
-0.105
-0.095
-0.095
-0.115
-0.09
-0.095
-0.065
-0.05
-0.035
-0.035
0.0
0.0
0.04
0.06
0.11
0.13
0.18
0.2
0.21
0.235
0.255
0.27
0.245
0.175
0.115
0.055
0.02
-0.005
-0.02
-0.055
-0.045
-0.025
-0.025
-0.025
-0.025
-0.035
-0.025
-0.025
-0.035
-0.03
-0.04
-0.05
-0.035
-0.055
-0.065
-0.06
0.01
0.065
0.09
0.055
0.095
0.065
0.045
-0.03
-0.005
-0.125
-0.135
-0.135
-0.105
-0.135
-0.085
-0.105
-0.045
-0.01
0.23
0.485
-0.395
-0.39
-0.225
-0.11
-0.11
-0.12
-0.09
-0.135
-0.065
-0.105
-0.1
-0.08
-0.065
-0.06
-0.045
-0.04
-0.005
-0.005
0.035
0.055
0.1
0.13
0.145
0.18
0.22
0.235
0.275
0.275
0.265
0.205
0.15
0.07
0.025
-0.02
-0.01
-0.025
-0.035
-0.035
-0.025
-0.025
-0.015
-0.015
-0.015
-0.025
-0.025
-0.035
-0.02
-0.025
-0.045
-0.04
-0.055
-0.01
0.045
0.055
0.075
0.125
0.115
0.08
0.015
0.015
-0.045
-0.115
-0.09
-0.12
-0.09
-0.04
-0.12
-0.115
-0.055
0.11
0.355
0.095
-0.415
-0.295
-0.16
-0.075
-0.095
-0.115
-0.105
-0.1
-0.08
-0.09
-0.07
-0.055
0.0
-0.085
-0.045
-0.05
-0.005
0.015
0.03
0.06
0.105
0.145
0.18
0.215
0.2
0.23
0.25
0.255
0.235
0.185
0.09
0.035
-0.01
-0.005
-0.04
-0.06
-0.06
-0.06
-0.04
-0.05
0.0
-0.015
-0.07
-0.055
-0.04
-0.025
-0.035
-0.045
-0.035
-0.055
-0.02
0.04
0.035
0.08
0.085
0.13
0.095
0.015
0.015
-0.035
-0.11
-0.11
-0.13
-0.095
-0.115
-0.09
-0.11
-0.065
0.055
0.3
0.22
-0.415
-0.315
-0.19
-0.09
-0.095
-0.115
-0.1
-0.105
-0.09
-0.09
-0.075
-0.085
-0.05
-0.05
-0.025
-0.025
0.0
0.005
0.04
0.055
0.11
0.12
0.18
0.195
0.195
0.255
0.265
0.27
0.24
0.165
0.11
0.01
-0.01
-0.04
-0.015
-0.045
-0.055
-0.05
-0.07
-0.025
-0.035
-0.04
-0.045
-0.025
-0.04
-0.045
-0.045
-0.065
-0.05
-0.03
0.025
0.025
0.055
0.025
0.14
0.115
0.085
0.0
-0.035
-0.12
-0.095
-0.095
-0.085
-0.105
-0.095
-0.105
-0.07
0.0
0.28
0.465
-0.38
-0.325
-0.195
-0.06
-0.09
-0.1
-0.085
-0.13
-0.1
-0.115
-0.045
-0.055
-0.045
-0.06
-0.04
-0.045
0.0
-0.01
0.035
0.055
0.115
0.14
0.165
0.185
0.19
0.23
0.265
0.265
0.255
0.16
0.125
0.065
0.01
-0.005
-0.045
-0.06
-0.035
-0.04
-0.01
-0.02
-0.03
-0.025
-0.03
-0.015
-0.035
-0.045
-0.035
-0.035
-0.05
-0.03
0.07
0.065
0.08
0.105
0.09
0.095
0.03
0.005
-0.035
-0.11
-0.105
-0.11
-0.115
-0.105
-0.105
-0.12
-0.04
0.115
0.38
0.07
-0.465
-0.295
