signal
-0.105
-0.13
-0.11
-0.165
-0.32
-0.21
0.635
2.31
1.565
0.275
-0.085
-0.04
-0.065
-0.125
-0.1
-0.115
-0.1
-0.11
-0.08
-0.085
-0.06
-0.065
-0.035
-0.035
-0.01
-0.015
0.0
-0.01
-0.025
-0.05
-0.04
-0.055
-0.035
-0.005
0.03
0.035
0.025
0.005
0.0
-0.015
-0.02
-0.035
-0.03
-0.045
-0.05
-0.06
-0.05
-0.07
-0.06
-0.075
-0.075
-0.08
-0.075
-0.09
-0.09
-0.1
-0.08
-0.095
-0.09
-0.1
-0.09
-0.095
-0.085
-0.11
-0.08
-0.08
-0.015
-0.025
0.08
0.1
0.08
0.0
-0.015
-0.105
-0.09
-0.14
-0.1
-0.14
-0.105
-0.22
-0.285
0.0
1.12
2.55
0.99
0.005
-0.06
-0.04
-0.08
-0.125
-0.09
-0.12
-0.085
-0.11
-0.07
-0.08
-0.05
-0.065
-0.01
-0.025
-0.005
-0.02
0.0
-0.005
0.0
-0.04
-0.025
-0.035
0.0
0.01
0.04
0.02
0.015
0.0
-0.005
-0.025
-0.035
-0.045
-0.02
-0.035
-0.05
-0.05
-0.06
-0.075
-0.07
-0.07
-0.075
-0.075
-0.08
-0.09
-0.07
-0.085
-0.1
-0.105
-0.09
-0.105
-0.1
-0.11
-0.095
-0.125
-0.105
-0.08
-0.035
-0.01
0.065
0.08
0.045
-0.015
-0.05
-0.125
-0.12
-0.155
-0.145
-0.145
-0.12
-0.29
-0.315
0.115
1.415
2.35
0.84
-0.04
-0.105
-0.06
-0.1
-0.145
-0.115
-0.14
-0.11
-0.13
-0.1
-0.095
-0.065
-0.055
-0.045
-0.045
-0.01
-0.01
-0.005
-0.02
-0.01
-0.005
-0.02
-0.01
0.025
0.055
0.06
0.01
0.015
-0.03
-0.015
-0.035
-0.015
-0.03
-0.08
-0.075
-0.085
-0.07
-0.07
-0.09
-0.095
-0.085
-0.095
-0.12
-0.095
-0.095
-0.12
-0.11
-0.12
-0.125
-0.11
-0.1
-0.125
-0.135
-0.12
-0.115
-0.115
-0.095
-0.055
-0.04
0.025
0.065
0.005
-0.025
-0.07
-0.135
-0.145
-0.155
-0.165
-0.16
-0.155
-0.325
-0.325
0.235
1.75
2.155
0.66
-0.06
-0.11
-0.075
-0.12
-0.14
-0.13
-0.12
-0.11
-0.13
-0.1
-0.095
-0.07
-0.065
-0.05
-0.045
-0.015
-0.015
-0.01
-0.02
-0.035
-0.045
-0.045
-0.025
0.005
0.03
0.04
0.01
0.0
-0.01
-0.035
-0.05
-0.055
-0.055
-0.05
-0.055
-0.065
-0.07
-0.08
-0.075
-0.08
-0.08
-0.085
-0.09
-0.085
-0.085
-0.1
-0.09
-0.11
-0.1
-0.11
-0.1
-0.105
-0.095
-0.105
-0.09
-0.09
-0.02
-0.04
0.03
0.075
0.095
0.025
0.005
-0.085
-0.095
-0.135
-0.115
-0.13
-0.115
-0.15
-0.31
-0.215
0.56
2.225
1.71
0.36
-0.07
-0.03
-0.065
-0.115
-0.105
-0.115
-0.095
-0.095
-0.08
-0.085
-0.06
-0.06
-0.04
-0.035
-0.01
-0.02
0.0
-0.005
-0.015
-0.035
-0.045
-0.06
-0.03
0.0
0.03
0.025
0.02
0.0
-0.005
-0.015
-0.015
-0.035
-0.04
-0.035
-0.045
-0.045
-0.05
-0.06
-0.06
-0.065
-0.07
-0.065
-0.07
-0.07
-0.07
-0.08
-0.07
-0.06
-0.055
-0.075
-0.07
-0.085
-0.075
-0.09
-0.07
-0.07
-0.005
-0.01
0.065
0.105
0.13
0.045
0.015
-0.065
-0.08
-0.11
-0.105
-0.12
-0.11
-0.145
-0.295
-0.195
0.56
2.165
1.68
0.375
-0.055
-0.035
-0.055
-0.105
-0.09
-0.105
-0.09
-0.09
-0.07
-0.075
-0.055
-0.05
-0.025
-0.03
-0.005
0.0
0.005
0.0
0.0
-0.02
-0.02
-0.035
-0.01
0.01
0.045
0.045
0.035
0.02
0.0
-0.015
-0.015
-0.025
-0.03
-0.03
-0.045
-0.05
-0.065
-0.055
-0.065
-0.065
-0.08
-0.085
-0.085
-0.08
-0.09
-0.095
-0.095
-0.09
-0.11
-0.09
-0.115
-0.105
-0.115
-0.11
-0.12
-0.095
-0.055
-0.03
0.0
0.075
0.075
0.04
-0.02
-0.06
-0.135
-0.125
-0.145
-0.125
-0.145
-0.12
-0.265
-0.285
0.135
1.415
2.315
0.82
-0.035
-0.085
-0.05
-0.075
-0.12
-0.09
-0.1
-0.08
-0.1
-0.07
-0.065
-0.045
-0.045
-0.01
-0.02
0.0
0.0
0.005
0.0
0.0
0.0
0.01
0.005
0.03
0.05
0.06
0.05
0.045
0.0
0.0
-0.005
-0.005
-0.01
-0.025
-0.025
-0.035
-0.05
-0.045
-0.06
-0.065
-0.065
-0.08
-0.065
-0.07
-0.07
-0.075
-0.08
-0.1
-0.09
-0.095
-0.095
-0.1
-0.105
-0.105
-0.11
-0.125
-0.11
-0.085
-0.015
-0.045
0.03
0.06
0.07
-0.02
-0.03
-0.12
-0.125
-0.16
-0.14
-0.165
-0.17
-0.21
-0.355
-0.265
0.54
2.17
1.6
0.385
-0.1
-0.105
-0.095
-0.15
-0.12
-0.135
-0.13
-0.12
-0.1
-0.12
-0.105
-0.09
-0.055
-0.065
-0.035
-0.01
0.0
-0.04
-0.01
-0.02
-0.02
-0.02
0.0
0.03
0.06
0.035
0.0
0.0
0.0
-0.005
-0.03
-0.065
-0.03
-0.045
-0.06
-0.06
-0.05
-0.07
-0.1
-0.085
-0.07
-0.075
-0.09
-0.1
-0.095
-0.1
-0.08
-0.1
-0.115
-0.12
-0.1
-0.14
-0.115
-0.115
-0.13
-0.125
-0.12
-0.08
-0.045
-0.035
0.05
0.065
0.015
-0.03
-0.085
-0.125
-0.135
-0.155
-0.13
-0.16
-0.14
-0.29
-0.33
0.165
1.585
2.29
0.76
-0.05
-0.09
-0.06
-0.09
-0.12
-0.11
-0.115
-0.09
-0.085
-0.08
-0.08
-0.055
-0.055
-0.035
-0.03
0.0
0.0
0.0
0.0
0.0
-0.025
-0.025
-0.03
-0.01
0.015
0.04
0.02
0.005
-0.02
-0.03
-0.03
-0.04
-0.05
-0.05
-0.055
-0.06
-0.065
-0.07
-0.075
-0.065
-0.08
-0.07
-0.075
-0.085
-0.09
-0.105
-0.115
-0.105
-0.105
-0.095
-0.11
-0.09
-0.105
-0.1
-0.125
-0.105
-0.105
-0.04
-0.045
0.025
0.065
0.085
0.0
-0.015
-0.1
-0.105
-0.14
-0.12
-0.145
-0.125
-0.185
-0.335
-0.225
0.63
2.34
1.52
0.26
-0.08
-0.05
-0.085
-0.14
-0.125
-0.145
-0.11
-0.125
-0.095
-0.105
-0.075
-0.07
-0.03
-0.05
-0.025
-0.025
0.0
-0.025
-0.025
-0.045
-0.06
-0.07
-0.045
-0.005
0.025
0.02
0.01
-0.01
-0.02
-0.03
-0.035
-0.035
-0.04
-0.045
-0.045
-0.045
-0.06
-0.055
-0.055
-0.055
-0.065
-0.075
-0.075
-0.085
-0.075
-0.085
-0.085
-0.085
-0.08
-0.095
-0.095
-0.095
-0.1
-0.1
-0.09
-0.08
-0.025
-0.035
0.03
0.07
0.09
0.025
0.0
-0.08
-0.1
-0.12
-0.11
-0.13
-0.115
-0.145
-0.29
-0.22
0.51
2.08
1.775
0.415
-0.08
-0.04
-0.06
-0.11
-0.11
-0.125
-0.105
-0.1
-0.085
-0.085
-0.07
-0.06
-0.035
-0.035
-0.015
-0.005
0.0
0.0
0.0
-0.02
-0.03
-0.04
-0.02
0.015
0.045
0.055
0.04
0.015
0.005
0.0
-0.015
-0.01
-0.01
-0.01
-0.025
-0.02
-0.03
-0.04
-0.05
-0.05
-0.05
-0.07
-0.06
-0.07
-0.07
-0.075
-0.065
-0.08
-0.05
-0.07
-0.06
-0.085
-0.06
-0.075
-0.06
-0.05
0.0
-0.015
0.1
0.095
0.11
0.04
0.005
-0.105
-0.09
-0.13
-0.12
-0.145
-0.115
-0.175
-0.3
-0.155
0.735
2.35
1.395
0.24
-0.085
-0.055
-0.06
-0.115
-0.11
-0.13
-0.105
-0.11
-0.075
-0.075
-0.04
-0.06
-0.04
-0.055
-0.015
-0.02
0.0
0.0
0.0
-0.03
-0.025
-0.04
-0.015
0.005
0.015
0.01
0.01
-0.005
-0.025
-0.045
-0.04
-0.07
-0.065
-0.055
-0.06
-0.06
-0.06
-0.075
-0.075
-0.085
-0.095
-0.095
-0.085
-0.095
-0.105
-0.115
-0.13
-0.115
-0.105
-0.115
-0.105
-0.135
-0.12
-0.135
-0.13
-0.1
-0.035
-0.045
0.04
0.065
0.03
-0.04
-0.05
-0.13
-0.125
-0.15
-0.125
-0.18
-0.145
-0.27
-0.32
0.04
1.345
2.455
0.945
-0.025
-0.105
-0.055
-0.1
-0.135
-0.115
-0.12
-0.1
-0.105
-0.09
-0.075
-0.06
-0.065
-0.015
-0.015
0.0
0.005
0.0
0.0
0.01
0.0
0.005
-0.01
0.015
0.03
0.06
0.04
0.005
-0.03
-0.02
-0.025
-0.055
-0.07
-0.055
-0.05
-0.06
-0.075
-0.06
-0.075
-0.09
-0.075
-0.08
-0.09
-0.095
-0.11
-0.11
-0.115
-0.13
-0.125
-0.125
-0.12
-0.125
-0.115
-0.12
-0.125
-0.11
-0.055
-0.04
-0.005
0.05
0.085
0.025
0.0
-0.075
-0.105
-0.13
-0.125
-0.13
-0.125
-0.145
-0.305
-0.27
0.42
2.015
1.94
0.51
-0.065
-0.055
-0.05
-0.105
-0.105
-0.105
-0.1
-0.105
-0.07
-0.07
-0.05
-0.05
-0.04
-0.025
-0.005
0.005
0.01
0.0
-0.005
-0.02
-0.04
-0.045
-0.035
-0.01
0.02
0.04
0.025
0.0
0.0
-0.005
-0.02
-0.02
-0.025
-0.025
-0.035
-0.035
-0.05
-0.065
-0.05
-0.065
-0.06
-0.075
-0.075
-0.085
-0.08
-0.09
-0.085
-0.105
-0.095
-0.105
-0.09
-0.1
-0.09
-0.11
-0.09
-0.09
-0.02
-0.03
0.06
0.08
0.085
0.0
-0.005
-0.1
-0.105
-0.14
-0.12
-0.15
-0.12
-0.17
-0.315
-0.205
0.625
2.305
1.555
0.29
-0.07
-0.05
-0.075
-0.125
-0.105
-0.13
-0.105
-0.105
-0.085
-0.09
-0.06
-0.06
-0.035
-0.045
-0.01
-0.01
0.005
-0.005
-0.005
-0.03
-0.04
-0.07
-0.04
-0.015
0.015
0.0
0.005
-0.01
-0.01
-0.02
-0.03
-0.04
-0.025
-0.04
-0.035
-0.05
-0.045
-0.065
-0.065
-0.065
-0.07
-0.09
-0.07
-0.085
-0.075
-0.085
-0.07
-0.09
-0.08
-0.095
-0.08
-0.11
-0.09
-0.11
-0.085
-0.07
-0.01
-0.02
0.075
0.095
0.08
-0.005
-0.015
-0.115
-0.1
-0.145
-0.11
-0.15
-0.115
-0.21
-0.3
-0.085
0.94
2.485
1.13
0.065
-0.095
-0.055
-0.085
-0.135
-0.105
-0.13
-0.085
-0.115
-0.08
-0.095
-0.055
-0.07
-0.04
-0.055
-0.015
-0.015
0.0
-0.02
0.0
-0.045
-0.035
-0.05
-0.025
-0.005
0.02
0.025
0.02
-0.02
-0.03
-0.045
-0.02
-0.02
-0.04
-0.045
-0.055
-0.055
-0.045
-0.06
-0.07
-0.065
-0.07
-0.075
-0.075
-0.085
-0.08
-0.075
-0.08
-0.1
-0.09
-0.11
-0.1
-0.11
-0.105
-0.115
-0.095
-0.065
-0.04
-0.02
0.055
0.075
0.03
-0.02
-0.075
-0.12
-0.135
-0.14
-0.14
-0.16
-0.15
-0.315
-0.3
0.22
1.61
2.185
0.73
-0.05
-0.1
-0.065
-0.12
-0.135
-0.125
-0.12
-0.11
-0.115
-0.1
-0.095
-0.075
-0.07
-0.045
-0.015
-0.015
-0.035
-0.015
-0.02
-0.02
-0.04
-0.035
-0.03
0.015
-0.005
0.015
0.005
-0.025
-0.04
-0.035
-0.045
-0.06
-0.05
-0.055
-0.08
-0.08
-0.08
-0.09
-0.08
-0.085
-0.1
-0.095
-0.095
-0.08
-0.105
-0.135
-0.1
-0.1
-0.11
-0.135
-0.12
-0.11
-0.115
-0.125
-0.105
-0.12
-0.065
-0.075
0.02
0.04
0.055
-0.01
-0.005
-0.11
-0.115
-0.165
-0.145
-0.17
-0.145
-0.185
-0.35
-0.25
0.59
2.305
1.65
0.36
-0.07
-0.07
-0.06
-0.12
-0.125
-0.135
-0.11
-0.115
-0.095
-0.105
-0.065
-0.085
-0.045
-0.03
-0.01
-0.01
0.0
0.0
0.0
-0.025
-0.025
-0.05
-0.035
-0.01
0.02
0.025
0.015
-0.01
-0.015
-0.03
-0.03
-0.04
-0.03
-0.04
-0.05
-0.05
-0.05
-0.07
-0.06
-0.06
-0.06
-0.08
-0.08
-0.085
-0.08
-0.095
-0.095
-0.1
-0.09
-0.095
-0.08
-0.105
-0.09
-0.1
-0.08
-0.08
-0.005
-0.03
0.05
0.07
0.1
0.02
0.005
-0.085
-0.09
-0.13
-0.105
-0.135
-0.1
-0.165
-0.315
-0.18
0.745
2.455
1.44
0.225
-0.06
-0.03
-0.06
-0.125
-0.095
-0.115
-0.08
-0.105
-0.07
-0.085
-0.055
-0.065
-0.03
-0.035
-0.01
-0.015
0.0
-0.005
0.0
-0.03
-0.04
-0.06
-0.03
-0.01
0.02
0.025
0.01
-0.01
-0.005
-0.02
-0.025
-0.03
-0.03
-0.04
-0.035
-0.05
-0.045
-0.06
-0.06
-0.06
-0.055
-0.06
-0.055
-0.07
-0.065
-0.08
-0.08
-0.09
-0.07
-0.08
-0.07
-0.095
-0.09
-0.095
-0.08
-0.07
0.0
-0.02
0.075
0.09
0.1
0.02
0.005
-0.085
-0.08
-0.12
-0.095
-0.125
-0.105
-0.165
-0.305
-0.17
0.7
2.35
1.46
0.235
-0.07
-0.04
-0.055
-0.125
-0.095
-0.12
-0.085
-0.1
-0.075
-0.075
-0.045
-0.06
-0.035
-0.03
0.0
0.0
0.01
0.0
0.0
-0.03
-0.035
-0.05
-0.04
-0.02
0.02
0.015
0.005
0.0
-0.005
-0.015
-0.02
-0.02
-0.02
-0.03
-0.035
-0.045
-0.04
-0.05
-0.05
-0.065
-0.06
-0.075
-0.07
-0.08
-0.075
-0.095
-0.09
-0.1
-0.085
-0.095
-0.08
-0.105
-0.075
-0.1
-0.075
-0.07
-0.015
-0.035
0.065
0.09
0.08
0.0
-0.02
-0.115
-0.105
-0.14
-0.1
-0.145
-0.11
-0.22
-0.31
-0.075
0.97
2.515
1.125
0.07
-0.085
-0.04
-0.07
-0.13
-0.09
-0.115
-0.085
-0.1
-0.06
-0.07
-0.025
-0.035
-0.01
-0.035
0.0
0.0
0.015
0.01
0.015
-0.015
-0.03
-0.035
0.0
0.01
0.04
0.025
0.025
-0.005
-0.02
-0.025
-0.02
-0.02
-0.03
-0.055
-0.045
-0.045
-0.055
-0.085
-0.065
-0.095
-0.09
-0.085
-0.1
-0.095
-0.105
-0.12
-0.11
-0.12
-0.105
-0.11
-0.1
-0.125
-0.115
-0.125
-0.105
-0.12
-0.035
-0.06
0.045
0.06
0.06
-0.025
-0.035
-0.12
-0.12
-0.16
-0.13
-0.15
-0.135
-0.185
-0.335
-0.195
0.705
2.36
1.44
0.27
-0.095
-0.065
-0.075
-0.145
-0.1
-0.13
-0.105
-0.12
-0.11
-0.095
-0.06
-0.07
-0.045
-0.045
-0.005
-0.015
0.005
0.0
0.015
-0.03
-0.035
-0.035
-0.02
0.0
0.03
0.02
0.01
0.0
-0.025
-0.035
-0.055
-0.07
-0.04
-0.045
-0.055
-0.08
-0.06
-0.075
-0.08
-0.095
-0.085
-0.085
-0.07
-0.12
-0.125
-0.11
-0.09
-0.105
-0.115
-0.12
-0.115
-0.125
-0.1
-0.13
-0.1
-0.11
-0.045
-0.065
0.025
0.055
0.05
-0.01
-0.02
-0.12
-0.12
-0.16
-0.12
-0.17
-0.12
-0.235
-0.34
-0.11
1.005
2.58
1.165
0.08
-0.09
-0.065
-0.08
-0.15
-0.12
-0.14
-0.1
-0.115
-0.09
-0.105
-0.075
-0.075
-0.045
-0.05
0.005
-0.02
0.0
-0.025
-0.015
-0.03
-0.04
-0.05
-0.015
0.0
0.02
0.005
-0.005
-0.02
-0.03
-0.05
-0.045
-0.045
-0.05
-0.055
-0.055
-0.06
-0.05
-0.06
-0.06
-0.065
-0.08
-0.095
-0.105
-0.1
-0.095
-0.1
-0.105
-0.105
-0.105
-0.105
-0.11
-0.12
-0.115
-0.11
-0.11
-0.11
-0.05
-0.03
0.005
0.07
0.09
0.045
0.005
-0.055
-0.1
-0.115
-0.12
-0.125
-0.125
-0.135
-0.305
-0.275
0.315
1.82
2.09
0.58
-0.085
-0.045
-0.05
-0.1
-0.11
-0.11
-0.105
-0.095
-0.095
-0.08
-0.07
-0.065
-0.05
-0.04
-0.03
-0.02
-0.01
-0.01
-0.025
-0.04
-0.055
-0.065
-0.055
-0.025
0.005
0.02
0.015
0.0
-0.015
-0.02
-0.025
-0.035
-0.04
-0.035
-0.045
-0.05
-0.05
-0.055
-0.065
-0.07
-0.08
-0.08
-0.09
-0.09
-0.1
-0.095
-0.105
-0.095
-0.115
-0.095
-0.125
-0.11
-0.115
-0.095
-0.12
-0.095
-0.095
-0.02
-0.035
0.065
0.08
0.085
-0.005
-0.015
-0.11
-0.1
-0.15
-0.13
-0.15
-0.11
-0.205
-0.31
-0.095
0.92
2.525
1.17
0.085
-0.08
-0.055
-0.07
-0.13
-0.095
-0.125
-0.095
-0.115
-0.085
-0.085
-0.06
-0.08
-0.035
-0.04
-0.02
-0.025
-0.01
-0.02
-0.02
-0.055
-0.05
-0.07
-0.04
-0.005
0.02
0.02
0.02
0.0
-0.005
-0.015
-0.01
-0.03
-0.025
-0.025
-0.025
-0.05
-0.045
-0.05
-0.06
-0.07
-0.065
-0.075
-0.075
-0.085
-0.085
-0.085
-0.085
-0.085
-0.085
-0.095
-0.09
-0.105
-0.1
-0.105
-0.095
-0.08
-0.015
-0.025
0.065
0.095
0.1
0.035
0.0
-0.075
-0.105
-0.125
-0.125
-0.145
-0.125
-0.16
-0.3
-0.215
0.515
2.085
1.69
0.42
-0.07
-0.06
-0.045
-0.11
-0.105
-0.125
-0.1
-0.09
-0.085
-0.075
-0.055
-0.065
-0.045
-0.04
-0.015
0.0
0.005
-0.015
-0.01
-0.02
-0.015
-0.035
-0.015
0.0
0.025
0.025
0.01
-0.01
-0.02
-0.01
-0.04
-0.04
-0.04
-0.05
-0.06
-0.04
-0.04
-0.055
-0.055
-0.075
-0.08
-0.065
-0.08
-0.085
-0.095
-0.075
-0.115
-0.1
-0.105
-0.1
-0.1
-0.085
-0.115
-0.115
-0.1
-0.08
-0.065
-0.045
-0.025
0.06
0.06
0.055
-0.025
-0.06
-0.13
-0.135
-0.145
-0.13
-0.175
-0.14
-0.285
-0.34
0.08
1.41
2.375
0.9
-0.035
-0.1
-0.065
-0.095
-0.145
-0.11
-0.115
-0.11
-0.12
-0.09
-0.07
-0.05
-0.08
-0.035
-0.04
-0.015
0.0
0.0
0.01
0.0
-0.03
-0.02
-0.015
0.0
0.025
0.035
0.015
0.0
-0.01
-0.035
-0.03
-0.04
-0.065
-0.04
-0.06
-0.06
-0.075
-0.065
-0.075
-0.075
-0.08
-0.08
-0.09
-0.09
-0.105
-0.105
-0.105
-0.09
-0.09
-0.1
-0.12
-0.095
-0.115
-0.105
-0.125
-0.11
-0.11
-0.035
-0.07
0.01
0.05
0.065
-0.02
-0.025
-0.095
-0.125
-0.16
-0.13
-0.16
-0.14
-0.19
-0.34
-0.265
0.575
2.27
1.625
0.34
-0.085
-0.08
-0.085
-0.135
-0.115
-0.135
-0.11
-0.12
-0.09
-0.1
-0.07
-0.08
-0.05
-0.045
-0.015
-0.02
0.005
-0.01
-0.005
-0.03
-0.035
-0.05
-0.025
-0.005
0.025
0.025
0.02
0.0
0.0
-0.015
-0.01
-0.03
-0.03
-0.04
-0.035
-0.05
-0.055
-0.06
-0.065
-0.065
-0.065
-0.065
-0.07
-0.065
-0.08
-0.08
-0.095
-0.095
-0.1
-0.09
-0.09
-0.085
-0.095
-0.09
-0.1
-0.085
-0.08
-0.01
-0.03
0.045
0.085
0.1
0.025
0.0
-0.085
-0.105
-0.12
-0.11
-0.13
-0.115
-0.145
-0.31
-0.23
0.54
2.185
1.68
0.365
-0.075
-0.035
-0.06
-0.12
-0.105
-0.115
-0.095
-0.105
-0.08
-0.09
-0.07
-0.065
-0.04
-0.04
-0.015
-0.015
0.0
-0.015
-0.03
-0.045
-0.055
-0.06
-0.055
-0.025
0.015
0.015
0.02
0.005
-0.01
-0.02
-0.03
-0.03
-0.035
-0.045
-0.045
-0.045
-0.055
-0.06
-0.07
-0.065
-0.07
-0.07
-0.08
-0.07
-0.09
-0.08
-0.09
-0.08
-0.095
-0.09
-0.105
-0.085
-0.11
-0.1
-0.12
-0.095
-0.07
-0.03
-0.015
0.065
0.075
0.065
-0.01
-0.04
-0.125
-0.115
-0.14
-0.12
-0.15
-0.125
-0.265
-0.295
0.085
1.34
2.4
0.835
-0.05
-0.075
-0.05
-0.08
-0.115
-0.095
-0.115
-0.085
-0.105
-0.07
-0.08
-0.06
-0.05
-0.015
-0.035
-0.005
0.0
0.0
-0.015
-0.02
-0.035
-0.035
-0.045
-0.01
0.015
0.035
0.02
-0.005
-0.02
-0.015
-0.03
-0.015
-0.02
-0.03
-0.045
-0.035
-0.045
-0.025
-0.05
-0.045
-0.065
-0.065
-0.085
-0.075
-0.085
-0.075
-0.085
-0.085
-0.1
-0.095
-0.115
-0.08
-0.12
-0.1
-0.115
-0.09
-0.085
-0.025
-0.035
0.055
0.06
0.06
-0.005
-0.02
-0.135
-0.12
-0.155
-0.12
-0.16
-0.135
-0.23
-0.325
-0.11
0.955
2.46
1.14
0.085
-0.085
-0.05
-0.08
-0.14
-0.115
-0.14
-0.095
-0.12
-0.09
-0.1
-0.065
-0.075
-0.035
-0.03
-0.015
-0.025
0.005
-0.005
-0.005
-0.05
-0.02
-0.025
-0.025
-0.005
0.025
0.015
0.0
-0.03
-0.02
-0.05
-0.045
-0.06
-0.05
-0.07
-0.06
-0.065
-0.07
-0.08
-0.09
-0.08
-0.085
-0.105
-0.105
-0.095
-0.105
-0.115
-0.11
-0.12
-0.11
-0.105
-0.115
-0.115
-0.125
-0.14
-0.135
-0.125
-0.07
-0.055
-0.03
0.035
0.065
0.005
-0.02
-0.07
-0.115
-0.13
-0.13
-0.15
-0.145
-0.13
-0.295
-0.315
0.255
1.76
2.11
0.685
-0.04
-0.08
-0.065
-0.12
-0.125
-0.12
-0.11
-0.105
-0.105
-0.08
-0.07
-0.07
-0.04
-0.04
-0.02
-0.01
0.02
0.01
0.0
-0.015
-0.01
-0.01
0.0
-0.005
0.005
0.01
0.015
0.0
-0.025
-0.035
-0.04
-0.04
-0.06
-0.055
-0.05
-0.065
-0.065
-0.055
-0.065
-0.095
-0.085
-0.065
-0.095
-0.105
-0.09
-0.08
-0.1
-0.1
-0.11
-0.1
-0.105
-0.1
-0.115
-0.095
-0.125
-0.1
-0.085
-0.025
-0.045
0.05
0.06
0.06
-0.005
-0.02
-0.115
-0.11
-0.155
-0.125
-0.15
-0.125
-0.24
-0.345
-0.07
1.115
2.6
1.04
0.03
-0.08
-0.06
-0.09
-0.15
-0.12
-0.14
-0.1
-0.115
-0.09
-0.1
-0.065
-0.075
-0.05
-0.045
-0.015
-0.025
0.0
-0.015
-0.015
-0.03
-0.03
-0.05
-0.03
-0.01
0.015
0.005
-0.005
-0.02
-0.025
-0.025
-0.035
-0.03
-0.035
-0.04
-0.06
-0.04
-0.05
-0.055
-0.065
-0.06
-0.055
-0.065
-0.065
-0.055
-0.07
-0.07
-0.085
-0.075
-0.08
-0.075
-0.095
-0.075
-0.095
-0.085
-0.105
-0.075
-0.04
-0.01
-0.01
0.075
0.08
0.06
-0.02
-0.045
-0.13
-0.115
-0.15
-0.115
-0.135
-0.105
-0.26
-0.29
0.14
1.475
2.415
0.79
-0.05
-0.04
-0.035
-0.075
-0.12
-0.09
-0.115
-0.09
-0.105
-0.075
-0.08
-0.055
-0.06
-0.025
-0.035
-0.005
-0.01
0.0
-0.015
-0.025
-0.06
-0.065
-0.075
-0.03
-0.005
0.015
0.005
0.0
-0.015
-0.01
-0.03
-0.02
-0.035
-0.035
-0.04
-0.035
-0.045
-0.05
-0.055
-0.055
-0.065
-0.07
-0.07
-0.065
-0.075
-0.075
-0.08
-0.095
-0.095
-0.085
-0.085
-0.085
-0.09
-0.085
-0.09
-0.09
-0.085
-0.025
-0.03
0.035
0.08
0.09
0.025
0.0
-0.07
-0.11
-0.12
-0.125
-0.125
-0.13
-0.145
-0.295
-0.25
0.375
1.835
1.93
0.53
-0.07
-0.06
-0.055
-0.1
-0.11
-0.11
-0.11
-0.115
-0.095
-0.095
-0.075
-0.07
-0.05
-0.04
-0.03
-0.025
-0.01
-0.005
0.0
-0.02
-0.025
-0.04
-0.025
-0.01
0.02
0.025
0.02
0.0
0.0
-0.005
-0.005
-0.02
-0.03
-0.025
-0.03
-0.025
-0.03
-0.045
-0.045
-0.05
-0.065
-0.07
-0.07
-0.07
-0.075
-0.075
-0.08
-0.085
-0.08
-0.085
-0.09
-0.095
-0.105
-0.08
-0.095
-0.09
-0.08
-0.015
-0.025
0.05
0.075
0.075
0.01
-0.025
-0.115
-0.115
-0.135
-0.12
-0.135
-0.13
-0.165
-0.32
-0.24
0.535
2.135
1.635
0.41
-0.08
-0.07
-0.07
-0.125
-0.13
-0.145
-0.12
-0.125
-0.105
-0.085
-0.08
-0.07
-0.045
-0.06
-0.015
-0.015
0.0
0.0
0.0
-0.005
-0.03
-0.04
-0.015
0.0
0.0
0.01
0.01
-0.015
-0.04
-0.055
-0.055
-0.065
-0.06
-0.05
-0.06
-0.065
-0.095
-0.075
-0.065
-0.075
-0.095
-0.095
-0.1
-0.105
-0.11
-0.095
-0.115
-0.105
-0.12
-0.12
-0.135
-0.095
-0.12
-0.1
-0.145
-0.115
-0.11
-0.065
-0.055
0.03
0.045
0.03
-0.035
-0.07
-0.15
-0.125
-0.185
-0.145
-0.175
-0.145
-0.275
-0.33
-0.01
1.255
2.51
0.965
-0.005
-0.11
-0.07
-0.1
-0.15
-0.11
-0.145
-0.11
-0.12
-0.1
-0.12
-0.06
-0.07
-0.025
-0.05
-0.01
-0.015
0.0
-0.03
-0.01
-0.01
-0.035
-0.04
-0.005
-0.01
0.02
0.0
0.0
-0.035
-0.045
-0.035
-0.04
-0.06
-0.05
-0.055
-0.075
-0.085
-0.07
-0.065
-0.08
-0.095
-0.09
-0.095
-0.1
-0.1
-0.105
-0.105
-0.105
-0.105
-0.11
-0.11
-0.125
-0.105
-0.105
-0.11
-0.12
-0.105
-0.075
-0.025
-0.04
0.045
0.075
0.035
-0.01
-0.05
-0.115
-0.115
-0.14
-0.125
-0.14
-0.13
-0.28
-0.315
0.105
1.46
2.42
0.825
-0.04
-0.06
-0.05
-0.09
-0.125
-0.105
-0.115
-0.1
-0.1
-0.085
-0.09
-0.065
-0.06
-0.045
-0.04
-0.015
-0.02
-0.01
-0.02
-0.03
-0.04
-0.04
-0.04
-0.025
-0.005
0.01
0.005
0.0
-0.015
-0.02
-0.02
-0.03
-0.025
-0.03
-0.025
-0.03
-0.045
-0.05
-0.055
-0.06
-0.06
-0.075
-0.07
-0.08
-0.07
-0.08
-0.065
-0.08
-0.065
-0.09
-0.065
-0.09
-0.08
-0.095
-0.075
-0.105
-0.075
-0.06
0.0
-0.015
0.09
0.09
0.075
0.0
-0.025
-0.115
-0.105
-0.14
-0.12
-0.15
-0.115
-0.245
-0.305
0.015
1.22
2.52
0.925
-0.03
-0.085
-0.065
-0.085
-0.13
-0.09
-0.11
-0.085
-0.11
-0.075
-0.085
-0.035
-0.055
-0.02
-0.035
0.0
-0.01
0.005
-0.01
-0.005
-0.035
-0.03
-0.065
-0.04
-0.01
0.02
0.0
0.005
-0.01
-0.015
-0.03
-0.025
-0.03
-0.015
-0.03
-0.035
-0.04
-0.05
-0.05
-0.055
-0.065
-0.075
-0.08
-0.08
-0.07
-0.09
-0.075
-0.08
-0.075
-0.08
-0.075
-0.09
-0.075
-0.09
-0.08
-0.085
-0.065
-0.05
-0.01
0.01
0.09
0.105
0.065
0.005
-0.025
-0.1
-0.085
-0.12
-0.08
-0.115
-0.08
-0.225
-0.28
0.1
1.34
2.41
0.875
-0.01
-0.07
-0.03
-0.06
-0.115
-0.09
-0.09
-0.075
-0.075
-0.055
-0.055
-0.035
-0.045
-0.01
-0.01
0.01
0.005
0.02
0.015
0.005
-0.005
-0.015
-0.02
0.0
0.01
0.025
0.025
0.015
-0.01
-0.01
-0.03
-0.02
-0.04
-0.025
-0.035
-0.06
-0.04
-0.07
-0.07
-0.065
-0.07
-0.08
-0.07
-0.1
-0.09
-0.1
-0.09
-0.1
-0.095
-0.115
-0.12
-0.125
-0.105
-0.14
-0.105
-0.115
-0.075
-0.08
-0.06
-0.04
0.05
0.05
0.055
-0.03
-0.045
-0.145
-0.125
-0.17
-0.135
-0.155
-0.14
-0.265
-0.325
-0.03
1.145
2.46
1.04
0.03
-0.105
-0.065
-0.105
-0.16
-0.12
-0.135
-0.105
-0.115
-0.08
-0.09
-0.06
-0.065
-0.025
-0.03
0.0
0.0
0.015
0.0
0.005
-0.005
-0.01
-0.02
0.02
0.02
0.005
0.0
0.0
-0.02
-0.04
-0.03
-0.04
-0.05
-0.05
-0.065
-0.07
-0.08
-0.06
-0.075
-0.075
-0.085
-0.095
-0.095
-0.085
-0.09
-0.11
-0.09
-0.11
-0.11
-0.115
-0.105
-0.115
-0.105
-0.11
-0.105
-0.13
-0.12
-0.14
-0.045
-0.065
0.0
0.045
0.055
-0.03
-0.015
-0.11
-0.11
-0.15
-0.13
-0.145
-0.13
-0.19
-0.335
-0.22
0.68
2.375
1.5
0.3
-0.07
-0.045
-0.07
-0.13
-0.095
-0.12
-0.095
-0.12
-0.085
-0.095
-0.06
-0.06
-0.03
-0.02
0.0
0.0
0.025
0.015
0.02
0.0
-0.01
-0.02
-0.02
-0.005
0.02
0.025
0.025
0.0
-0.02
-0.03
-0.03
-0.035
-0.035
-0.045
-0.045
-0.05
-0.05
-0.055
-0.05
-0.065
-0.065
-0.085
-0.075
-0.085
-0.08
-0.09
-0.095
-0.095
-0.09
-0.1
-0.09
-0.105
-0.09
-0.105
-0.09
-0.11
-0.08
-0.055
-0.015
-0.025
0.065
0.085
0.055
-0.02
-0.035
-0.12
-0.12
-0.145
-0.12
-0.15
-0.125
-0.265
-0.325
0.045
1.33
2.485
0.855
-0.05
-0.075
-0.05
-0.095
-0.13
-0.105
-0.125
-0.1
-0.11
-0.085
-0.085
-0.055
-0.065
-0.045
-0.045
-0.005
-0.015
0.0
-0.02
-0.02
-0.045
-0.045
-0.06
-0.035
-0.015
0.01
0.015
0.005
-0.01
-0.025
-0.03
-0.03
-0.035
-0.045
-0.045
-0.04
-0.05
-0.05
-0.055
-0.065
-0.07
-0.075
-0.08
-0.08
-0.085
-0.085
-0.08
-0.1
-0.09
-0.1
-0.1
-0.1
-0.095
-0.105
-0.11
-0.11
-0.105
-0.095
-0.045
-0.04
0.025
0.07
0.08
0.01
-0.015
-0.095
-0.115
-0.125
-0.125
-0.125
-0.13
-0.145
-0.315
-0.25
0.385
1.87
1.91
0.515
-0.075
-0.055
-0.05
-0.11
-0.105
-0.11
-0.1
-0.1
-0.085
-0.08
-0.065
-0.06
-0.045
-0.04
-0.015
-0.015
0.0
-0.005
-0.005
-0.025
-0.04
-0.055
-0.055
-0.03
0.0
0.01
0.005
0.005
-0.005
-0.025
-0.025
-0.03
-0.025
-0.035
-0.035
-0.035
-0.03
-0.04
-0.06
-0.055
-0.055
-0.055
-0.07
-0.065
-0.085
-0.08
-0.09
-0.08
-0.07
-0.085
-0.085
-0.075
-0.085
-0.085
-0.1
-0.095
-0.085
-0.01
-0.02
0.035
0.08
0.09
0.02
-0.01
-0.095
-0.105
-0.125
-0.115
-0.125
-0.115
-0.135
-0.29
-0.23
0.49
2.055
1.715
0.435
-0.075
-0.05
-0.06
-0.115
-0.11
-0.125
-0.1
-0.1
-0.1
-0.08
-0.07
-0.06
-0.025
-0.025
0.0
0.005
0.015
0.0
0.01
0.0
-0.015
-0.035
-0.01
-0.01
0.0
0.015
0.0
-0.01
-0.005
-0.01
-0.035
-0.03
-0.045
-0.04
-0.045
-0.045
-0.065
-0.055
-0.075
-0.08
-0.06
-0.08
-0.07
-0.065
-0.08
-0.085
-0.095
-0.1
-0.1
-0.1
-0.115
-0.1
-0.1
-0.11
-0.13
-0.105
-0.08
-0.035
-0.04
0.03
0.075
0.095
0.035
-0.02
-0.08
-0.105
-0.145
-0.125
-0.125
-0.115
-0.14
-0.3
-0.275
0.35
1.89
1.98
0.625
-0.05
-0.085
-0.05
-0.11
-0.115
-0.1
-0.095
-0.095
-0.085
-0.1
-0.07
-0.065
-0.03
-0.035
-0.02
0.0
0.015
0.01
0.02
0.005
-0.005
-0.005
-0.025
0.005
0.04
0.025
0.005
-0.01
-0.015
0.0
-0.025
-0.06
-0.035
-0.04
-0.045
-0.06
-0.055
-0.055
-0.065
-0.065
-0.085
-0.085
-0.07
-0.085
-0.075
-0.095
-0.075
-0.1
-0.09
-0.095
-0.105
-0.11
-0.085
-0.11
-0.1
-0.105
-0.105
-0.08
-0.045
-0.02
0.04
0.065
0.025
-0.025
-0.06
-0.11
-0.115
-0.155
-0.135
-0.135
-0.125
-0.285
-0.29
0.18
1.6
2.305
0.77
-0.045
-0.075
-0.065
-0.105
-0.125
-0.12
-0.115
-0.095
-0.1
-0.08
-0.085
-0.055
-0.055
-0.02
-0.015
0.0
0.0
0.0
0.0
0.0
-0.025
-0.03
-0.05
-0.02
0.0
0.01
0.01
0.0
-0.01
-0.015
-0.03
-0.025
-0.04
-0.035
-0.04
-0.04
-0.055
-0.05
-0.045
-0.06
-0.07
-0.08
-0.075
-0.075
-0.075
-0.085
-0.08
-0.095
-0.095
-0.1
-0.095
-0.1
-0.09
-0.105
-0.095
-0.105
-0.09
-0.065
-0.025
-0.02
0.07
0.085
0.045
-0.015
-0.04
-0.115
-0.115
-0.14
-0.12
-0.14
-0.12
-0.265
-0.31
0.1
1.4
2.43
0.815
-0.045
-0.055
-0.05
-0.08
-0.11
-0.095
-0.11
-0.085
-0.085
-0.065
-0.07
-0.045
-0.045
-0.02
-0.02
0.0
0.0
0.01
-0.005
-0.005
-0.03
-0.035
-0.055
-0.04
0.0
0.025
0.01
0.0
-0.005
-0.01
-0.01
-0.02
-0.015
-0.035
-0.025
-0.03
-0.025
-0.04
-0.05
-0.06
-0.055
-0.07
-0.075
-0.085
-0.08
-0.085
-0.08
-0.095
-0.095
-0.09
-0.085
-0.1
-0.1
-0.1
-0.105
-0.105
-0.08
-0.035
-0.035
0.02
0.08
0.09
0.035
-0.01
-0.075
-0.115
-0.125
-0.135
-0.135
-0.145
-0.145
-0.31
-0.26
0.335
1.805
1.985
0.56
-0.065
-0.055
-0.055
-0.1
-0.115
-0.105
-0.105
-0.105
-0.11
-0.09
-0.08
-0.07
-0.065
-0.045
-0.03
-0.015
-0.015
-0.01
-0.02
-0.02
-0.04
-0.04
-0.05
-0.025
-0.005
0.01
0.0
-0.005
-0.025
-0.025
-0.04
-0.03
-0.035
-0.04
-0.04
-0.05
-0.06
-0.06
-0.075
-0.065
-0.075
-0.075
-0.095
-0.095
-0.095
-0.085
-0.1
-0.09
-0.11
-0.09
-0.115
-0.105
-0.115
-0.09
-0.12
-0.075
-0.085
-0.02
-0.045
0.07
0.075
0.085
-0.005
-0.02
-0.125
-0.11
-0.14
-0.105
-0.15
-0.12
-0.2
-0.315
-0.125
0.835
2.425
1.245
0.145
-0.1
-0.065
-0.07
-0.14
-0.11
-0.135
-0.1
-0.115
-0.085
-0.105
-0.06
-0.075
-0.05
-0.06
0.0
-0.01
0.01
-0.005
0.005
-0.03
-0.015
-0.055
-0.03
-0.02
0.015
0.015
0.0
-0.03
-0.02
-0.04
-0.03
-0.03
-0.035
-0.05
-0.055
-0.06
-0.075
-0.06
-0.07
-0.075
-0.08
-0.095
-0.105
-0.095
-0.11
-0.095
-0.105
-0.095
-0.125
-0.12
-0.125
-0.115
-0.125
-0.11
-0.12
-0.12
-0.085
-0.045
-0.03
0.055
0.07
0.04
-0.02
-0.08
-0.135
-0.13
-0.135
-0.155
-0.155
-0.135
-0.285
-0.325
0.085
1.4
2.36
0.89
-0.01
-0.105
-0.07
-0.11
-0.135
-0.13
-0.125
-0.115
-0.13
-0.095
-0.11
-0.065
-0.085
-0.045
-0.035
-0.03
-0.02
0.005
0.0
0.0
-0.03
-0.035
-0.03
-0.02
-0.01
0.01
0.01
-0.015
-0.02
-0.05
-0.055
-0.04
-0.045
-0.06
-0.065
-0.075
-0.065
-0.09
-0.08
-0.09
-0.08
-0.09
-0.095
-0.105
-0.085
-0.085
-0.115
-0.095
-0.085
-0.105
-0.1
-0.115
-0.1
-0.115
-0.115
-0.115
-0.09
-0.05
-0.055
-0.01
0.055
0.085
0.02
-0.015
-0.075
-0.12
-0.145
-0.16
-0.145
-0.155
-0.16
-0.32
-0.32
0.27
1.83
2.05
0.585
-0.09
-0.085
-0.08
-0.13
-0.14
-0.15
-0.14
-0.12
-0.115
-0.1
-0.085
-0.075
-0.07
-0.05
-0.035
-0.025
-0.015
-0.005
-0.005
-0.01
-0.03
-0.045
-0.05
-0.015
0.005
0.01
0.0
-0.01
-0.025
-0.02
-0.04
-0.045
-0.05
-0.045
-0.05
-0.045
-0.055
-0.05
-0.055
-0.06
-0.065
-0.06
-0.07
-0.07
-0.08
-0.07
-0.085
-0.09
-0.085
-0.08
-0.095
-0.09
-0.095
-0.095
-0.095
-0.095
-0.085
-0.02
-0.025
0.03
0.075
0.095
0.035
0.0
-0.07
-0.11
-0.12
-0.125
-0.13
-0.12
-0.135
-0.295
-0.255
0.38
1.915
1.97
0.53
-0.065
-0.05
-0.06
-0.11
-0.115
-0.115
-0.105
-0.105
-0.085
-0.08
-0.07
-0.07
-0.04
-0.045
-0.03
-0.02
-0.01
-0.02
-0.015
-0.035
-0.045
-0.06
-0.055
-0.045
-0.005
0.005
0.015
0.0
-0.015
-0.02
-0.025
-0.025
-0.035
-0.045
-0.035
-0.035
-0.03
-0.05
-0.055
-0.05
-0.06
-0.075
-0.075
-0.085
-0.075
-0.085
-0.07
-0.085
-0.08
-0.085
-0.085
-0.085
-0.085
-0.09
-0.09
-0.1
-0.08
-0.03
-0.01
0.03
0.09
0.095
0.05
-0.005
-0.045
-0.1
-0.1
-0.11
-0.1
-0.115
-0.11
-0.28
-0.255
0.295
1.695
2.12
0.65
-0.055
-0.045
-0.045
-0.095
-0.105
-0.09
-0.1
-0.08
-0.085
-0.07
-0.07
-0.055
-0.045
-0.02
-0.015
-0.005
0.0
0.015
0.005
-0.005
-0.035
-0.045
-0.045
-0.025
-0.01
0.005
-0.005
-0.01
-0.02
-0.02
-0.04
-0.035
-0.035
-0.03
-0.035
-0.04
-0.05
-0.04
-0.055
-0.065
-0.065
-0.07
-0.08
-0.08
-0.095
-0.08
-0.09
-0.09
-0.1
-0.09
-0.105
-0.09
-0.11
-0.1
-0.12
-0.1
-0.09
-0.015
-0.035
0.05
0.07
0.075
0.0
-0.025
-0.11
-0.115
-0.15
-0.135
-0.15
-0.13
-0.165
-0.305
-0.23
0.51
2.08
1.64
0.39
-0.085
-0.065
-0.06
-0.135
-0.105
-0.125
-0.105
-0.105
-0.075
-0.1
-0.06
-0.075
-0.04
-0.04
0.0
-0.01
-0.005
-0.01
-0.005
-0.01
-0.02
-0.045
-0.025
-0.015
0.005
0.01
0.005
-0.025
-0.025
-0.03
-0.04
-0.05
-0.035
-0.03
-0.035
-0.065
-0.07
-0.055
-0.065
-0.055
-0.07
-0.075
-0.09
-0.075
-0.09
-0.09
-0.105
-0.095
-0.1
-0.105
-0.105
-0.115
-0.14
-0.1
-0.115
-0.105
-0.08
-0.035
-0.055
0.05
0.07
0.05
-0.015
-0.025
-0.12
-0.115
-0.155
-0.12
-0.155
-0.12
-0.22
-0.335
-0.105
0.975
2.515
1.19
0.095
-0.09
-0.05
-0.075
-0.13
-0.105
-0.125
-0.115
-0.12
-0.08
-0.095
-0.08
-0.07
-0.045
-0.05
-0.005
0.0
0.01
-0.025
-0.01
-0.015
-0.015
-0.05
-0.02
0.0
0.005
0.005
0.015
-0.03
-0.04
-0.05
-0.055
-0.07
-0.06
-0.04
-0.07
-0.065
-0.06
-0.065
-0.095
-0.08
-0.095
-0.08
-0.09
-0.1
-0.11
-0.095
-0.12
-0.11
-0.115
-0.105
-0.115
-0.115
-0.135
-0.12
-0.13
-0.11
-0.105
-0.04
-0.035
0.05
0.055
0.035
-0.02
-0.06
-0.13
-0.115
-0.155
-0.125
-0.14
-0.115
-0.265
-0.335
0.015
1.33
2.505
0.93
0.005
-0.06
-0.045
-0.085
-0.125
-0.105
-0.12
-0.085
-0.105
-0.07
-0.08
-0.055
-0.055
-0.02
-0.03
0.0
-0.005
0.005
-0.005
-0.015
-0.03
-0.04
-0.05
-0.025
-0.01
0.015
0.005
0.0
-0.02
-0.025
-0.035
-0.03
-0.04
-0.04
-0.05
-0.055
-0.065
-0.065
-0.07
-0.07
-0.075
-0.08
-0.085
-0.075
-0.085
-0.085
-0.095
-0.095
-0.095
-0.1
-0.11
-0.105
-0.11
-0.11
-0.115
-0.11
-0.095
-0.04
-0.05
0.015
0.055
0.075
0.015
-0.01
-0.08
-0.125
-0.135
-0.135
-0.14
-0.135
-0.16
-0.32
-0.265
0.39
1.925
1.865
0.475
-0.09
-0.065
-0.07
-0.125
-0.115
-0.12
-0.11
-0.115
-0.095
-0.095
-0.085
-0.08
-0.055
-0.045
-0.025
-0.015
-0.01
-0.01
-0.005
-0.03
-0.045
-0.055
-0.045
-0.03
0.0
0.015
0.0
-0.01
-0.015
-0.02
-0.025
-0.035
-0.04
-0.035
-0.04
-0.045
-0.055
-0.055
-0.06
-0.06
-0.065
-0.065
-0.075
-0.07
-0.08
-0.08
-0.095
-0.085
-0.11
-0.09
-0.105
-0.09
-0.105
-0.09
-0.105
-0.085
-0.075
-0.01
-0.03
0.075
0.08
0.08
0.0
-0.015
-0.11
-0.095
-0.13
-0.1
-0.14
-0.11
-0.19
-0.31
-0.145
0.795
2.415
1.27
0.145
-0.08
-0.05
-0.06
-0.125
-0.11
-0.13
-0.095
-0.115
-0.085
-0.09
-0.055
-0.07
-0.05
-0.045
-0.02
-0.02
-0.005
-0.025
-0.01
-0.025
-0.025
-0.06
-0.045
-0.02
0.015
0.005
0.0
-0.01
-0.015
-0.025
-0.035
-0.045
-0.04
-0.035
-0.045
-0.05
-0.07
-0.075
-0.075
-0.065
-0.07
-0.065
-0.075
-0.08
-0.085
-0.095
-0.095
-0.1
-0.09
-0.1
-0.11
-0.095
-0.11
-0.1
-0.095
-0.085
-0.01
-0.025
0.055
0.095
0.085
0.035
-0.01
-0.085
-0.095
-0.12
-0.12
-0.12
-0.12
-0.13
-0.295
-0.25
0.37
1.84
1.94
0.61
-0.04
-0.05
-0.035
-0.085
-0.095
-0.1
-0.08
-0.07
-0.065
-0.075
-0.045
-0.04
-0.035
-0.005
0.0
0.0
0.02
0.03
0.015
0.005
-0.01
-0.015
-0.015
-0.01
0.01
0.015
0.01
0.0
-0.01
-0.04
-0.035
-0.04
-0.035
-0.055
-0.065
-0.055
-0.06
-0.055
-0.07
-0.085
-0.09
-0.08
-0.095
-0.085
-0.11
-0.1
-0.115
-0.12
-0.115
-0.115
-0.12
-0.105
-0.115
-0.1
-0.14
-0.1
-0.06
-0.05
-0.03
0.055
0.065
0.03
-0.025
-0.05
-0.145
-0.135
-0.15
-0.13
-0.145
-0.14
-0.29
-0.33
0.06
1.385
2.385
0.88
-0.035
-0.105
-0.08
-0.105
-0.145
-0.115
-0.13
-0.11
-0.115
-0.08
-0.095
-0.075
-0.06
-0.045
-0.035
-0.005
-0.01
0.0
0.005
0.0
-0.015
-0.025
-0.03
0.0
0.005
0.015
0.01
-0.005
-0.025
-0.04
-0.035
-0.04
-0.06
-0.05
-0.045
-0.055
-0.06
-0.06
-0.06
-0.06
-0.075
-0.07
-0.085
-0.09
-0.085
-0.085
-0.11
-0.1
-0.11
-0.105
-0.115
-0.105
-0.11
-0.095
-0.12
-0.1
-0.1
-0.025
-0.05
0.045
0.065
0.08
0.01
0.0
-0.1
-0.095
-0.135
-0.125
-0.14
-0.115
-0.175
-0.335
-0.22
0.655
2.35
1.5
0.3
-0.065
-0.045
-0.06
-0.115
-0.1
-0.125
-0.095
-0.115
-0.085
-0.085
-0.06
-0.06
-0.03
-0.035
-0.005
-0.01
0.005
0.0
0.005
-0.02
-0.02
-0.04
-0.025
-0.005
0.03
0.03
0.02
0.0
-0.005
-0.015
-0.02
-0.025
-0.03
-0.03
-0.025
-0.035
-0.04
-0.04
-0.04
-0.05
-0.06
-0.06
-0.06
-0.065
-0.065
-0.07
-0.075
-0.07
-0.08
-0.08
-0.08
-0.09
-0.09
-0.1
-0.1
-0.095
-0.085
-0.03
-0.035
0.02
0.075
0.09
0.02
-0.02
-0.08
-0.125
-0.13
-0.135
-0.13
-0.135
-0.15
-0.31
-0.27
0.325
1.79
2.015
0.575
-0.065
-0.06
-0.06
-0.105
-0.12
-0.12
-0.11
-0.1
-0.09
-0.085
-0.085
-0.075
-0.065
-0.05
-0.035
-0.02
-0.015
-0.015
-0.02
-0.03
-0.045
-0.065
-0.07
-0.05
-0.02
0.0
0.0
-0.01
-0.02
-0.03
-0.02
-0.03
-0.025
-0.035
-0.035
-0.04
-0.03
-0.04
-0.05
-0.055
-0.055
-0.08
-0.08
-0.085
-0.08
-0.085
-0.08
-0.085
-0.07
-0.09
-0.09
-0.105
-0.085
-0.1
-0.085
-0.105
-0.08
-0.04
-0.025
-0.005
0.075
0.075
0.04
-0.03
-0.055
-0.12
-0.115
-0.15
-0.12
-0.145
-0.12
-0.275
-0.31
0.085
1.325
2.32
0.8
-0.05
-0.09
-0.065
-0.11
-0.135
-0.11
-0.14
-0.1
-0.12
-0.09
-0.09
-0.06
-0.06
-0.03
-0.045
-0.01
-0.005
-0.005
0.0
-0.005
-0.03
-0.02
-0.045
-0.025
0.0
0.025
0.02
0.01
-0.01
-0.02
-0.025
-0.02
-0.035
-0.03
-0.03
-0.03
-0.045
-0.05
-0.055
-0.06
-0.045
-0.065
-0.085
-0.09
-0.075
-0.09
-0.095
-0.1
-0.1
-0.095
-0.095
-0.09
-0.085
-0.11
-0.105
-0.11
-0.1
-0.085
-0.025
-0.045
0.045
0.07
0.055
-0.015
-0.03
-0.11
-0.105
-0.15
-0.135
-0.16
-0.13
-0.185
-0.335
-0.245
0.555
2.18
1.575
0.375
-0.085
-0.09
-0.08
-0.12
-0.115
-0.13
-0.11
-0.115
-0.09
-0.11
-0.07
-0.075
-0.065
-0.06
-0.015
-0.01
-0.005
-0.01
-0.005
-0.04
-0.045
-0.055
-0.04
-0.025
0.0
0.0
0.005
-0.01
-0.025
-0.035
-0.03
-0.025
-0.05
-0.06
-0.045
-0.055
-0.06
-0.05
-0.045
-0.08
-0.07
-0.07
-0.085
-0.085
-0.08
-0.095
-0.09
-0.1
-0.08
-0.105
-0.11
-0.105
-0.095
-0.11
-0.1
-0.115
-0.1
-0.07
-0.035
-0.04
0.05
0.085
0.035
-0.02
-0.055
-0.13
-0.105
-0.14
-0.125
-0.155
-0.13
-0.27
-0.34
0.03
1.33
2.45
0.92
0.0
-0.075
-0.05
-0.085
-0.13
-0.11
-0.125
-0.1
-0.105
-0.085
-0.09
-0.065
-0.065
-0.03
-0.03
-0.01
-0.005
0.0
-0.015
-0.01
-0.03
-0.045
-0.05
-0.02
0.0
0.025
0.015
0.0
-0.015
-0.025
-0.03
-0.035
-0.04
-0.035
-0.04
-0.045
-0.04
-0.045
-0.055
-0.06
-0.065
-0.065
-0.075
-0.08
-0.08
-0.075
-0.08
-0.07
-0.08
-0.08
-0.08
-0.08
-0.095
-0.09
-0.105
-0.095
-0.11
-0.08
-0.04
-0.01
-0.01
0.085
0.11
0.06
-0.005
-0.025
-0.095
-0.095
-0.12
-0.095
-0.125
-0.105
-0.255
-0.305
0.08
1.38
2.45
0.855
-0.025
-0.05
-0.03
-0.07
-0.11
-0.095
-0.12
-0.095
-0.105
-0.065
-0.08
-0.055
-0.055
-0.025
-0.03
-0.015
-0.02
-0.005
-0.02
-0.015
-0.035
-0.045
-0.055
-0.03
-0.01
0.015
0.015
0.01
0.0
-0.005
-0.01
-0.02
-0.025
-0.03
-0.025
-0.035
-0.04
-0.045
-0.05
-0.065
-0.05
-0.065
-0.06
-0.075
-0.06
-0.075
-0.065
-0.08
-0.065
-0.085
-0.06
-0.085
-0.07
-0.095
-0.075
-0.095
-0.06
-0.045
-0.005
0.0
0.085
0.085
0.065
-0.01
-0.03
-0.12
-0.1
-0.14
-0.105
-0.145
-0.105
-0.24
-0.3
0.02
1.17
2.475
0.935
-0.005
-0.07
-0.045
-0.075
-0.13
-0.105
-0.135
-0.085
-0.11
-0.07
-0.085
-0.055
-0.07
-0.04
-0.04
-0.005
-0.02
0.0
-0.02
-0.015
-0.05
-0.04
-0.065
-0.04
-0.02
0.005
0.005
0.005
-0.01
-0.005
-0.02
-0.02
-0.025
-0.03
-0.035
-0.03
-0.035
-0.04
-0.045
-0.06
-0.045
-0.055
-0.075
-0.06
-0.065
-0.065
-0.07
-0.085
-0.085
-0.08
-0.085
-0.08
-0.1
-0.095
-0.095
-0.09
-0.065
-0.01
-0.025
0.065
0.1
0.095
0.025
-0.015
-0.075
-0.085
-0.115
-0.12
-0.135
-0.12
-0.135
-0.305
-0.24
0.395
1.885
1.835
0.52
-0.065
-0.07
-0.055
-0.12
-0.12
-0.115
-0.1
-0.1
-0.1
-0.07
-0.07
-0.07
-0.04
-0.035
-0.01
-0.01
0.0
-0.005
0.0
-0.015
-0.025
-0.035
-0.035
-0.01
0.01
0.01
0.005
0.0
-0.005
-0.025
-0.04
-0.045
-0.035
-0.05
-0.055
-0.055
-0.045
-0.055
-0.08
-0.095
-0.09
-0.09
-0.09
-0.095
-0.1
-0.105
-0.105
-0.11
-0.09
-0.12
-0.095
-0.12
-0.125
-0.115
-0.115
-0.105
-0.05
-0.065
0.0
0.035
0.05
0.01
-0.035
-0.11
-0.135
-0.155
-0.16
-0.165
-0.155
-0.17
-0.35
-0.325
0.31
1.855
1.965
0.58
-0.065
-0.085
-0.07
-0.14
-0.13
-0.13
-0.115
-0.105
-0.09
-0.09
-0.075
-0.075
-0.07
-0.055
-0.025
-0.02
-0.01
0.0
-0.015
-0.03
-0.035
-0.035
-0.035
-0.015
0.02
0.0
0.01
-0.005
-0.02
-0.04
-0.045
-0.045
-0.05
-0.055
-0.055
-0.055
-0.055
-0.06
-0.06
-0.08
-0.09
-0.07
-0.09
-0.095
-0.1
-0.1
-0.095
-0.105
-0.115
-0.105
-0.11
-0.12
-0.11
-0.105
-0.11
-0.105
-0.065
-0.025
-0.005
0.05
0.07
0.025
-0.01
-0.055
-0.115
-0.125
-0.13
-0.12
-0.13
-0.125
-0.285
-0.305
0.17
1.585
2.28
0.755
-0.04
-0.055
-0.035
-0.085
-0.1
-0.1
-0.11
-0.1
-0.105
-0.08
-0.085
-0.075
-0.06
-0.04
-0.035
-0.02
-0.02
0.0
-0.005
-0.015
-0.025
-0.045
-0.04
-0.015
0.01
0.03
0.02
0.005
-0.015
-0.015
-0.02
-0.02
-0.035
-0.035
-0.035
-0.04
-0.05
-0.05
-0.055
-0.055
-0.055
-0.065
-0.075
-0.075
-0.08
-0.065
-0.09
-0.075
-0.095
-0.085
-0.09
-0.08
-0.1
-0.08
-0.1
-0.075
-0.06
-0.005
-0.015
0.075
0.09
0.075
-0.005
-0.02
-0.105
-0.09
-0.12
-0.1
-0.125
-0.1
-0.215
-0.3
-0.04
1.075
2.55
1.035
0.035
-0.06
-0.025
-0.065
-0.115
-0.09
-0.115
-0.08
-0.1
-0.07
-0.085
-0.05
-0.06
-0.03
-0.035
-0.015
-0.025
0.0
-0.015
-0.01
-0.045
-0.05
-0.07
-0.04
-0.02
0.01
0.01
0.01
0.0
-0.02
-0.025
-0.03
-0.03
-0.03
-0.045
-0.055
-0.05
-0.055
-0.065
-0.06
-0.07
-0.08
-0.085
-0.08
-0.09
-0.085
-0.095
-0.105
-0.115
-0.115
-0.12
-0.11
-0.115
-0.12
-0.125
-0.12
-0.1
-0.05
-0.065
0.03
0.07
0.065
-0.005
-0.035
-0.125
-0.13
-0.165
-0.155
-0.17
-0.15
-0.185
-0.345
-0.245
0.525
2.12
1.545
0.325
-0.11
-0.08
-0.075
-0.13
-0.115
-0.135
-0.1
-0.1
-0.07
-0.08
-0.045
-0.045
-0.025
-0.015
0.0
0.02
0.035
0.025
0.02
0.01
0.0
-0.02
-0.02
0.0
0.035
0.05
0.03
0.015
0.01
-0.005
-0.015
-0.02
-0.015
-0.02
-0.02
-0.035
-0.04
-0.055
-0.055
-0.05
-0.06
-0.075
-0.08
-0.065
-0.075
-0.1
-0.085
-0.08
-0.11
-0.1
-0.095
-0.085
-0.09
-0.095
-0.11
-0.105
-0.035
-0.045
0.035
0.075
0.08
0.025
-0.005
-0.085
-0.125
-0.145
-0.12
-0.125
-0.14
-0.165
-0.315
-0.27
0.41
1.975
1.78
0.51
-0.075
-0.085
-0.07
-0.125
-0.12
-0.115
-0.11
-0.115
-0.115
-0.105
-0.08
-0.07
-0.065
-0.05
-0.02
-0.02
-0.02
-0.01
-0.005
-0.02
-0.035
-0.04
-0.035
0.0
0.02
0.015
0.0
-0.02
-0.035
-0.03
-0.04
-0.075
-0.075
-0.055
-0.065
-0.08
-0.075
-0.085
-0.085
-0.085
-0.11
-0.1
-0.095
-0.1
-0.11
-0.1
-0.105
-0.105
-0.105
-0.1
-0.14
-0.13
-0.11
-0.115
-0.125
-0.11
-0.05
-0.05
-0.005
0.055
0.07
0.01
-0.015
-0.085
-0.11
-0.15
-0.145
-0.155
-0.145
-0.165
-0.33
-0.295
0.37
1.995
1.9
0.505
-0.07
-0.08
-0.075
-0.12
-0.12
-0.105
-0.11
-0.105
-0.095
-0.075
-0.08
-0.06
-0.06
-0.045
-0.025
-0.01
0.0
0.0
-0.015
-0.015
-0.02
-0.035
-0.035
0.0
0.02
0.025
0.01
0.0
-0.015
-0.025
-0.04
-0.045
-0.04
-0.045
-0.045
-0.04
-0.04
-0.035
-0.05
-0.05
-0.06
-0.055
-0.065
-0.065
-0.075
-0.07
-0.08
-0.07
-0.08
-0.075
-0.085
-0.085
-0.1
-0.085
-0.1
-0.085
-0.085
-0.01
-0.03
0.05
0.08
0.105
0.03
0.005
-0.075
-0.095
-0.125
-0.115
-0.125
-0.11
-0.15
-0.315
-0.255
0.48
2.095
1.755
0.385
-0.08
-0.045
-0.06
-0.12
-0.105
-0.12
-0.105
-0.11
-0.09
-0.095
-0.065
-0.075
-0.045
-0.04
-0.02
-0.02
0.0
-0.015
-0.01
-0.035
-0.045
-0.07
-0.065
-0.045
0.0
0.01
0.01
0.0
0.0
-0.015
-0.02
-0.035
-0.03
-0.03
-0.03
-0.05
-0.05
-0.055
-0.055
-0.065
-0.06
-0.075
-0.08
-0.08
-0.085
-0.08
-0.075
-0.085
-0.085
-0.09
-0.095
-0.095
-0.1
-0.09
-0.095
-0.08
-0.065
0.0
-0.015
0.065
0.09
0.095
0.03
0.0
-0.08
-0.095
-0.125
-0.105
-0.12
-0.115
-0.16
-0.325
-0.215
0.58
2.2
1.57
0.315
-0.07
-0.045
-0.065
-0.115
-0.11
-0.11
-0.095
-0.1
-0.08
-0.085
-0.05
-0.05
-0.03
-0.045
-0.02
-0.02
-0.005
-0.015
-0.015
-0.04
-0.05
-0.065
-0.06
-0.03
0.005
0.005
0.005
0.0
-0.005
-0.01
-0.02
-0.02
-0.03
-0.04
-0.045
-0.045
-0.065
-0.05
-0.055
-0.065
-0.08
-0.07
-0.09
-0.065
-0.075
-0.08
-0.09
-0.09
-0.09
-0.09
-0.095
-0.105
-0.115
-0.115
-0.115
-0.075
-0.05
-0.04
0.02
0.065
0.07
0.015
-0.02
-0.095
-0.145
-0.145
-0.155
-0.16
-0.15
-0.16
-0.315
-0.285
0.315
1.77
1.92
0.575
-0.09
-0.08
-0.075
-0.105
-0.13
-0.13
-0.11
-0.115
-0.115
-0.1
-0.085
-0.08
-0.065
-0.035
-0.03
-0.025
-0.015
-0.01
-0.025
-0.015
-0.045
-0.035
-0.055
-0.04
-0.02
0.01
-0.005
-0.015
-0.03
-0.035
-0.03
-0.04
-0.045
-0.045
-0.065
-0.07
-0.065
-0.07
-0.065
-0.085
-0.105
-0.09
-0.09
-0.085
-0.085
-0.12
-0.095
-0.11
-0.105
-0.105
-0.11
-0.115
-0.105
-0.135
-0.09
-0.11
-0.04
-0.055
0.025
0.055
0.06
0.0
-0.005
-0.105
-0.12
-0.17
-0.125
-0.14
-0.13
-0.2
-0.355
-0.22
0.725
2.425
1.405
0.24
-0.085
-0.065
-0.065
-0.12
-0.105
-0.13
-0.1
-0.1
-0.09
-0.095
-0.07
-0.07
-0.045
-0.045
0.0
0.01
0.0
-0.025
0.0
-0.01
-0.035
-0.055
-0.04
-0.005
0.02
0.0
-0.015
-0.045
-0.02
-0.035
-0.055
-0.06
-0.06
-0.055
-0.055
-0.06
-0.07
-0.07
-0.085
-0.075
-0.08
-0.085
-0.09
-0.09
-0.1
-0.12
-0.125
-0.12
-0.115
-0.1
-0.125
-0.125
-0.125
-0.125
-0.135
-0.065
-0.05
-0.01
0.035
0.07
0.02
-0.015
-0.09
-0.12
-0.14
-0.12
-0.135
-0.14
-0.145
-0.31
-0.295
0.34
1.91
2.0
0.54
-0.065
-0.055
-0.05
-0.1
-0.105
-0.115
-0.105
-0.095
-0.08
-0.075
-0.055
-0.055
-0.04
-0.025
-0.01
0.0
0.0
-0.005
-0.01
-0.03
-0.04
-0.055
-0.04
-0.025
0.01
0.03
0.03
0.01
0.0
-0.015
-0.015
-0.02
-0.02
-0.035
-0.035
-0.045
-0.04
-0.05
-0.05
-0.065
-0.05
-0.065
-0.065
-0.075
-0.06
-0.085
-0.07
-0.095
-0.08
-0.1
-0.08
-0.105
-0.08
-0.11
-0.08
-0.09
-0.005
-0.035
0.065
0.075
0.09
-0.005
-0.01
-0.115
-0.1
-0.14
-0.105
-0.14
-0.11
-0.195
-0.315
-0.135
0.87
2.525
1.225
0.11
-0.055
-0.035
-0.07
-0.12
-0.095
-0.135
-0.09
-0.12
-0.07
-0.09
-0.05
-0.075
-0.035
-0.045
-0.005
-0.035
-0.01
-0.04
-0.025
-0.055
-0.055
-0.075
-0.05
-0.04
0.005
0.0
0.0
-0.01
-0.015
-0.03
-0.03
-0.05
-0.045
-0.04
-0.045
-0.06
-0.05
-0.05
-0.06
-0.07
-0.07
-0.07
-0.07
-0.065
-0.075
-0.075
-0.085
-0.08
-0.09
-0.075
-0.09
-0.08
-0.1
-0.09
-0.08
-0.015
-0.03
0.065
0.09
0.09
0.025
0.0
-0.095
-0.1
-0.135
-0.12
-0.14
-0.115
-0.17
-0.315
-0.19
0.625
2.255
1.455
0.245
-0.09
-0.045
-0.07
-0.115
-0.11
-0.125
-0.09
-0.11
-0.085
-0.09
-0.07
-0.065
-0.045
-0.04
-0.01
-0.02
-0.015
-0.015
-0.005
-0.025
-0.035
-0.06
-0.06
-0.015
0.025
0.015
0.015
0.005
0.0
-0.01
-0.015
-0.01
-0.03
-0.015
-0.03
-0.035
-0.05
-0.045
-0.06
-0.05
-0.055
-0.065
-0.09
-0.075
-0.11
-0.1
-0.105
-0.09
-0.105
-0.095
-0.125
-0.095
-0.115
-0.1
-0.085
-0.05
-0.045
0.035
0.065
0.05
-0.03
-0.045
-0.15
-0.13
-0.17
-0.145
-0.175
-0.125
-0.275
-0.33
0.005
1.22
2.405
0.935
-0.02
-0.12
-0.06
-0.105
-0.145
-0.11
-0.145
-0.105
-0.13
-0.105
-0.105
-0.075
-0.07
-0.055
-0.045
0.0
-0.025
-0.005
-0.02
-0.025
-0.05
-0.01
-0.06
-0.025
-0.005
0.02
0.015
0.0
-0.02
-0.03
-0.035
-0.045
-0.055
-0.06
-0.05
-0.035
-0.08
-0.08
-0.08
-0.045
-0.075
-0.065
-0.09
-0.07
-0.095
-0.09
-0.105
-0.095
-0.115
-0.1
-0.125
-0.11
-0.14
-0.105
-0.12
-0.055
-0.075
0.03
0.05
0.06
0.0
-0.01
-0.11
-0.125
-0.16
-0.13
-0.16
-0.12
-0.2
-0.34
-0.22
0.735
2.44
1.4
0.23
-0.065
-0.055
-0.075
-0.14
-0.1
-0.15
-0.105
-0.12
-0.085
-0.105
-0.07
-0.08
-0.035
-0.055
-0.02
-0.01
0.0
-0.02
0.0
-0.03
-0.025
-0.055
-0.01
0.0
0.03
0.03
0.03
0.005
0.0
-0.03
-0.03
-0.045
-0.04
-0.04
-0.04
-0.05
-0.05
-0.05
-0.065
-0.06
-0.065
-0.065
-0.075
-0.075
-0.08
-0.08
-0.095
-0.085
-0.09
-0.095
-0.1
-0.1
-0.1
-0.08
-0.055
-0.015
-0.01
0.065
0.095
0.06
0.0
-0.03
-0.11
-0.11
-0.125
-0.125
-0.135
-0.125
-0.275
-0.315
0.115
1.475
2.39
0.755
-0.07
-0.055
-0.06
-0.1
-0.12
-0.11
-0.115
-0.095
-0.105
-0.085
-0.085
-0.06
-0.06
-0.045
-0.045
-0.015
-0.02
-0.01
-0.03
-0.025
-0.055
-0.065
-0.065
-0.025
0.01
0.035
0.035
0.025
0.005
-0.005
-0.01
-0.015
-0.015
-0.035
-0.025
-0.03
-0.035
-0.045
-0.06
-0.06
-0.065
-0.06
-0.07
-0.065
-0.075
-0.065
-0.075
-0.075
-0.09
-0.08
-0.09
-0.07
-0.095
-0.08
-0.075
-0.01
-0.035
0.055
0.075
0.085
0.005
0.0
-0.105
-0.105
-0.14
-0.11
-0.14
-0.12
-0.195
-0.325
-0.155
0.805
2.47
1.25
0.135
-0.07
-0.035
-0.065
-0.12
-0.095
-0.12
-0.095
-0.11
-0.07
-0.09
-0.055
-0.07
-0.04
-0.045
-0.025
-0.02
-0.01
-0.03
-0.02
-0.045
-0.055
-0.065
-0.05
-0.02
0.02
0.025
0.015
0.005
0.0
-0.005
-0.01
-0.02
-0.025
-0.03
-0.04
-0.045
-0.04
-0.055
-0.055
-0.07
-0.06
-0.075
-0.07
-0.08
-0.08
-0.095
-0.09
-0.105
-0.095
-0.105
-0.09
-0.11
-0.08
-0.075
-0.025
-0.03
0.075
0.085
0.075
0.0
-0.015
-0.115
-0.095
-0.14
-0.115
-0.14
-0.115
-0.205
-0.3
-0.075
0.945
2.5
1.1
0.06
-0.09
-0.05
-0.08
-0.12
-0.095
-0.125
-0.095
-0.11
-0.08
-0.105
-0.06
-0.065
-0.035
-0.045
-0.01
-0.015
-0.005
-0.025
-0.015
-0.035
-0.05
-0.065
-0.025
0.0
0.02
0.015
0.005
0.0
-0.01
-0.02
-0.03
-0.04
-0.04
-0.035
-0.045
-0.06
-0.07
-0.07
-0.065
-0.085
-0.08
-0.075
-0.09
-0.075
-0.085
-0.1
-0.09
-0.1
-0.1
-0.105
-0.105
-0.11
-0.11
-0.055
-0.025
0.01
0.065
0.08
0.035
-0.005
-0.05
-0.125
-0.125
-0.15
-0.13
-0.115
-0.14
-0.29
-0.305
0.155
1.5
2.23
0.785
-0.06
-0.11
-0.065
-0.12
-0.11
-0.115
-0.125
-0.115
-0.105
-0.08
-0.075
-0.07
-0.06
-0.035
-0.03
0.0
-0.015
0.005
-0.01
0.0
-0.035
-0.03
-0.045
-0.01
0.025
0.045
0.005
-0.015
-0.015
-0.02
-0.035
-0.06
-0.03
-0.055
-0.09
-0.07
-0.06
-0.095
-0.08
-0.08
-0.09
-0.1
-0.09
-0.09
-0.11
-0.125
-0.11
-0.12
-0.115
-0.115
-0.125
-0.105
-0.105
-0.105
-0.08
-0.025
-0.03
0.04
0.085
0.04
-0.025
-0.065
-0.125
-0.13
-0.15
-0.125
-0.155
-0.145
-0.29
-0.33
0.14
1.585
2.3
0.76
-0.04
-0.09
-0.06
-0.115
-0.135
-0.11
-0.115
-0.1
-0.105
-0.09
-0.085
-0.06
-0.065
-0.04
-0.035
-0.025
-0.015
-0.015
-0.025
-0.035
-0.05
-0.05
-0.045
-0.02
0.005
0.02
0.0
-0.01
-0.02
-0.03
-0.035
-0.04
-0.045
-0.05
-0.055
-0.065
-0.065
-0.07
-0.075
-0.08
-0.095
-0.085
-0.095
-0.09
-0.095
-0.095
-0.1
-0.1
-0.11
-0.105
-0.115
-0.1
-0.11
-0.105
-0.07
-0.035
-0.035
0.05
0.075
0.045
-0.01
-0.05
-0.12
-0.125
-0.14
-0.12
-0.14
-0.125
-0.275
-0.305
0.165
1.565
2.34
0.72
-0.075
-0.04
-0.05
-0.095
-0.125
-0.115
-0.125
-0.105
-0.11
-0.085
-0.085
-0.065
-0.055
-0.04
-0.04
-0.025
-0.025
-0.015
-0.03
-0.045
-0.065
-0.07
-0.07
-0.045
-0.005
0.015
0.01
0.005
-0.02
-0.02
-0.035
-0.035
-0.035
-0.04
-0.06
-0.05
-0.06
-0.065
-0.075
-0.08
-0.09
-0.09
-0.085
-0.085
-0.085
-0.085
-0.09
-0.085
-0.09
-0.085
-0.095
-0.09
-0.1
-0.08
-0.05
-0.01
0.0
0.08
0.105
0.075
0.0
-0.03
-0.11
-0.105
-0.13
-0.1
-0.135
-0.11
-0.27
-0.285
0.135
1.415
2.37
0.76
-0.06
-0.07
-0.05
-0.09
-0.12
-0.105
-0.115
-0.085
-0.09
-0.065
-0.075
-0.055
-0.06
-0.03
-0.025
0.0
-0.02
-0.02
-0.035
-0.04
-0.065
-0.065
-0.06
-0.025
0.005
0.025
0.02
0.02
0.005
-0.005
-0.015
-0.015
-0.02
-0.02
-0.03
-0.035
-0.045
-0.055
-0.06
-0.06
-0.08
-0.07
-0.085
-0.08
-0.09
-0.075
-0.075
-0.075
-0.09
-0.08
-0.1
-0.075
-0.09
-0.075
-0.065
0.0
-0.015
0.08
0.095
0.09
0.0
-0.015
-0.105
-0.1
-0.125
-0.1
-0.12
-0.105
-0.235
-0.28
0.02
1.155
2.46
0.945
0.0
-0.085
-0.045
-0.085
-0.14
-0.095
-0.12
-0.105
-0.11
-0.08
-0.09
-0.05
-0.075
-0.035
-0.04
-0.01
-0.025
-0.01
-0.03
-0.03
-0.04
-0.04
-0.055
-0.02
0.01
0.025
0.02
0.015
0.0
0.0
-0.01
-0.025
-0.035
-0.025
-0.04
-0.04
-0.065
-0.05
-0.055
-0.08
-0.09
-0.075
-0.085
-0.095
-0.09
-0.08
-0.1
-0.075
-0.1
-0.095
-0.1
-0.08
-0.105
-0.09
-0.09
-0.025
-0.06
0.07
0.085
0.09
0.0
0.0
-0.105
-0.09
-0.135
-0.105
-0.15
-0.125
-0.205
-0.335
-0.18
0.785
2.445
1.315
0.19
-0.095
-0.06
-0.075
-0.14
-0.11
-0.13
-0.105
-0.13
-0.085
-0.1
-0.07
-0.085
-0.055
-0.055
-0.02
-0.03
-0.025
-0.035
0.0
-0.05
-0.035
-0.055
-0.015
0.0
0.035
0.02
0.015
-0.01
-0.02
-0.03
-0.035
-0.06
-0.055
-0.055
-0.06
-0.05
-0.07
-0.065
-0.07
-0.08
-0.09
-0.08
-0.075
-0.09
-0.1
-0.1
-0.11
-0.095
-0.115
-0.11
-0.11
-0.105
-0.11
-0.11
-0.075
-0.045
-0.035
0.045
0.09
0.04
-0.005
-0.045
-0.11
-0.13
-0.155
-0.13
-0.14
-0.145
-0.295
-0.325
0.175
1.61
2.27
0.725
-0.05
-0.06
-0.05
-0.095
-0.115
-0.11
-0.11
-0.1
-0.1
-0.08
-0.08
-0.06
-0.055
-0.035
-0.035
-0.025
-0.025
-0.02
-0.04
-0.045
-0.065
-0.06
-0.06
-0.02
0.01
0.025
0.015
0.005
0.0
-0.005
-0.015
-0.025
-0.035
-0.035
-0.035
-0.05
-0.05
-0.055
-0.055
-0.065
-0.06
-0.075
-0.075
-0.08
-0.07
-0.08
-0.065
-0.085
-0.07
-0.085
-0.075
-0.095
-0.075
-0.09
-0.07
-0.065
0.0
-0.02
0.08
0.085
0.085
0.01
0.0
-0.09
-0.08
-0.13
-0.09
-0.13
-0.105
-0.24
-0.31
0.0
1.175
2.535
0.93
-0.02
-0.065
-0.055
-0.095
-0.13
-0.095
-0.115
-0.08
-0.105
-0.07
-0.085
-0.055
-0.07
-0.03
-0.05
-0.02
-0.045
-0.015
-0.045
-0.04
-0.075
-0.06
-0.075
-0.035
-0.005
0.025
0.025
0.025
0.01
0.005
-0.01
-0.015
-0.025
-0.03
-0.03
-0.04
-0.05
-0.055
-0.06
-0.065
-0.08
-0.09
-0.08
-0.09
-0.08
-0.085
-0.075
-0.085
-0.085
-0.09
-0.09
-0.1
-0.085
-0.09
-0.08
-0.055
-0.02
0.0
0.075
0.095
0.05
-0.01
-0.045
-0.12
-0.115
-0.13
-0.125
-0.135
-0.125
-0.27
-0.275
0.2
1.515
2.25
0.705
-0.055
-0.06
-0.055
-0.085
-0.12
-0.11
-0.11
-0.095
-0.105
-0.08
-0.08
-0.065
-0.065
-0.045
-0.045
-0.03
-0.035
-0.035
-0.055
-0.06
-0.07
-0.07
-0.065
-0.04
-0.01
0.01
0.015
0.005
-0.005
-0.02
-0.03
-0.025
-0.04
-0.05
-0.05
-0.055
-0.07
-0.06
-0.08
-0.085
-0.09
-0.09
-0.105
-0.105
-0.105
-0.09
-0.1
-0.1
-0.1
-0.085
-0.11
-0.105
-0.105
-0.1
-0.09
-0.025
-0.035
0.045
0.075
0.08
0.0
-0.01
-0.095
-0.11
-0.14
-0.125
-0.145
-0.135
-0.19
-0.33
-0.22
0.59
2.19
1.525
0.335
-0.085
-0.065
-0.085
-0.125
-0.115
-0.14
-0.115
-0.135
-0.095
-0.115
-0.08
-0.085
-0.035
-0.045
-0.055
-0.045
-0.005
-0.005
-0.02
-0.045
-0.05
-0.06
-0.045
-0.015
0.01
0.02
0.015
-0.01
-0.02
-0.05
-0.04
-0.055
-0.045
-0.045
-0.06
-0.08
-0.085
-0.075
-0.08
-0.07
-0.09
-0.09
-0.12
-0.085
-0.085
-0.075
-0.1
-0.085
-0.1
-0.095
-0.12
-0.11
-0.13
-0.11
-0.115
-0.03
-0.07
0.03
0.045
0.05
-0.025
-0.02
-0.135
-0.14
-0.175
-0.12
-0.165
-0.15
-0.23
-0.355
-0.14
0.985
2.54
1.14
0.08
-0.09
-0.05
-0.09
-0.14
-0.115
-0.155
-0.11
-0.14
-0.085
-0.095
-0.065
-0.075
-0.045
-0.05
-0.025
-0.03
-0.005
-0.015
-0.01
-0.04
-0.055
-0.07
-0.02
-0.01
0.025
0.01
0.01
-0.02
-0.025
-0.04
-0.045
-0.055
-0.06
-0.06
-0.055
-0.065
-0.05
-0.065
-0.065
-0.08
-0.075
-0.085
-0.075
-0.09
-0.075
-0.09
-0.085
-0.09
-0.095
-0.11
-0.095
-0.125
-0.1
-0.1
-0.02
-0.04
0.015
0.055
0.1
0.025
0.0
-0.1
-0.11
-0.15
-0.125
-0.145
-0.12
-0.17
-0.32
-0.24
0.575
2.255
1.61
0.35
-0.06
-0.045
-0.065
-0.13
-0.1
-0.125
-0.095
-0.115
-0.085
-0.085
-0.065
-0.06
-0.04
-0.045
-0.015
-0.02
-0.01
-0.03
-0.025
-0.045
-0.055
-0.08
-0.045
-0.02
0.015
0.015
0.015
-0.005
-0.015
-0.03
-0.04
-0.05
-0.05
-0.045
-0.045
-0.06
-0.065
-0.065
-0.075
-0.08
-0.085
-0.085
-0.09
-0.095
-0.11
-0.095
-0.105
-0.1
-0.115
-0.1
-0.11
-0.085
-0.12
-0.1
-0.09
-0.015
-0.035
0.065
0.075
0.085
0.0
-0.01
-0.105
-0.1
-0.135
-0.105
-0.14
-0.1
-0.195
-0.31
-0.095
0.93
2.545
1.14
0.08
-0.065
-0.04
-0.07
-0.12
-0.1
-0.125
-0.095
-0.11
-0.075
-0.1
-0.065
-0.075
-0.04
-0.05
-0.025
-0.03
-0.015
-0.04
-0.04
-0.07
-0.075
-0.075
-0.05
-0.015
0.02
0.015
0.005
-0.005
-0.01
-0.02
-0.03
-0.03
-0.035
-0.035
-0.03
-0.045
-0.04
-0.055
-0.065
-0.07
-0.065
-0.075
-0.065
-0.085
-0.08
-0.09
-0.075
-0.085
-0.075
-0.09
-0.085
-0.1
-0.09
-0.07
0.0
-0.02
0.07
0.095
0.105
0.025
0.01
-0.07
-0.085
-0.12
-0.095
-0.12
-0.09
-0.145
-0.29
-0.175
0.67
2.315
1.435
0.265
-0.06
-0.015
-0.04
-0.11
-0.085
-0.105
-0.08
-0.085
-0.075
-0.085
-0.04
-0.04
-0.025
-0.025
-0.005
-0.015
0.01
0.0
0.0
-0.02
-0.015
-0.06
-0.03
0.005
0.035
0.03
0.025
0.015
-0.005
-0.025
-0.035
-0.03
-0.045
-0.045
-0.05
-0.04
-0.05
-0.065
-0.065
-0.065
-0.075
-0.08
-0.075
-0.085
-0.075
-0.085
-0.1
-0.105
-0.095
-0.105
-0.11
-0.105
-0.11
-0.1
-0.045
-0.035
0.005
0.065
0.085
0.03
0.0
-0.08
-0.125
-0.125
-0.13
-0.135
-0.125
-0.15
-0.32
-0.29
0.35
1.9
1.915
0.57
-0.07
-0.08
-0.055
-0.11
-0.125
-0.105
-0.12
-0.11
-0.09
-0.095
-0.09
-0.08
-0.055
-0.04
-0.03
-0.02
-0.025
-0.01
-0.02
-0.025
-0.05
-0.05
-0.045
0.0
0.035
0.015
0.02
-0.005
-0.02
-0.035
-0.05
-0.06
-0.04
-0.055
-0.055
-0.045
-0.065
-0.04
-0.095
-0.085
-0.09
-0.085
-0.1
-0.08
-0.1
-0.095
-0.12
-0.11
-0.115
-0.09
-0.13
-0.11
-0.13
-0.12
-0.115
-0.035
-0.065
0.005
0.035
0.065
0.0
-0.005
-0.12
-0.12
-0.16
-0.135
-0.155
-0.125
-0.19
-0.345
-0.255
0.63
2.33
1.515
0.29
-0.075
-0.065
-0.075
-0.14
-0.105
-0.135
-0.11
-0.13
-0.09
-0.11
-0.07
-0.08
-0.045
-0.05
-0.025
-0.03
-0.015
-0.04
-0.025
-0.06
-0.065
-0.08
-0.05
-0.03
0.005
0.0
0.0
-0.025
-0.025
-0.04
-0.05
-0.06
-0.055
-0.06
-0.07
-0.065
-0.075
-0.075
-0.08
-0.09
-0.1
-0.095
-0.095
-0.095
-0.11
-0.105
-0.11
-0.1
-0.11
-0.105
-0.135
-0.12
-0.13
-0.11
-0.1
-0.035
-0.055
0.04
0.06
0.06
-0.01
-0.03
-0.125
-0.11
-0.145
-0.12
-0.15
-0.12
-0.235
-0.33
-0.065
1.06
2.565
1.0
0.0
-0.07
-0.04
-0.075
-0.125
-0.095
-0.125
-0.09
-0.105
-0.07
-0.085
-0.045
-0.065
-0.035
-0.035
-0.01
-0.03
-0.005
-0.025
-0.035
-0.065
-0.065
-0.07
-0.035
0.0
0.03
0.025
0.02
0.0
-0.005
-0.015
-0.02
-0.025
-0.035
-0.04
-0.045
-0.04
-0.045
-0.065
-0.065
-0.065
-0.08
-0.085
-0.085
-0.085
-0.105
-0.1
-0.105
-0.09
-0.09
-0.1
-0.1
-0.1
-0.1
-0.09
-0.04
-0.03
0.015
0.07
0.085
0.025
-0.015
-0.075
-0.115
-0.125
-0.135
-0.135
-0.135
-0.14
-0.305
-0.255
0.355
1.825
1.915
0.505
-0.09
-0.06
-0.06
-0.11
-0.115
-0.115
-0.115
-0.105
-0.105
-0.095
-0.08
-0.06
-0.045
-0.035
-0.02
-0.005
-0.005
-0.005
-0.025
-0.035
-0.06
-0.07
-0.065
-0.015
0.01
0.025
0.005
0.0
-0.015
-0.02
-0.025
-0.03
-0.03
-0.04
-0.05
-0.055
-0.065
-0.06
-0.075
-0.075
-0.09
-0.07
-0.105
-0.08
-0.09
-0.09
-0.11
-0.095
-0.105
-0.085
-0.1
-0.09
-0.115
-0.085
-0.075
-0.025
-0.035
0.07
0.075
0.075
0.0
-0.015
-0.13
-0.11
-0.15
-0.11
-0.155
-0.12
-0.23
-0.32
-0.055
1.025
2.425
1.05
0.04
-0.105
-0.045
-0.08
-0.15
-0.1
-0.13
-0.095
-0.12
-0.085
-0.09
-0.045
-0.07
-0.04
-0.055
-0.005
-0.015
-0.005
-0.01
-0.01
-0.045
-0.035
-0.04
-0.015
0.01
0.035
0.01
0.015
-0.005
0.0
-0.03
-0.035
-0.035
-0.045
-0.065
-0.055
-0.035
-0.07
-0.08
-0.07
-0.095
-0.085
-0.085
-0.095
-0.125
-0.09
-0.105
-0.09
-0.105
-0.075
-0.125
-0.09
-0.105
-0.11
-0.11
-0.04
-0.065
0.015
0.055
0.065
0.0
-0.015
-0.11
-0.1
-0.165
-0.145
-0.145
-0.135
-0.175
-0.335
-0.275
0.515
2.15
1.66
0.41
-0.075
-0.075
-0.065
-0.13
-0.12
-0.13
-0.095
-0.115
-0.085
-0.1
-0.08
-0.07
-0.03
-0.055
-0.025
-0.005
0.0
-0.015
-0.01
-0.035
-0.035
-0.03
-0.035
-0.015
0.025
-0.005
-0.005
-0.04
-0.035
-0.045
-0.065
-0.075
-0.07
-0.085
-0.08
-0.09
-0.085
-0.085
-0.08
-0.09
-0.1
-0.1
-0.105
-0.1
-0.12
-0.125
-0.115
-0.105
-0.115
-0.105
-0.12
-0.095
-0.13
-0.12
-0.11
-0.045
-0.055
0.02
0.05
0.075
-0.005
0.0
-0.105
-0.1
-0.145
-0.115
-0.145
-0.125
-0.195
-0.34
-0.195
0.75
2.465
1.335
0.185
-0.085
-0.06
-0.075
-0.13
-0.105
-0.135
-0.1
-0.105
-0.085
-0.09
-0.07
-0.075
-0.045
-0.045
-0.015
-0.02
-0.01
-0.03
-0.03
-0.055
-0.055
-0.065
-0.035
-0.005
0.03
0.02
0.01
0.0
-0.005
-0.015
-0.02
-0.03
-0.04
-0.035
-0.04
-0.04
-0.055
-0.055
-0.075
-0.065
-0.08
-0.085
-0.1
-0.085
-0.095
-0.085
-0.11
-0.085
-0.105
-0.085
-0.11
-0.095
-0.12
-0.09
-0.1
-0.015
-0.055
0.05
0.07
0.08
-0.005
-0.005
-0.115
-0.1
-0.145
-0.115
-0.15
-0.11
-0.205
-0.33
-0.145
0.86
2.515
1.19
0.1
-0.065
-0.05
-0.07
-0.13
-0.1
-0.135
-0.095
-0.125
-0.075
-0.1
-0.065
-0.08
-0.045
-0.06
-0.02
-0.045
-0.025
-0.05
-0.04
-0.085
-0.085
-0.1
-0.07
-0.045
-0.005
-0.005
0.0
-0.02
-0.02
-0.04
-0.04
-0.045
-0.035
-0.055
-0.065
-0.065
-0.055
-0.07
-0.075
-0.075
-0.085
-0.085
-0.09
-0.09
-0.1
-0.095
-0.1
-0.085
-0.105
-0.095
-0.105
-0.09
-0.11
-0.09
-0.085
-0.015
-0.04
0.055
0.07
0.075
-0.01
-0.02
-0.115
-0.115
-0.145
-0.125
-0.155
-0.13
-0.215
-0.325
-0.125
0.86
2.465
1.165
0.095
-0.09
-0.05
-0.08
-0.135
-0.11
-0.13
-0.105
-0.12
-0.08
-0.09
-0.065
-0.06
-0.04
-0.045
-0.015
-0.03
-0.015
-0.045
-0.035
-0.07
-0.065
-0.07
-0.045
-0.005
0.005
0.0
0.0
-0.03
-0.025
-0.035
-0.04
-0.04
-0.04
-0.04
-0.05
-0.05
-0.065
-0.06
-0.095
-0.065
-0.075
-0.075
-0.095
-0.085
-0.09
-0.075
-0.09
-0.085
-0.115
-0.09
-0.115
-0.095
-0.105
-0.08
-0.08
-0.02
-0.04
0.075
0.085
0.075
-0.02
-0.025
-0.12
-0.115
-0.155
-0.11
-0.17
-0.125
-0.245
-0.31
-0.06
1.03
2.44
1.07
0.045
-0.11
-0.065
-0.08
-0.13
-0.12
-0.14
-0.09
-0.11
-0.085
-0.105
-0.06
-0.075
-0.03
-0.045
-0.01
-0.035
0.0
-0.03
-0.01
-0.04
-0.025
-0.055
0.0
0.015
0.02
0.0
0.005
0.0
-0.005
-0.03
-0.03
-0.04
-0.03
-0.05
-0.03
-0.065
-0.055
-0.065
-0.07
-0.065
-0.065
-0.075
-0.1
-0.065
-0.085
-0.09
-0.09
-0.105
-0.115
-0.09
-0.115
-0.09
-0.115
-0.13
-0.125
-0.05
-0.06
0.005
0.045
0.045
-0.015
-0.025
-0.12
-0.125
-0.165
-0.14
-0.175
-0.14
-0.205
-0.36
-0.225
0.72
2.43
1.385
0.225
-0.095
-0.06
-0.08
-0.135
-0.115
-0.145
-0.12
-0.145
-0.11
-0.11
-0.085
-0.095
-0.065
-0.055
-0.02
-0.04
-0.015
-0.015
-0.015
-0.055
-0.05
-0.06
-0.03
0.0
0.015
0.0
0.0
-0.005
-0.025
-0.035
-0.04
-0.06
-0.055
-0.045
-0.055
-0.06
-0.08
-0.055
-0.08
-0.075
-0.075
-0.09
-0.095
-0.085
-0.105
-0.12
-0.115
-0.115
-0.11
-0.125
-0.12
-0.115
-0.125
-0.115
-0.11
-0.07
-0.035
-0.03
0.035
0.065
0.035
-0.01
-0.06
-0.13
-0.135
-0.14
-0.13
-0.135
-0.145
-0.295
-0.32
0.175
1.625
2.24
0.69
-0.06
-0.06
-0.05
-0.09
-0.11
-0.11
-0.105
-0.095
-0.095
-0.08
-0.07
-0.06
-0.05
-0.03
-0.02
-0.01
-0.005
0.0
-0.005
-0.015
-0.035
-0.04
-0.03
0.0
0.04
0.045
0.04
0.02
0.01
-0.005
-0.005
-0.02
-0.02
-0.03
-0.025
-0.035
-0.03
-0.04
-0.04
-0.05
-0.04
-0.06
-0.05
-0.065
-0.045
-0.065
-0.06
-0.075
-0.06
-0.085
-0.065
-0.08
-0.05
-0.085
-0.065
-0.065
0.015
-0.02
0.07
0.085
0.11
0.005
0.005
-0.09
-0.09
-0.135
-0.1
-0.14
-0.1
-0.185
-0.315
-0.175
0.775
2.45
1.33
0.185
-0.05
-0.035
-0.07
-0.13
-0.095
-0.125
-0.095
-0.115
-0.07
-0.09
-0.05
-0.065
-0.025
-0.055
-0.015
-0.035
-0.01
-0.035
-0.035
-0.065
-0.06
-0.08
-0.045
-0.015
0.02
0.015
0.025
0.005
0.0
-0.025
-0.02
-0.03
-0.025
-0.035
-0.03
-0.045
-0.035
-0.045
-0.04
-0.055
-0.06
-0.065
-0.06
-0.065
-0.065
-0.065
-0.075
-0.075
-0.08
-0.085
-0.08
-0.085
-0.095
-0.08
-0.065
0.0
-0.02
0.05
0.09
0.12
0.045
0.005
-0.065
-0.095
-0.12
-0.12
-0.115
-0.105
-0.14
-0.3
-0.23
0.485
2.045
1.705
0.41
-0.075
-0.05
-0.07
-0.11
-0.105
-0.115
-0.1
-0.1
-0.085
-0.07
-0.06
-0.05
-0.04
-0.035
-0.005
-0.015
0.0
0.0
-0.01
-0.035
-0.045
-0.05
-0.04
-0.005
0.025
0.045
0.015
0.0
-0.005
0.0
-0.005
-0.01
-0.015
-0.03
-0.035
-0.015
-0.025
-0.06
-0.06
-0.075
-0.085
-0.075
-0.09
-0.09
-0.105
-0.08
-0.1
-0.085
-0.105
-0.11
-0.11
-0.1
-0.12
-0.1
-0.1
-0.035
-0.065
0.03
0.06
0.075
0.005
-0.02
-0.08
-0.115
-0.145
-0.14
-0.14
-0.125
-0.165
-0.31
-0.27
0.43
1.975
1.765
0.49
-0.08
-0.085
-0.08
-0.12
-0.125
-0.135
-0.115
-0.13
-0.095
-0.105
-0.09
-0.085
-0.045
-0.06
-0.035
-0.03
-0.02
-0.015
-0.02
-0.035
-0.04
-0.07
-0.04
-0.02
0.005
0.0
0.0
-0.02
-0.035
-0.035
-0.06
-0.065
-0.065
-0.065
-0.075
-0.07
-0.07
-0.09
-0.07
-0.11
-0.095
-0.11
-0.095
-0.11
-0.11
-0.13
-0.11
-0.125
-0.12
-0.12
-0.12
-0.15
-0.115
-0.13
-0.12
-0.115
-0.06
-0.05
0.025
0.055
0.0
-0.035
-0.08
-0.145
-0.15
-0.18
-0.155
-0.175
-0.15
-0.305
-0.35
0.09
1.515
2.34
0.785
-0.055
-0.09
-0.085
-0.115
-0.14
-0.12
-0.14
-0.11
-0.12
-0.095
-0.095
-0.075
-0.075
-0.03
-0.035
-0.015
-0.015
-0.005
-0.02
-0.025
-0.035
-0.03
-0.04
0.0
0.015
0.025
0.015
0.005
-0.005
-0.02
-0.03
-0.04
-0.05
-0.045
-0.045
-0.065
-0.065
-0.07
-0.085
-0.08
-0.085
-0.09
-0.09
-0.1
-0.1
-0.115
-0.09
-0.105
-0.105
-0.12
-0.105
-0.115
-0.11
-0.115
-0.1
-0.095
-0.03
-0.05
0.05
0.075
0.065
-0.01
-0.01
-0.12
-0.11
-0.145
-0.12
-0.15
-0.12
-0.225
-0.34
-0.05
1.125
2.595
0.995
0.0
-0.05
-0.04
-0.07
-0.115
-0.09
-0.12
-0.085
-0.11
-0.07
-0.075
-0.05
-0.065
-0.03
-0.04
-0.01
-0.03
0.0
-0.02
-0.025
-0.06
-0.06
-0.075
-0.035
0.0
0.03
0.02
0.01
-0.01
-0.015
-0.02
-0.03
-0.035
-0.035
-0.03
-0.045
-0.045
-0.05
-0.045
-0.07
-0.065
-0.06
-0.065
-0.075
-0.08
-0.085
-0.075
-0.09
-0.08
-0.09
-0.085
-0.095
-0.09
-0.105
-0.095
-0.085
-0.02
-0.045
0.04
0.08
0.095
0.005
0.0
-0.1
-0.105
-0.13
-0.12
-0.145
-0.12
-0.16
-0.31
-0.225
0.54
2.16
1.62
0.345
-0.075
-0.035
-0.05
-0.105
-0.095
-0.115
-0.095
-0.105
-0.075
-0.075
-0.05
-0.05
-0.02
-0.025
0.0
-0.005
0.0
-0.01
-0.015
-0.04
-0.045
-0.06
-0.05
-0.01
0.03
0.025
0.04
0.01
0.005
-0.01
-0.015
-0.025
-0.015
-0.025
-0.025
-0.045
-0.04
-0.05
-0.05
-0.055
-0.06
-0.075
-0.06
-0.065
-0.06
-0.075
-0.07
-0.075
-0.07
-0.09
-0.075
-0.09
-0.08
-0.11
-0.09
-0.045
-0.005
0.015
0.085
0.1
0.05
-0.005
-0.035
-0.12
-0.1
-0.135
-0.11
-0.125
-0.115
-0.27
-0.275
0.165
1.435
2.26
0.775
-0.05
-0.06
-0.05
-0.085
-0.11
-0.095
-0.11
-0.085
-0.1
-0.07
-0.08
-0.045
-0.055
-0.035
-0.04
-0.015
-0.01
-0.005
-0.02
-0.035
-0.05
-0.04
-0.045
0.0
0.0
0.015
0.01
0.005
-0.015
-0.01
-0.035
-0.035
-0.015
-0.03
-0.045
-0.05
-0.05
-0.07
-0.075
-0.06
-0.06
-0.085
-0.08
-0.095
-0.07
-0.085
-0.095
-0.1
-0.085
-0.105
-0.09
-0.115
-0.1
-0.115
-0.075
-0.075
-0.03
-0.04
0.075
0.09
0.08
0.0
-0.005
-0.1
-0.09
-0.125
-0.115
-0.145
-0.115
-0.22
-0.31
-0.06
1.065
2.53
1.095
0.065
-0.1
-0.065
-0.085
-0.145
-0.115
-0.16
-0.095
-0.13
-0.11
-0.095
-0.055
-0.08
-0.055
-0.075
-0.025
-0.03
-0.005
-0.02
-0.04
-0.055
-0.075
-0.065
-0.01
-0.005
0.015
0.01
-0.04
-0.05
-0.055
-0.055
-0.08
-0.07
-0.04
-0.115
-0.085
-0.07
-0.09
-0.09
-0.105
-0.09
-0.095
-0.1
-0.13
-0.11
-0.12
-0.11
-0.13
-0.11
-0.145
-0.105
-0.13
-0.125
-0.135
-0.105
-0.15
-0.065
-0.065
0.025
0.045
0.04
-0.03
-0.035
-0.13
-0.135
-0.155
-0.14
-0.17
-0.125
-0.245
-0.345
-0.08
1.12
2.56
1.045
0.025
-0.08
-0.045
-0.065
-0.09
-0.08
-0.095
-0.055
-0.085
-0.05
-0.05
-0.045
-0.045
-0.005
0.0
0.0
0.0
0.01
0.0
-0.005
-0.025
-0.04
-0.065
-0.025
0.0
0.02
0.015
0.0
-0.015
-0.015
-0.035
-0.025
-0.025
-0.04
-0.055
-0.035
-0.055
-0.06
-0.08
-0.05
-0.07
-0.055
-0.08
-0.06
-0.085
-0.07
-0.095
-0.075
-0.11
-0.075
-0.105
-0.09
-0.11
-0.095
-0.08
-0.01
-0.025
0.07
0.08
0.075
-0.01
-0.03
-0.115
-0.105
-0.13
-0.1
-0.115
-0.1
-0.22
-0.265
0.095
1.255
2.53
1.01
0.015
-0.07
-0.015
-0.055
-0.105
-0.08
-0.1
-0.075
-0.085
-0.05
-0.07
-0.045
-0.08
-0.045
-0.045
-0.005
-0.025
0.0
-0.02
-0.02
-0.05
-0.055
-0.075
-0.035
-0.01
0.02
0.005
0.0
-0.025
-0.03
-0.035
-0.03
-0.035
-0.035
-0.05
-0.05
-0.055
-0.07
-0.06
-0.065
-0.065
-0.065
-0.07
-0.065
-0.08
-0.075
-0.06
-0.075
-0.08
-0.09
-0.08
-0.095
-0.095
-0.085
-0.025
-0.03
0.045
0.085
0.095
0.035
0.0
-0.095
-0.1
-0.13
-0.125
-0.125
-0.11
-0.14
-0.305
-0.23
0.53
2.1
1.72
0.415
-0.075
-0.06
-0.055
-0.105
-0.105
-0.125
-0.115
-0.12
-0.095
-0.105
-0.085
-0.075
-0.045
-0.05
-0.035
-0.025
-0.025
0.0
-0.005
-0.03
-0.055
-0.065
-0.055
-0.035
0.01
0.01
0.0
-0.025
-0.04
-0.035
-0.035
-0.03
-0.055
-0.055
-0.06
-0.04
-0.055
-0.065
-0.035
-0.075
-0.065
-0.085
-0.07
-0.085
-0.075
-0.09
-0.09
-0.1
-0.105
-0.11
-0.095
-0.115
-0.09
-0.085
-0.025
-0.055
0.04
0.075
0.08
0.005
-0.01
-0.11
-0.12
-0.13
-0.11
-0.155
-0.125
-0.19
-0.34
-0.23
0.715
2.405
1.475
0.245
-0.085
-0.075
-0.065
-0.13
-0.1
-0.115
-0.085
-0.12
-0.08
-0.115
-0.08
-0.07
-0.035
-0.05
-0.02
-0.015
0.0
0.015
-0.005
-0.03
-0.02
-0.05
-0.045
-0.015
0.005
-0.01
-0.02
-0.025
-0.055
-0.075
-0.055
-0.07
-0.085
-0.08
-0.07
-0.07
-0.065
-0.095
-0.09
-0.09
-0.09
-0.115
-0.1
-0.11
-0.115
-0.12
-0.105
-0.13
-0.11
-0.13
-0.105
-0.13
-0.115
-0.125
-0.035
-0.055
0.015
0.035
0.075
0.0
-0.005
-0.105
-0.1
-0.155
-0.13
-0.15
-0.13
-0.185
-0.34
-0.215
0.715
2.45
1.49
0.235
-0.075
-0.045
-0.05
-0.115
-0.09
-0.125
-0.09
-0.105
-0.07
-0.08
-0.05
-0.065
-0.03
-0.03
-0.005
-0.01
0.005
-0.005
-0.01
-0.04
-0.045
-0.06
-0.03
-0.01
0.02
0.015
0.015
-0.005
-0.01
-0.025
-0.03
-0.04
-0.03
-0.04
-0.045
-0.04
-0.04
-0.05
-0.055
-0.055
-0.07
-0.08
-0.09
-0.085
-0.095
-0.09
-0.1
-0.085
-0.105
-0.1
-0.105
-0.085
-0.1
-0.085
-0.06
-0.02
-0.02
0.065
0.085
0.06
0.0
-0.035
-0.105
-0.105
-0.13
-0.11
-0.13
-0.105
-0.26
-0.29
0.14
1.51
2.415
0.76
-0.055
-0.035
-0.035
-0.08
-0.105
-0.09
-0.11
-0.085
-0.085
-0.07
-0.08
-0.05
-0.045
-0.02
-0.02
-0.015
-0.02
0.005
-0.025
-0.04
-0.06
-0.065
-0.075
-0.04
-0.01
0.01
0.015
0.005
-0.005
-0.005
-0.015
-0.02
-0.015
-0.02
-0.025
-0.035
-0.04
-0.04
-0.055
-0.05
-0.065
-0.045
-0.07
-0.055
-0.07
-0.075
-0.085
-0.075
-0.07
-0.07
-0.09
-0.075
-0.095
-0.07
-0.08
0.0
-0.02
0.075
0.095
0.105
0.01
0.0
-0.095
-0.095
-0.135
-0.095
-0.14
-0.11
-0.19
-0.31
-0.13
0.85
2.46
1.24
0.12
-0.095
-0.055
-0.07
-0.14
-0.095
-0.135
-0.105
-0.115
-0.075
-0.08
-0.055
-0.065
-0.02
-0.03
-0.015
-0.02
0.005
-0.02
-0.02
-0.035
-0.04
-0.035
-0.02
0.0
0.02
0.025
0.01
0.0
-0.02
-0.025
-0.02
-0.025
-0.03
-0.04
-0.035
-0.04
-0.045
-0.06
-0.055
-0.045
-0.075
-0.07
-0.085
-0.08
-0.08
-0.065
-0.085
-0.105
-0.1
-0.105
-0.115
-0.105
-0.11
-0.125
-0.125
-0.03
-0.06
0.03
0.035
0.09
0.0
0.0
-0.09
-0.1
-0.135
-0.12
-0.14
-0.125
-0.17
-0.335
-0.235
0.625
2.335
1.555
0.31
-0.07
-0.065
-0.085
-0.125
-0.11
-0.135
-0.1
-0.135
-0.105
-0.12
-0.07
-0.09
-0.045
-0.07
-0.02
-0.035
-0.025
-0.025
-0.01
-0.05
-0.045
-0.06
-0.025
0.015
0.02
0.02
0.005
0.0
-0.025
-0.035
-0.045
-0.06
-0.055
-0.075
-0.055
-0.055
-0.085
-0.085
-0.09
-0.095
-0.09
-0.105
-0.115
-0.1
-0.12
-0.12
-0.105
-0.095
-0.105
-0.115
-0.11
-0.11
-0.12
-0.105
-0.08
-0.02
-0.04
0.03
0.075
0.04
0.0
-0.03
-0.115
-0.125
-0.145
-0.135
-0.15
-0.14
-0.28
-0.305
0.155
1.585
2.365
0.725
-0.065
-0.06
-0.05
-0.105
-0.125
-0.11
-0.125
-0.105
-0.11
-0.09
-0.085
-0.06
-0.055
-0.035
-0.04
-0.015
-0.025
-0.015
-0.03
-0.035
-0.05
-0.055
-0.035
0.005
0.035
0.045
0.035
0.025
0.0
-0.02
-0.01
-0.025
-0.02
-0.03
-0.03
-0.04
-0.035
-0.045
-0.055
-0.065
-0.055
-0.07
-0.075
-0.085
-0.075
-0.085
-0.085
-0.105
-0.085
-0.1
-0.09
-0.12
-0.095
-0.12
-0.1
-0.085
-0.01
-0.04
0.06
0.09
0.075
-0.005
-0.015
-0.12
-0.105
-0.14
-0.125
-0.15
-0.12
-0.25
-0.305
0.045
1.315
2.57
0.885
-0.05
-0.045
-0.055
-0.08
-0.13
-0.11
-0.12
-0.085
-0.11
-0.09
-0.1
-0.055
-0.065
-0.04
-0.055
-0.025
-0.035
-0.015
-0.05
-0.05
-0.08
-0.055
-0.065
-0.03
0.005
0.04
0.025
0.02
0.0
-0.005
-0.015
-0.02
-0.035
-0.035
-0.04
-0.04
-0.04
-0.05
-0.065
-0.07
-0.07
-0.08
-0.085
-0.09
-0.085
-0.095
-0.08
-0.095
-0.09
-0.095
-0.095
-0.12
-0.095
-0.115
-0.095
-0.085
-0.005
-0.03
0.07
0.08
0.085
0.0
0.0
-0.105
-0.09
-0.125
-0.1
-0.135
-0.11
-0.22
-0.29
0.005
1.15
2.555
0.975
0.01
-0.055
-0.02
-0.06
-0.11
-0.075
-0.1
-0.075
-0.095
-0.07
-0.08
-0.04
-0.055
-0.01
-0.04
-0.015
-0.025
-0.005
-0.03
-0.01
-0.04
-0.04
-0.03
0.015
0.05
0.045
0.025
0.02
0.01
0.0
-0.025
-0.025
-0.025
-0.055
-0.065
-0.06
-0.07
-0.07
-0.085
-0.095
-0.085
-0.105
-0.085
-0.09
-0.105
-0.125
-0.09
-0.11
-0.09
-0.095
-0.1
-0.12
-0.115
-0.13
-0.11
-0.08
-0.015
-0.03
0.06
0.065
0.055
-0.015
-0.025
-0.13
-0.125
-0.135
-0.13
-0.135
-0.13
-0.275
-0.295
0.075
1.41
2.45
0.885
-0.005
-0.065
-0.035
-0.075
-0.135
-0.1
-0.125
-0.12
-0.115
-0.075
-0.11
-0.07
-0.085
-0.05
-0.03
-0.03
-0.04
-0.025
-0.03
-0.03
-0.025
-0.015
-0.01
0.005
0.055
0.08
0.035
0.01
-0.02
-0.02
-0.055
-0.045
-0.075
-0.055
-0.065
-0.09
-0.095
-0.09
-0.095
-0.09
-0.095
-0.09
-0.11
-0.09
-0.105
-0.105
-0.13
-0.1
-0.11
-0.105
-0.115
-0.11
-0.13
-0.115
-0.115
-0.07
-0.05
-0.015
0.015
0.09
0.035
0.0
-0.085
-0.105
-0.135
-0.13
-0.14
-0.12
-0.165
-0.31
-0.265
0.48
2.145
1.825
0.455
-0.06
-0.035
-0.05
-0.12
-0.11
-0.115
-0.1
-0.105
-0.075
-0.08
-0.06
-0.06
-0.035
-0.04
-0.025
-0.03
-0.01
-0.02
-0.02
-0.05
-0.04
-0.04
-0.005
0.025
0.055
0.04
0.035
0.0
-0.01
-0.035
-0.045
-0.05
-0.055
-0.055
-0.065
-0.07
-0.065
-0.08
-0.09
-0.08
-0.08
-0.08
-0.095
-0.095
-0.1
-0.09
-0.105
-0.095
-0.11
-0.1
-0.105
-0.09
-0.105
-0.09
-0.095
-0.02
-0.03
0.01
0.06
0.11
0.035
0.01
-0.065
-0.095
-0.125
-0.11
-0.14
-0.125
-0.17
-0.33
-0.22
0.585
2.28
1.59
0.295
-0.085
-0.045
-0.07
-0.13
-0.11
-0.125
-0.11
-0.125
-0.1
-0.11
-0.08
-0.075
-0.05
-0.055
-0.03
-0.04
-0.03
-0.04
-0.04
-0.06
-0.06
-0.06
-0.025
0.01
0.045
0.035
0.03
0.01
-0.005
-0.025
-0.035
-0.035
-0.035
-0.05
-0.06
-0.06
-0.07
-0.07
-0.085
-0.08
-0.085
-0.085
-0.1
-0.09
-0.1
-0.085
-0.09
-0.085
-0.09
-0.075
-0.095
-0.07
-0.1
-0.07
-0.055
0.0
-0.01
0.09
0.115
0.095
0.01
-0.02
-0.1
-0.095
-0.13
-0.105
-0.145
-0.105
-0.25
-0.285
0.11
1.39
2.45
0.805
-0.05
-0.05
-0.04
-0.08
-0.12
-0.095
-0.115
-0.09
-0.105
-0.08
-0.09
-0.05
-0.065
-0.035
-0.035
-0.005
-0.02
-0.01
-0.03
-0.02
-0.04
-0.03
-0.02
0.015
0.035
0.06
0.045
0.045
0.01
0.0
-0.01
-0.01
-0.025
-0.035
-0.04
-0.045
-0.055
-0.055
-0.07
-0.08
-0.085
-0.06
-0.085
-0.09
-0.095
-0.095
-0.1
-0.085
-0.105
-0.085
-0.11
-0.1
-0.12
-0.1
-0.105
-0.02
-0.05
0.02
0.06
0.08
0.03
-0.005
-0.105
-0.11
-0.14
-0.12
-0.15
-0.125
-0.175
-0.305
-0.21
0.59
2.2
1.555
0.345
-0.09
-0.06
-0.075
-0.125
-0.105
-0.135
-0.1
-0.125
-0.105
-0.1
-0.07
-0.08
-0.06
-0.05
-0.025
-0.05
-0.02
-0.035
-0.015
-0.035
-0.035
-0.03
0.01
0.01
0.04
0.05
0.015
0.0
-0.025
-0.04
-0.025
-0.055
-0.055
-0.07
-0.075
-0.075
-0.085
-0.08
-0.09
-0.095
-0.09
-0.095
-0.12
-0.105
-0.115
-0.095
-0.12
-0.12
-0.13
-0.115
-0.11
-0.095
-0.13
-0.105
-0.125
-0.035
-0.045
0.04
0.075
0.065
-0.01
-0.04
-0.125
-0.11
-0.14
-0.135
-0.165
-0.145
-0.275
-0.33
-0.02
1.225
2.56
0.965
-0.015
-0.09
-0.055
-0.105
-0.15
-0.125
-0.14
-0.115
-0.125
-0.095
-0.13
-0.08
-0.065
-0.05
-0.065
-0.025
-0.045
-0.025
-0.035
-0.04
-0.04
-0.04
-0.055
0.01
0.045
0.04
0.035
0.02
-0.03
-0.045
-0.05
-0.055
-0.065
-0.07
-0.09
-0.08
-0.095
-0.09
-0.1
-0.095
-0.095
-0.1
-0.11
-0.09
-0.11
-0.12
-0.145
-0.11
-0.13
-0.11
-0.13
-0.12
-0.145
-0.105
-0.12
-0.035
-0.07
0.015
0.035
0.06
-0.02
-0.025
-0.135
-0.13
-0.175
-0.14
-0.17
-0.135
-0.24
-0.35
-0.11
1.025
2.635
1.05
0.03
-0.06
-0.045
-0.08
-0.135
-0.1
-0.14
-0.11
-0.13
-0.09
-0.1
-0.06
-0.08
-0.045
-0.07
-0.035
-0.045
-0.015
-0.035
-0.025
-0.06
-0.04
-0.04
0.01
0.03
0.06
0.045
0.03
0.0
-0.005
-0.02
-0.03
-0.035
-0.035
-0.045
-0.045
-0.045
-0.055
-0.05
-0.065
-0.07
-0.08
-0.075
-0.08
-0.075
-0.09
-0.08
-0.09
-0.075
-0.1
-0.09
-0.105
-0.085
-0.1
-0.085
-0.07
-0.01
-0.01
0.075
0.1
0.08
0.015
-0.015
-0.09
-0.09
-0.13
-0.1
-0.125
-0.105
-0.245
-0.27
0.13
1.465
2.465
0.785
-0.065
-0.045
-0.045
-0.08
-0.12
-0.095
-0.115
-0.085
-0.1
-0.07
-0.085
-0.05
-0.065
-0.035
-0.03
-0.015
-0.02
-0.02
-0.035
-0.025
-0.045
-0.055
-0.04
0.0
0.025
0.06
0.04
0.04
0.005
0.0
-0.01
-0.025
-0.03
-0.025
-0.03
-0.035
-0.045
-0.05
-0.055
-0.065
-0.07
-0.07
-0.075
-0.065
-0.085
-0.08
-0.095
-0.075
-0.09
-0.075
-0.09
-0.075
-0.1
-0.08
-0.095
-0.01
-0.02
0.055
0.07
0.105
0.03
0.01
-0.085
-0.1
-0.13
-0.105
-0.13
-0.11
-0.16
-0.32
-0.205
0.635
2.265
1.48
0.295
-0.065
-0.04
-0.07
-0.12
-0.11
-0.135
-0.1
-0.11
-0.09
-0.105
-0.075
-0.08
-0.05
-0.06
-0.035
-0.035
-0.02
-0.035
-0.03
-0.05
-0.04
-0.05
-0.015
0.01
0.035
0.035
0.025
0.0
0.0
-0.03
-0.02
-0.045
-0.045
-0.045
-0.06
-0.07
-0.08
-0.07
-0.075
-0.075
-0.09
-0.085
-0.1
-0.1
-0.115
-0.095
-0.095
-0.095
-0.115
-0.095
-0.12
-0.095
-0.12
-0.105
-0.115
-0.04
-0.055
0.04
0.035
0.09
-0.01
-0.015
-0.12
-0.115
-0.145
-0.14
-0.17
-0.125
-0.22
-0.34
-0.135
0.925
2.54
1.205
0.14
-0.08
-0.06
-0.075
-0.125
-0.12
-0.135
-0.1
-0.125
-0.12
-0.13
-0.065
-0.1
-0.045
-0.075
-0.02
-0.05
-0.025
-0.035
-0.045
-0.05
-0.02
-0.015
0.01
0.025
0.04
0.04
0.015
-0.005
-0.015
-0.02
-0.03
-0.065
-0.055
-0.055
-0.065
-0.06
-0.06
-0.07
-0.08
-0.085
-0.065
-0.08
-0.095
-0.105
-0.085
-0.105
-0.1
-0.115
-0.095
-0.13
-0.11
-0.125
-0.105
-0.125
-0.035
-0.07
-0.005
0.03
0.07
0.0
-0.01
-0.115
-0.11
-0.155
-0.135
-0.165
-0.135
-0.19
-0.34
-0.215
0.695
2.43
1.46
0.26
-0.065
-0.045
-0.065
-0.135
-0.11
-0.14
-0.1
-0.11
-0.08
-0.105
-0.075
-0.08
-0.05
-0.05
-0.025
-0.035
-0.025
-0.04
-0.03
-0.055
-0.05
-0.05
-0.01
0.015
0.045
0.04
0.035
0.005
-0.01
-0.025
-0.035
-0.045
-0.045
-0.05
-0.055
-0.065
-0.07
-0.065
-0.065
-0.07
-0.085
-0.08
-0.08
-0.08
-0.09
-0.09
-0.095
-0.095
-0.105
-0.105
-0.105
-0.1
-0.11
-0.095
-0.095
-0.035
-0.035
0.005
0.065
0.105
0.03
0.0
-0.065
-0.095
-0.13
-0.13
-0.14
-0.115
-0.145
-0.3
-0.23
0.47
2.09
1.855
0.455
-0.065
-0.015
-0.045
-0.1
-0.09
-0.1
-0.09
-0.1
-0.07
-0.075
-0.055
-0.055
-0.045
-0.045
-0.025
-0.025
-0.015
-0.03
-0.045
-0.05
-0.055
-0.065
-0.03
0.005
0.035
0.045
0.025
0.01
0.0
-0.01
-0.02
-0.02
-0.03
-0.035
-0.045
-0.05
-0.06
-0.06
-0.07
-0.075
-0.08
-0.07
-0.09
-0.09
-0.1
-0.09
-0.1
-0.085
-0.115
-0.105
-0.11
-0.095
-0.115
-0.095
-0.1
-0.02
-0.04
0.055
0.07
0.085
-0.01
-0.015
-0.115
-0.11
-0.16
-0.12
-0.15
-0.115
-0.215
-0.325
-0.12
0.9
2.495
1.115
0.06
-0.08
-0.05
-0.08
-0.135
-0.1
-0.135
-0.095
-0.11
-0.08
-0.1
-0.055
-0.065
-0.04
-0.04
-0.005
-0.02
0.0
-0.02
-0.015
-0.04
-0.03
-0.025
0.015
0.03
0.045
0.05
0.04
0.005
-0.015
-0.025
-0.035
-0.055
-0.06
-0.06
-0.05
-0.05
-0.075
-0.09
-0.07
-0.085
-0.09
-0.09
-0.1
-0.11
-0.1
-0.105
-0.115
-0.12
-0.1
-0.115
-0.09
-0.1
-0.105
-0.12
-0.07
-0.055
-0.005
0.045
0.075
0.025
0.0
-0.075
-0.13
-0.14
-0.14
-0.145
-0.135
-0.155
-0.32
-0.28
0.345
1.855
1.925
0.61
-0.06
-0.075
-0.06
-0.125
-0.12
-0.125
-0.125
-0.135
-0.115
-0.115
-0.085
-0.105
-0.085
-0.07
-0.045
-0.04
-0.03
-0.04
-0.055
-0.035
-0.035
-0.025
-0.015
0.015
0.03
0.03
0.005
-0.015
-0.02
-0.04
-0.05
-0.055
-0.07
-0.07
-0.08
-0.085
-0.095
-0.095
-0.08
-0.095
-0.11
-0.11
-0.11
-0.09
-0.12
-0.095
-0.11
-0.115
-0.13
-0.105
-0.135
-0.11
-0.12
-0.12
-0.115
-0.03
-0.07
0.03
0.055
0.05
-0.02
-0.035
-0.125
-0.115
-0.16
-0.13
-0.145
-0.125
-0.25
-0.335
-0.005
1.255
2.56
0.965
0.005
-0.07
-0.07
-0.095
-0.135
-0.115
-0.13
-0.105
-0.12
-0.08
-0.105
-0.07
-0.075
-0.04
-0.035
-0.015
-0.02
-0.005
-0.025
-0.015
-0.045
-0.025
-0.03
0.01
0.04
0.065
0.03
0.015
-0.005
-0.005
-0.03
-0.035
-0.05
-0.055
-0.055
-0.06
-0.055
-0.07
-0.07
-0.07
-0.075
-0.08
-0.08
-0.09
-0.08
-0.095
-0.075
-0.095
-0.08
-0.095
-0.08
-0.095
-0.07
-0.095
-0.08
-0.075
0.015
-0.02
0.075
0.105
0.105
0.015
0.0
-0.1
-0.08
-0.12
-0.085
-0.13
-0.105
-0.215
-0.305
-0.02
1.17
2.63
0.98
0.0
-0.045
-0.04
-0.075
-0.125
-0.09
-0.12
-0.09
-0.1
-0.07
-0.095
-0.055
-0.075
-0.04
-0.045
-0.01
-0.01
0.0
-0.025
-0.02
-0.04
-0.03
-0.04
0.0
0.035
0.06
0.04
0.04
0.01
0.0
-0.01
-0.02
-0.035
-0.05
-0.055
-0.065
-0.065
-0.07
-0.065
-0.07
-0.075
-0.075
-0.08
-0.09
-0.075
-0.085
-0.08
-0.1
-0.09
-0.1
-0.095
-0.105
-0.095
-0.11
-0.085
-0.1
-0.02
-0.04
0.045
0.07
0.1
0.025
0.0
-0.09
-0.09
-0.12
-0.095
-0.125
-0.115
-0.16
-0.305
-0.195
0.635
2.27
1.5
0.285
-0.065
-0.03
-0.045
-0.11
-0.105
-0.12
-0.095
-0.11
-0.085
-0.1
-0.06
-0.06
-0.03
-0.035
-0.025
-0.03
-0.01
-0.025
-0.02
-0.045
-0.03
-0.045
-0.005
0.01
0.045
0.05
0.035
0.01
0.005
-0.005
-0.02
-0.025
-0.02
-0.035
-0.035
-0.03
-0.05
-0.05
-0.055
-0.045
-0.065
-0.065
-0.07
-0.075
-0.09
-0.075
-0.09
-0.09
-0.095
-0.075
-0.105
-0.08
-0.105
-0.075
-0.075
-0.02
-0.04
0.05
0.065
0.09
0.0
-0.005
-0.095
-0.1
-0.155
-0.13
-0.145
-0.115
-0.185
-0.315
-0.185
0.735
2.355
1.39
0.27
-0.08
-0.045
-0.055
-0.115
-0.1
-0.12
-0.105
-0.12
-0.075
-0.085
-0.07
-0.08
-0.03
-0.025
-0.01
-0.02
0.01
-0.005
-0.015
-0.035
-0.02
-0.015
0.005
0.035
0.045
0.04
0.03
-0.015
-0.01
-0.025
-0.04
-0.05
-0.05
-0.05
-0.07
-0.08
-0.065
-0.09
-0.085
-0.08
-0.1
-0.09
-0.11
-0.105
-0.095
-0.105
-0.115
-0.095
-0.12
-0.125
-0.13
-0.105
-0.125
-0.11
-0.1
-0.01
-0.065
0.025
0.045
0.085
0.015
-0.02
-0.125
-0.115
-0.165
-0.11
-0.155
-0.135
-0.215
-0.345
-0.14
0.985
2.58
1.18
0.145
-0.07
-0.06
-0.085
-0.14
-0.11
-0.14
-0.1
-0.135
-0.09
-0.11
-0.055
-0.085
-0.06
-0.05
-0.01
-0.045
-0.01
-0.04
-0.04
-0.045
-0.025
-0.05
-0.015
0.005
0.03
0.02
0.0
-0.03
-0.03
-0.05
-0.065
-0.06
-0.06
-0.065
-0.065
-0.07
-0.075
-0.08
-0.085
-0.085
-0.1
-0.105
-0.11
-0.1
-0.11
-0.11
-0.125
-0.11
-0.125
-0.115
-0.13
-0.12
-0.135
-0.115
-0.12
-0.05
-0.055
-0.005
0.035
0.075
0.0
-0.02
-0.095
-0.12
-0.15
-0.125
-0.145
-0.125
-0.17
-0.32
-0.24
0.53
2.21
1.655
0.36
-0.075
-0.05
-0.06
-0.115
-0.105
-0.125
-0.1
-0.11
-0.085
-0.09
-0.07
-0.08
-0.05
-0.055
-0.025
-0.03
-0.01
-0.025
-0.035
-0.05
-0.05
-0.05
-0.02
0.015
0.04
0.035
0.025
0.0
0.0
-0.015
-0.025
-0.035
-0.05
-0.055
-0.06
-0.07
-0.08
-0.075
-0.07
-0.08
-0.075
-0.095
-0.09
-0.105
-0.09
-0.095
-0.085
-0.1
-0.085
-0.1
-0.08
-0.1
-0.08
-0.095
-0.08
-0.08
-0.01
-0.025
0.06
0.075
0.07
-0.01
-0.02
-0.125
-0.115
-0.15
-0.12
-0.155
-0.12
-0.24
-0.295
0.005
1.195
2.53
0.915
-0.025
-0.08
-0.065
-0.09
-0.135
-0.11
-0.135
-0.11
-0.125
-0.095
-0.105
-0.075
-0.08
-0.045
-0.055
-0.03
-0.045
-0.02
-0.035
-0.04
-0.065
-0.055
-0.05
0.0
0.02
0.055
0.025
0.015
-0.005
0.0
-0.015
-0.025
-0.035
-0.03
-0.04
-0.05
-0.055
-0.05
-0.065
-0.075
-0.08
-0.095
-0.085
-0.085
-0.07
-0.09
-0.09
-0.085
-0.09
-0.09
-0.08
-0.09
-0.075
-0.095
-0.08
-0.085
-0.02
-0.03
0.05
0.095
0.11
0.025
0.005
-0.075
-0.09
-0.11
-0.105
-0.125
-0.115
-0.145
-0.295
-0.21
0.52
2.095
1.685
0.435
-0.07
-0.04
-0.05
-0.115
-0.105
-0.12
-0.095
-0.11
-0.09
-0.09
-0.065
-0.06
-0.04
-0.045
-0.04
-0.025
-0.005
-0.035
-0.025
-0.025
-0.035
-0.05
-0.03
0.0
0.04
0.04
0.015
0.005
-0.01
-0.02
-0.025
-0.04
-0.04
-0.05
-0.05
-0.05
-0.065
-0.065
-0.06
-0.06
-0.09
-0.07
-0.08
-0.085
-0.08
-0.08
-0.09
-0.095
-0.085
-0.085
-0.075
-0.105
-0.105
-0.1
-0.08
-0.085
-0.04
-0.03
-0.005
0.06
0.115
0.045
0.0
-0.065
-0.115
-0.13
-0.115
-0.12
-0.13
-0.145
-0.3
-0.27
0.34
1.86
1.985
0.66
-0.04
-0.07
-0.05
-0.105
-0.115
-0.11
-0.105
-0.115
-0.105
-0.1
-0.1
-0.07
-0.06
-0.04
-0.04
-0.03
-0.02
-0.01
-0.025
-0.035
-0.03
-0.04
0.0
0.01
0.035
0.035
0.01
0.0
-0.015
-0.035
-0.035
-0.04
-0.045
-0.04
-0.05
-0.065
-0.075
-0.075
-0.075
-0.085
-0.105
-0.105
-0.08
-0.095
-0.09
-0.105
-0.1
-0.1
-0.1
-0.115
-0.11
-0.115
-0.1
-0.115
-0.1
-0.105
-0.025
-0.065
0.03
0.065
0.075
-0.01
-0.01
-0.115
-0.115
-0.165
-0.12
-0.16
-0.13
-0.22
-0.33
-0.12
1.015
2.595
1.135
0.095
-0.07
-0.045
-0.085
-0.135
-0.12
-0.155
-0.115
-0.125
-0.09
-0.105
-0.075
-0.085
-0.045
-0.055
-0.025
-0.05
-0.03
-0.04
-0.035
-0.055
-0.05
-0.045
-0.01
0.005
0.035
0.015
0.01
-0.02
-0.015
-0.03
-0.035
-0.045
-0.045
-0.05
-0.05
-0.05
-0.055
-0.055
-0.055
-0.065
-0.075
-0.08
-0.07
-0.07
-0.075
-0.085
-0.075
-0.085
-0.085
-0.1
-0.08
-0.095
-0.085
-0.105
-0.09
-0.09
-0.01
-0.035
0.04
0.065
0.095
0.025
0.01
-0.08
-0.09
-0.125
-0.105
-0.125
-0.11
-0.165
-0.31
-0.195
0.645
2.335
1.515
0.29
-0.06
-0.03
-0.055
-0.115
-0.105
-0.12
-0.09
-0.095
-0.075
-0.09
-0.06
-0.065
-0.035
-0.035
-0.005
-0.015
0.0
-0.01
-0.015
-0.045
-0.045
-0.05
-0.02
0.01
0.04
0.035
0.03
0.02
0.005
-0.01
-0.015
-0.025
-0.02
-0.02
-0.025
-0.035
-0.04
-0.045
-0.05
-0.06
-0.065
-0.065
-0.065
-0.07
-0.065
-0.065
-0.07
-0.08
-0.07
-0.08
-0.075
-0.085
-0.085
-0.095
-0.09
-0.085
-0.015
-0.02
0.045
0.08
0.1
0.025
0.005
-0.085
-0.105
-0.125
-0.125
-0.14
-0.125
-0.17
-0.315
-0.225
0.51
2.085
1.625
0.38
-0.08
-0.05
-0.065
-0.125
-0.11
-0.125
-0.105
-0.115
-0.1
-0.1
-0.085
-0.085
-0.065
-0.055
-0.04
-0.045
-0.025
-0.04
-0.035
-0.065
-0.075
-0.075
-0.05
-0.015
0.01
0.02
0.01
0.0
-0.015
-0.03
-0.04
-0.035
-0.035
-0.045
-0.06
-0.06
-0.07
-0.065
-0.07
-0.08
-0.08
-0.09
-0.08
-0.095
-0.09
-0.1
-0.085
-0.095
-0.09
-0.115
-0.09
-0.11
-0.095
-0.115
-0.105
-0.105
-0.02
-0.04
0.045
0.065
0.075
0.015
-0.025
-0.105
-0.12
-0.155
-0.13
-0.145
-0.12
-0.16
-0.325
-0.22
0.595
2.205
1.51
0.345
-0.085
-0.065
-0.06
-0.135
-0.12
-0.14
-0.11
-0.125
-0.095
-0.1
-0.07
-0.08
-0.045
-0.045
-0.02
-0.025
0.0
-0.025
-0.02
-0.025
-0.03
-0.035
-0.005
0.01
0.025
0.01
0.0
0.0
-0.005
-0.025
-0.035
-0.06
-0.05
-0.035
-0.05
-0.07
-0.08
-0.09
-0.07
-0.065
-0.085
-0.085
-0.09
-0.07
-0.09
-0.11
-0.095
-0.11
-0.1
-0.125
-0.11
-0.11
-0.1
-0.115
-0.115
-0.115
-0.045
-0.045
0.035
0.05
0.065
0.005
-0.01
-0.1
-0.1
-0.15
-0.125
-0.165
-0.135
-0.185
-0.32
-0.235
0.605
2.28
1.575
0.415
-0.045
-0.05
-0.075
-0.115
-0.105
-0.13
-0.095
-0.115
-0.085
-0.105
-0.075
-0.08
-0.065
-0.055
-0.04
-0.035
-0.015
-0.025
-0.025
-0.035
-0.04
-0.035
-0.025
0.005
0.045
0.03
0.01
-0.01
-0.015
-0.045
-0.05
-0.055
-0.055
-0.05
-0.055
-0.065
-0.075
-0.09
-0.08
-0.085
-0.095
-0.095
-0.1
-0.105
-0.115
-0.115
-0.105
-0.12
-0.1
-0.115
-0.115
-0.12
-0.11
-0.125
-0.11
-0.12
-0.055
-0.04
0.0
0.04
0.085
0.02
-0.01
-0.08
-0.115
-0.145
-0.125
-0.15
-0.14
-0.165
-0.315
-0.265
0.465
2.105
1.77
0.46
-0.07
-0.045
-0.06
-0.11
-0.105
-0.12
-0.105
-0.11
-0.09
-0.095
-0.07
-0.07
-0.045
-0.05
-0.035
-0.02
0.0
-0.015
-0.02
-0.045
-0.05
-0.055
-0.03
0.0
0.03
0.035
0.025
0.0
-0.01
-0.02
-0.03
-0.035
-0.04
-0.045
-0.055
-0.06
-0.07
-0.065
-0.075
-0.08
-0.085
-0.08
-0.09
-0.085
-0.1
-0.095
-0.1
-0.085
-0.1
-0.085
-0.1
-0.09
-0.105
-0.09
-0.11
-0.085
-0.09
-0.005
-0.04
0.055
0.07
0.11
0.01
-0.005
-0.105
-0.1
-0.15
-0.12
-0.15
-0.125
-0.18
-0.325
-0.18
0.725
2.4
1.37
0.22
-0.06
-0.035
-0.065
-0.125
-0.095
-0.12
-0.085
-0.115
-0.08
-0.095
-0.06
-0.07
-0.03
-0.045
-0.015
-0.03
-0.01
-0.035
-0.02
-0.05
-0.055
-0.07
-0.03
0.0
0.035
0.03
0.02
0.005
0.0
-0.01
-0.015
-0.025
-0.025
-0.03
-0.035
-0.035
-0.035
-0.04
-0.04
-0.045
-0.055
-0.06
-0.055
-0.065
-0.065
-0.06
-0.065
-0.075
-0.075
-0.075
-0.075
-0.085
-0.085
-0.085
-0.08
-0.09
-0.075
-0.02
-0.005
0.035
0.075
0.095
0.035
0.0
-0.06
-0.1
-0.12
-0.125
-0.135
-0.135
-0.135
-0.295
-0.255
0.33
1.77
1.96
0.59
-0.075
-0.07
-0.06
-0.11
-0.12
-0.115
-0.11
-0.105
-0.105
-0.09
-0.08
-0.07
-0.06
-0.05
-0.03
-0.025
-0.015
-0.005
-0.02
-0.04
-0.055
-0.04
-0.02
0.01
0.03
0.04
0.02
0.015
0.0
-0.005
-0.03
-0.025
-0.03
-0.04
-0.05
-0.055
-0.05
-0.06
-0.075
-0.07
-0.08
-0.09
-0.075
-0.085
-0.07
-0.09
-0.095
-0.115
-0.075
-0.105
-0.085
-0.095
-0.085
-0.11
-0.1
-0.11
-0.085
-0.08
-0.02
-0.025
0.06
0.09
0.075
-0.005
-0.02
-0.12
-0.11
-0.155
-0.125
-0.13
-0.1
-0.225
-0.315
-0.04
1.12
2.505
1.085
0.085
-0.07
-0.045
-0.085
-0.135
-0.1
-0.125
-0.105
-0.115
-0.08
-0.1
-0.06
-0.07
-0.05
-0.05
-0.02
-0.015
-0.005
-0.02
-0.005
-0.045
-0.025
-0.035
-0.01
0.01
0.045
0.03
0.01
-0.015
-0.01
-0.025
-0.04
-0.045
-0.03
-0.05
-0.05
-0.05
-0.065
-0.07
-0.075
-0.085
-0.095
-0.1
-0.095
-0.095
-0.115
-0.08
-0.11
-0.115
-0.125
-0.105
-0.135
-0.11
-0.115
-0.11
-0.115
-0.085
-0.1
-0.025
-0.055
0.035
0.045
0.07
-0.02
-0.02
-0.115
-0.115
-0.145
-0.12
-0.15
-0.115
-0.205
-0.32
-0.115
1.01
2.58
1.15
0.11
-0.065
-0.045
-0.07
-0.135
-0.105
-0.135
-0.09
-0.115
-0.095
-0.1
-0.07
-0.07
-0.035
-0.04
-0.01
-0.02
0.0
-0.02
-0.01
-0.035
-0.03
-0.045
-0.015
0.005
0.03
0.03
0.02
-0.005
-0.015
-0.035
-0.03
-0.04
-0.045
-0.055
-0.055
-0.055
-0.06
-0.07
-0.06
-0.07
-0.075
-0.08
-0.07
-0.075
-0.08
-0.09
-0.09
-0.095
-0.095
-0.095
-0.095
-0.1
-0.105
-0.11
-0.11
-0.095
-0.095
-0.05
-0.03
0.0
0.06
0.095
0.04
-0.01
-0.06
-0.12
-0.12
-0.13
-0.12
-0.125
-0.135
-0.295
-0.285
0.275
1.745
2.145
0.61
-0.075
-0.045
-0.065
-0.11
-0.125
-0.12
-0.115
-0.095
-0.095
-0.08
-0.08
-0.065
-0.06
-0.04
-0.025
-0.02
-0.02
-0.02
-0.035
-0.04
-0.055
-0.065
-0.06
-0.025
0.01
0.03
0.02
0.005
0.0
0.0
-0.01
-0.02
-0.025
-0.03
-0.035
-0.04
-0.05
-0.05
-0.05
-0.05
-0.06
-0.07
-0.075
-0.075
-0.07
-0.085
-0.08
-0.095
-0.09
-0.1
-0.09
-0.11
-0.095
-0.11
-0.095
-0.1
-0.075
-0.06
-0.02
-0.01
0.075
0.105
0.075
0.0
-0.02
-0.11
-0.1
-0.135
-0.11
-0.135
-0.11
-0.26
-0.295
0.09
1.375
2.37
0.8
-0.035
-0.05
-0.04
-0.085
-0.12
-0.095
-0.11
-0.095
-0.105
-0.08
-0.08
-0.035
-0.045
-0.02
-0.02
0.0
0.0
0.01
-0.005
-0.01
-0.035
-0.03
-0.04
0.005
0.02
0.04
0.035
0.015
0.0
0.0
-0.005
-0.005
-0.015
-0.02
-0.03
-0.055
-0.055
-0.06
-0.065
-0.04
-0.055
-0.065
-0.065
-0.06
-0.08
-0.065
-0.085
-0.08
-0.09
-0.075
-0.09
-0.085
-0.11
-0.09
-0.1
-0.07
-0.065
-0.005
-0.035
0.065
0.09
0.105
0.025
-0.005
-0.08
-0.1
-0.125
-0.1
-0.13
-0.095
-0.14
-0.285
-0.19
0.67
2.29
1.49
0.335
-0.065
-0.06
-0.055
-0.105
-0.095
-0.13
-0.09
-0.105
-0.075
-0.095
-0.065
-0.06
-0.035
-0.045
-0.01
-0.01
0.01
-0.005
0.0
-0.025
-0.005
-0.02
0.005
0.025
0.035
0.03
0.02
-0.01
-0.025
-0.045
-0.04
-0.065
-0.06
-0.06
-0.06
-0.075
-0.075
-0.075
-0.085
-0.08
-0.085
-0.09
-0.1
-0.1
-0.105
-0.09
-0.1
-0.095
-0.11
-0.105
-0.115
-0.11
-0.12
-0.105
-0.115
-0.09
-0.075
-0.02
-0.03
0.07
0.09
0.075
0.0
-0.02
-0.095
-0.095
-0.125
-0.11
-0.135
-0.11
-0.25
-0.305
0.045
1.31
2.5
0.915
-0.01
-0.055
-0.04
-0.08
-0.125
-0.105
-0.12
-0.095
-0.11
-0.075
-0.08
-0.06
-0.07
-0.035
-0.035
-0.02
-0.03
-0.015
-0.035
-0.03
-0.06
-0.055
-0.06
-0.015
0.005
0.03
0.02
0.01
0.0
-0.005
-0.01
-0.015
-0.015
-0.02
-0.015
-0.02
-0.035
-0.045
-0.035
-0.05
-0.045
-0.05
-0.05
-0.06
-0.065
-0.07
-0.07
-0.08
-0.075
-0.085
-0.095
-0.1
-0.095
-0.1
-0.09
-0.105
-0.09
-0.04
-0.015
0.0
0.085
0.105
0.06
0.0
-0.035
-0.105
-0.105
-0.125
-0.105
-0.135
-0.12
-0.27
-0.265
0.2
1.55
2.28
0.725
-0.05
-0.04
-0.05
-0.095
-0.115
-0.09
-0.105
-0.085
-0.085
-0.06
-0.07
-0.055
-0.05
-0.03
-0.02
0.0
0.005
0.01
0.005
0.01
-0.005
0.0
0.005
0.04
0.06
0.085
0.095
0.09
0.07
0.07
0.055
0.05
0.03
0.035
0.03
0.005
-0.005
-0.035
-0.06
-0.06
-0.085
-0.085
-0.085
-0.1
-0.1
-0.105
-0.125
-0.12
-0.125
-0.115
-0.13
-0.09
-0.115
-0.105
-0.115
-0.095
-0.1
-0.025
-0.06
0.06
0.085
0.075
-0.01
-0.005
-0.125
-0.12
-0.16
-0.12
-0.17
-0.135
-0.18
-0.325
-0.205
0.685
2.305
1.41
0.285
-0.105
-0.075
-0.075
-0.125
-0.13
-0.15
-0.11
-0.11
-0.105
-0.105
-0.08
-0.085
-0.055
-0.07
-0.035
-0.04
-0.02
-0.07
-0.06
-0.08
-0.1
-0.11
-0.075
-0.055
-0.045
-0.04
0.0
-0.03
-0.025
-0.055
-0.065
-0.055
-0.085
-0.145
-0.145
-0.145
-0.17
-0.175
-0.155
-0.145
-0.145
-0.15
-0.135
-0.13
-0.135
-0.135
-0.105
-0.115
-0.085
-0.085
-0.09
-0.095
-0.07
-0.08
-0.07
-0.07
-0.025
-0.045
0.015
0.08
0.11
0.065
0.025
-0.05
-0.075
-0.1
-0.1
-0.13
-0.11
-0.145
-0.325
-0.285
0.425
2.065
1.795
0.485
-0.09
-0.105
-0.095
-0.16
-0.155
-0.155
-0.12
-0.135
-0.125
-0.13
-0.11
-0.115
-0.1
-0.11
-0.055
-0.05
-0.02
-0.025
-0.035
-0.07
-0.085
-0.11
-0.085
-0.065
-0.035
-0.035
-0.045
-0.055
-0.07
-0.075
-0.08
-0.075
-0.075
-0.06
-0.06
-0.065
-0.055
-0.045
-0.06
-0.055
-0.045
-0.05
-0.04
-0.045
-0.055
-0.045
-0.06
-0.05
-0.065
-0.06
-0.075
-0.085
-0.095
-0.085
-0.085
-0.07
-0.045
-0.005
-0.01
0.08
0.105
0.075
0.01
-0.025
-0.1
-0.105
-0.13
-0.11
-0.135
-0.125
-0.26
-0.295
0.125
1.505
2.45
0.835
-0.01
-0.015
-0.025
-0.07
-0.1
-0.09
-0.11
-0.075
-0.09
-0.075
-0.075
-0.06
-0.065
-0.045
-0.05
-0.015
-0.005
0.005
-0.01
0.0
-0.02
-0.03
-0.035
0.0
0.02
0.035
0.005
-0.01
-0.01
-0.03
-0.04
-0.045
-0.055
-0.045
-0.06
-0.065
-0.075
-0.075
-0.09
-0.1
-0.11
-0.1
-0.1
-0.095
-0.105
-0.1
-0.105
-0.095
-0.115
-0.1
-0.125
-0.11
-0.125
-0.1
-0.125
-0.1
-0.1
-0.03
-0.065
0.03
0.05
0.06
-0.025
-0.03
-0.14
-0.12
-0.175
-0.14
-0.18
-0.135
-0.21
-0.33
-0.15
0.84
2.51
1.22
0.12
-0.075
-0.05
-0.075
-0.14
-0.12
-0.145
-0.11
-0.125
-0.085
-0.095
-0.06
-0.06
-0.015
-0.02
0.03
0.055
0.035
-0.005
-0.01
-0.045
-0.035
-0.045
-0.02
0.0
0.03
0.03
0.02
0.0
-0.015
-0.03
-0.035
-0.035
-0.03
-0.045
-0.045
-0.08
-0.045
-0.055
-0.06
-0.055
-0.065
-0.065
-0.055
-0.07
-0.075
-0.08
-0.05
-0.085
-0.055
-0.075
-0.075
-0.08
-0.075
-0.07
-0.04
-0.035
0.02
0.0
0.09
0.14
0.125
0.015
0.0
-0.065
-0.035
-0.08
-0.06
-0.08
-0.065
-0.16
-0.295
-0.125
0.835
2.45
1.32
0.23
-0.045
0.005
-0.005
-0.055
-0.07
-0.07
-0.06
-0.1
0.0
-0.015
-0.005
-0.065
0.0
-0.025
0.0
-0.025
0.02
0.02
0.0
-0.04
0.005
-0.01
-0.01
0.0
0.025
0.015
-0.005
-0.03
-0.03
-0.065
-0.065
-0.06
-0.075
-0.07
-0.08
-0.085
-0.085
-0.08
-0.1
-0.12
-0.12
-0.115
-0.14
-0.155
-0.13
-0.13
-0.145
-0.13
-0.12
-0.15
-0.125
-0.14
-0.135
-0.135
-0.11
-0.07
-0.06
-0.035
0.06
0.11
0.02
0.0
0.035
-0.075
-0.085
-0.11
-0.1
-0.115
-0.14
-0.265
-0.3
0.245
1.67
2.175
0.74
-0.08
-0.14
-0.085
-0.14
-0.135
-0.15
-0.135
-0.13
-0.13
-0.095
-0.11
-0.1
-0.065
-0.085
-0.045
-0.01
-0.03
-0.025
-0.015
-0.015
-0.025
-0.045
-0.025
0.0
-0.025
0.015
0.005
-0.03
-0.035
-0.055
-0.08
-0.05
-0.095
-0.09
-0.065
-0.09
-0.08
-0.08
-0.08
-0.08
-0.075
-0.1
-0.1
-0.1
-0.105
-0.11
-0.1
-0.105
-0.11
-0.105
-0.12
-0.115
-0.13
-0.115
-0.11
-0.095
-0.05
-0.045
0.045
0.085
0.035
-0.045
-0.06
-0.125
-0.115
-0.155
-0.135
-0.13
-0.16
-0.305
-0.3
0.205
1.71
2.29
0.72
-0.055
-0.075
-0.07
-0.105
-0.12
-0.13
-0.12
-0.095
-0.11
-0.09
-0.09
-0.075
-0.065
-0.03
-0.035
-0.025
-0.02
-0.01
-0.01
-0.015
-0.03
-0.045
-0.025
0.0
0.03
0.05
0.04
0.0
-0.025
-0.02
-0.03
-0.03
-0.04
-0.04
-0.05
-0.035
-0.055
-0.04
-0.065
-0.045
-0.065
-0.055
-0.07
-0.065
-0.09
-0.09
-0.1
-0.08
-0.1
-0.1
-0.12
-0.1
-0.12
-0.085
-0.085
-0.005
-0.02
0.07
0.08
0.095
0.005
-0.005
-0.1
-0.095
-0.13
-0.095
-0.14
-0.11
-0.225
-0.305
-0.02
1.19
2.685
1.02
0.0
-0.035
-0.045
-0.075
-0.12
-0.095
-0.125
-0.09
-0.105
-0.075
-0.09
-0.05
-0.07
-0.02
-0.03
0.0
-0.02
0.0
-0.015
-0.025
-0.06
-0.06
-0.075
-0.035
-0.015
0.025
0.02
0.015
-0.015
-0.015
-0.03
-0.03
-0.035
-0.03
-0.04
-0.04
-0.04
-0.035
-0.04
-0.045
-0.055
-0.055
-0.065
-0.06
-0.075
-0.065
-0.08
-0.075
-0.09
-0.08
-0.09
-0.08
-0.09
-0.07
-0.085
-0.005
-0.035
0.07
0.08
0.11
-0.01
0.005
-0.115
-0.085
-0.13
-0.105
-0.125
-0.09
-0.19
-0.325
-0.21
0.835
2.52
1.15
0.06
-0.11
-0.055
-0.06
-0.115
-0.05
-0.21
-0.12
-0.135
-0.07
-0.07
-0.115
-0.025
-0.08
-0.08
0.04
-0.315
-0.105
0.12
0.12
0.195
-0.01
-0.02
0.03
0.06
0.095
0.18
0.025
-0.045
0.055
0.085
0.005
-0.025
0.045
0.01
0.02
-0.005
0.055
0.005
0.03
0.035
0.035
0.015
0.035
0.04
0.0
-0.07
0.015
-0.035
0.005
0.03
0.035
-0.005
0.035
0.06
-0.03
-0.02
0.18
0.24
0.24
0.15
0.13
0.045
0.045
0.015
0.045
-0.005
0.01
-0.155
-0.3
0.135
1.325
2.625
1.06
0.07
0.085
0.015
-0.05
-0.045
-0.045
0.015
0.0
-0.06
-0.05
-0.15
0.015
0.01
0.05
0.025
0.055
0.025
0.025
0.025
0.045
0.0
0.005
0.02
0.045
0.05
0.08
0.06
0.055
0.03
0.025
0.0
-0.005
-0.02
-0.025
-0.025
-0.02
-0.01
0.0
-0.02
-0.04
-0.045
-0.05
-0.065
-0.085
-0.06
-0.075
-0.08
-0.09
-0.09
-0.105
-0.09
-0.095
-0.11
-0.085
-0.02
-0.025
0.025
0.1
0.16
0.115
0.07
-0.01
-0.035
-0.055
-0.035
-0.055
-0.03
-0.06
-0.22
-0.185
0.49
2.1
1.975
0.64
0.02
0.03
0.0
-0.05
-0.06
-0.06
-0.075
-0.07
-0.04
-0.045
-0.035
-0.025
-0.03
-0.005
0.0
-0.01
0.0
0.0
0.0
-0.01
0.0
-0.005
0.005
0.03
0.055
0.06
0.07
0.055
0.045
0.05
0.03
0.02
0.0
0.0
-0.005
0.015
0.035
0.03
0.025
0.03
0.015
0.015
0.02
0.025
0.025
0.03
0.02
0.0
-0.005
-0.005
-0.02
-0.02
-0.005
0.015
0.035
0.055
0.11
0.15
0.105
0.045
-0.01
-0.065
-0.08
-0.095
-0.125
-0.095
-0.095
-0.245
-0.31
0.185
1.69
2.09
0.665
-0.075
-0.095
-0.09
-0.125
-0.15
-0.155
-0.125
-0.15
-0.16
-0.17
-0.16
-0.13
-0.125
-0.095
-0.09
-0.07
-0.055
-0.045
-0.035
-0.03
-0.06
-0.055
-0.035
-0.005
0.035
0.025
0.01
-0.005
-0.03
-0.04
-0.03
-0.07
-0.06
-0.065
-0.065
-0.07
-0.09
-0.065
-0.085
-0.09
-0.075
-0.095
-0.11
-0.11
-0.115
-0.12
-0.125
-0.105
-0.11
-0.13
-0.11
-0.13
-0.135
-0.075
-0.06
-0.05
0.055
0.085
0.035
-0.005
-0.085
-0.115
-0.16
-0.155
-0.17
-0.175
-0.17
-0.31
-0.335
0.29
1.91
1.985
0.575
-0.08
-0.06
-0.075
-0.11
-0.105
-0.12
-0.1
-0.105
-0.105
-0.05
-0.07
-0.065
-0.045
-0.035
-0.03
-0.02
0.005
-0.025
0.0
0.005
-0.02
-0.015
0.005
0.03
0.06
0.05
0.05
0.015
-0.025
-0.005
-0.025
-0.02
-0.04
-0.055
-0.045
-0.07
-0.075
-0.075
-0.07
-0.11
-0.135
-0.11
-0.13
-0.13
-0.125
-0.11
-0.11
-0.125
-0.12
-0.11
-0.11
-0.095
-0.09
-0.035
-0.045
0.04
0.045
0.05
-0.005
-0.065
-0.125
-0.14
-0.15
-0.145
-0.175
-0.155
-0.315
-0.345
0.16
1.635
2.17
0.625
-0.12
-0.13
-0.09
-0.155
-0.13
-0.165
-0.22
-0.15
-0.155
-0.145
-0.16
-0.11
-0.125
-0.085
-0.095
-0.065
-0.06
-0.105
-0.12
-0.11
-0.135
-0.095
-0.095
-0.045
0.005
0.01
0.005
-0.015
-0.05
-0.025
-0.03
-0.045
-0.045
-0.025
-0.055
-0.05
-0.05
-0.04
-0.03
-0.045
-0.05
-0.075
-0.06
-0.075
-0.055
-0.07
-0.055
-0.075
-0.04
-0.055
-0.04
-0.05
0.025
0.0
0.105
0.11
0.115
0.06
0.045
-0.005
-0.02
-0.025
-0.02
-0.03
-0.025
-0.145
-0.255
0.095
1.285
2.69
1.065
0.055
0.005
0.11
0.005
-0.035
0.0
0.02
-0.025
0.0
-0.035
-0.03
-0.095
0.05
-0.025
0.105
0.0
0.0
-0.065
0.02
-0.015
0.065
-0.01
0.05
0.07
0.24
0.145
-3.16
-2.205
-1.145
-0.83
-0.415
-0.26
-0.075
0.035
0.29
-0.12
-0.16
-0.17
-0.04
-0.035
0.05
0.02
0.025
-0.09
-0.05
-0.165
-0.07
-0.095
-0.065
-0.125
-0.09
-0.12
-0.035
-0.06
0.055
0.085
0.08
0.0
-0.015
-0.145
-0.135
-0.19
-0.13
-0.155
-0.135
-0.245
-0.325
0.0
1.17
2.55
1.035
-0.02
-0.12
-0.07
-0.095
-0.155
-0.08
-0.1
-0.085
-0.1
-0.065
-0.075
-0.065
-0.06
-0.025
-0.03
0.005
-0.01
0.005
0.0
0.0
-0.04
-0.035
-0.035
0.015
0.035
0.07
0.055
0.12
0.025
0.05
0.02
0.045
0.035
0.01
0.065
0.055
-0.04
-0.02
-0.05
-0.02
-0.03
-0.04
0.015
-0.04
-0.06
-0.095
-0.095
-0.1
-0.11
-0.11
-0.095
-0.04
-0.065
0.005
0.035
0.06
0.01
0.01
-0.08
-0.155
-0.15
-0.11
-0.17
-0.085
-0.18
-0.34
-0.255
0.485
2.035
1.76
0.41
-0.14
-0.155
-0.07
-0.12
-0.13
-0.15
-0.145
-0.115
-0.13
-0.135
-0.095
-0.075
-0.06
-0.05
-0.055
-0.03
-0.005
0.0
0.03
0.015
-0.03
-0.02
-0.005
0.01
0.005
0.005
-0.035
-0.095
-0.05
-0.05
-0.06
-0.085
-0.05
-0.055
-0.055
-0.08
-0.09
-0.085
-0.115
-0.11
-0.12
-0.15
-0.145
-0.18
-0.19
-0.175
-0.125
-0.15
-0.17
-0.17
-0.085
-0.135
-0.01
0.05
0.1
0.055
0.01
-0.095
-0.09
-0.125
-0.11
-0.185
-0.17
-0.165
-0.335
-0.235
0.57
2.175
1.65
0.255
-0.13
-0.08
-0.095
-0.145
-0.14
-0.115
-0.12
-0.08
-0.085
-0.14
-0.085
-0.12
-0.08
-0.07
-0.09
-0.055
-0.005
0.015
0.0
-0.04
-0.015
-0.055
-0.005
0.0
0.01
0.045
-0.015
-0.05
-0.035
-0.07
-0.085
-0.08
-0.115
-0.115
-0.09
-0.115
-0.11
-0.115
-0.14
-0.14
-0.135
-0.13
-0.17
-0.18
-0.18
-0.21
-0.21
-0.22
-0.24
-0.175
-0.14
-0.145
-0.035
-0.015
-0.045
-0.075
-0.115
-0.195
-0.185
-0.22
-0.23
-0.215
-0.205
-0.39
-0.325
0.205
1.585
2.205
0.68
-0.17
-0.2
-0.125
-0.14
-0.155
-0.12
-0.14
-0.125
-0.15
-0.125
-0.105
-0.08
-0.09
-0.045
-0.015
0.015
0.01
0.025
0.015
0.01
-0.04
-0.045
-0.055
-0.035
-0.025
-0.035
-0.075
-0.05
-0.07
-0.065
-0.105
-0.075
-0.08
-0.085
-0.1
-0.085
-0.09
-0.095
-0.105
-0.105
-0.1
-0.09
-0.09
-0.11
-0.095
-0.12
-0.13
-0.125
-0.12
-0.095
-0.04
-0.04
0.03
0.055
0.04
-0.02
-0.02
-0.115
-0.105
-0.14
-0.105
-0.14
-0.105
-0.295
-0.315
0.15
1.46
2.49
0.92
-0.05
-0.055
-0.045
-0.075
-0.12
-0.095
-0.11
-0.09
-0.115
-0.1
-0.09
-0.08
-0.06
-0.05
-0.04
-0.02
-0.02
0.005
0.005
0.005
-0.015
-0.07
-0.05
-0.025
-0.02
-0.005
-0.01
-0.02
-0.01
-0.03
-0.035
-0.02
0.01
-0.05
0.0
-0.005
-0.02
-0.025
-0.025
-0.065
-0.03
-0.03
-0.045
-0.085
-0.065
-0.07
-0.055
-0.07
-0.07
-0.08
0.0
-0.02
0.055
0.085
0.11
0.015
-0.01
-0.085
-0.11
-0.125
-0.095
-0.14
-0.1
-0.185
-0.32
-0.09
0.87
2.52
1.43
0.17
-0.09
-0.015
-0.01
-0.095
-0.09
-0.075
-0.06
-0.09
-0.085
-0.095
-0.06
-0.065
-0.025
-0.025
-0.015
-0.035
0.005
0.005
0.02
-0.005
-0.045
-0.08
-0.04
-0.055
-0.035
-0.025
-0.03
-0.06
-0.035
-0.09
-0.065
-0.065
-0.08
-0.06
-0.07
-0.085
-0.085
-0.085
-0.08
-0.11
-0.09
-0.13
-0.09
-0.12
-0.13
-0.13
-0.13
-0.14
-0.145
-0.14
-0.09
-0.125
-0.01
0.025
0.04
-0.035
-0.04
-0.15
-0.13
-0.155
-0.13
-0.145
-0.115
-0.25
-0.38
-0.05
1.15
2.57
1.135
0.01
-0.135
-0.105
-0.1
-0.165
-0.11
-0.175
-0.135
-0.1
-0.095
-0.125
-0.075
-0.09
-0.08
-0.03
-0.015
-0.035
0.0
0.005
0.035
-0.015
-0.005
-0.03
0.035
0.015
0.025
0.02
0.0
-0.02
-0.04
-0.04
-0.035
-0.035
-0.015
-0.035
-0.055
-0.045
-0.03
-0.045
-0.035
-0.065
-0.05
-0.05
-0.04
-0.065
-0.04
-0.07
-0.04
-0.055
-0.03
-0.04
0.04
0.01
0.13
0.145
0.185
0.11
0.13
0.04
0.075
0.06
0.08
-0.01
-0.03
-0.195
-0.31
-0.06
1.08
2.53
1.015
-0.12
-0.195
-0.095
-0.18
-0.17
-0.175
-0.18
-0.19
-0.195
-0.16
-0.2
-0.155
-0.175
-0.12
-0.13
-0.095
-0.135
-0.12
-0.185
-0.18
-0.25
-0.255
-0.24
-0.16
-0.155
-0.17
-0.185
-0.19
-0.17
-0.17
-0.21
-0.12
-0.095
-0.09
-0.09
-0.07
-0.08
-0.085
-0.09
-0.12
-0.01
-0.095
-0.085
-0.07
-0.105
-0.115
-0.11
-0.12
-0.11
-0.13
-0.065
-0.11
-0.025
-0.055
0.0
0.015
0.05
-0.015
-0.045
-0.13
-0.16
-0.19
-0.24
-0.26
-0.255
-0.425
-0.52
-0.1
1.18
2.555
0.835
-0.15
-0.15
-0.165
-0.18
-0.275
-0.24
-0.265
-0.2
-0.205
-0.175
-0.175
-0.14
-0.155
-0.085
-0.13
-0.055
-0.095
-0.09
-0.09
-0.11
-0.125
-0.14
-0.155
-0.05
-0.03
-0.04
-0.02
-0.055
-0.055
-0.07
-0.12
-0.095
-0.105
-0.105
-0.115
-0.16
-0.145
-0.12
-0.125
-0.17
-0.155
-0.17
-0.17
-0.105
-0.1
-0.095
-0.06
-0.115
-0.04
-0.105
-0.11
-0.14
-0.06
-0.065
-0.015
0.005
0.06
-0.035
-0.065
-0.1
0.01
-0.05
-0.075
-0.175
-0.19
-0.285
-0.43
-0.3
0.67
2.465
1.525
0.205
-0.1
-0.085
-0.105
-0.235
-0.245
-0.22
-0.17
-0.18
-0.12
-0.155
-0.105
-0.115
-0.11
-0.085
-0.075
-0.06
-0.04
-0.015
-0.015
-0.07
0.195
0.685
0.425
0.0
-0.05
-0.185
-0.185
-0.005
0.24
0.115
-0.04
-0.165
-0.295
-0.33
-0.235
-0.105
0.05
0.025
0.04
0.04
-0.01
-0.13
-0.185
-0.33
-0.45
-0.575
-0.585
-0.6
-0.515
-0.445
-0.33
-0.19
0.01
0.075
0.24
0.405
0.66
0.735
0.845
0.73
0.37
-0.005
-0.315
-0.545
-0.595
-0.75
-0.83
-0.725
0.385
2.385
1.34
0.225
0.06
0.14
0.145
0.14
0.135
0.065
0.045
0.0
0.0
0.0
-0.005
0.065
0.16
0.185
0.325
0.4
0.58
0.34
0.065
-0.05
0.045
0.065
0.125
0.2
0.305
0.305
0.275
0.155
0.1
0.02
0.035
-0.015
-0.015
-0.055
-0.045
-0.08
-0.065
-0.095
-0.075
-0.15
-0.125
-0.165
-0.175
-0.21
-0.18
-0.225
-0.185
-0.215
-0.135
-0.08
-0.01
-0.155
-0.065
-0.135
0.085
0.14
0.235
0.055
0.0
-0.12
-0.13
-0.155
-0.1
-0.145
-0.145
-0.2
-0.39
-0.215
0.64
2.36
1.57
0.265
-0.15
-0.085
-0.115
-0.2
-0.2
-0.21
-0.23
-0.245
-0.22
-0.21
-0.205
-0.23
-0.22
-0.185
-0.225
-0.16
-0.2
-0.14
-0.31
-0.52
-0.495
-0.375
-0.365
-0.23
-0.245
0.21
0.22
0.1
-0.245
-0.115
-0.12
-0.205
-0.335
-0.145
-0.375
-0.135
-0.22
-0.715
-0.56
-0.33
-0.36
-0.115
0.085
0.32
-0.195
-0.405
-0.41
-0.345
-0.285
-0.38
-0.19
-0.045
0.025
0.19
0.265
-0.35
-0.185
-0.06
-0.14
-0.115
0.065
0.04
-0.05
0.0
0.37
0.47
-0.6
-0.165
1.01
2.535
1.465
0.18
0.09
0.17
0.26
0.01
0.04
-0.055
0.165
0.45
0.085
-0.05
-0.12
0.01
0.015
0.05
0.205
0.27
0.295
-0.035
-0.115
-0.075
0.055
-0.045
0.18
0.08
0.29
0.195
0.335
0.01
0.04
-0.03
0.07
0.31
0.3
-0.025
-0.055
-0.065
0.055
-0.02
0.105
0.02
0.17
0.18
0.135
0.135
0.07
0.005
0.115
0.14
0.065
0.185
0.045
0.29
0.11
0.17
0.095
0.235
0.26
0.19
0.17
0.24
-0.045
-0.185
-0.11
-0.06
-0.125
-0.185
-0.185
0.065
1.345
2.41
0.905
-0.125
-0.1
-0.09
-0.03
-0.135
-0.015
-0.01
-0.165
-0.25
-0.085
-0.135
-0.075
0.02
0.15
0.07
0.05
-0.085
0.02
0.045
0.065
0.025
0.26
0.065
0.075
0.12
0.08
0.165
0.12
0.17
0.235
0.155
0.02
0.03
-0.025
-0.03
-0.035
0.065
0.05
-0.025
0.26
-0.065
-0.08
-0.005
-0.065
-0.01
-0.02
0.04
0.04
-0.065
0.03
-0.07
-0.08
-0.125
0.23
0.29
0.17
0.245
0.155
0.2
-0.01
0.06
-0.12
0.065
-0.11
0.145
0.0
0.14
-0.2
0.26
1.355
2.72
0.925
0.15
0.04
0.195
-0.025
0.435
-0.03
0.02
-0.015
0.22
0.29
0.215
0.385
0.095
0.39
0.355
0.265
0.19
0.36
0.35
0.425
0.31
0.405
0.535
0.5
0.19
0.47
0.425
0.535
0.505
0.505
0.625
0.62
0.28
0.34
0.415
0.525
0.46
0.415
0.37
0.605
0.325
0.385
0.28
0.285
0.34
0.29
0.305
0.455
0.155
0.35
0.225
0.335
0.47
0.41
0.785
0.355
0.5
0.415
0.45
0.355
0.49
0.45
0.415
0.28
0.325
0.24
0.11
0.34
0.985
2.81
2.045
0.67
0.24
0.325
0.38
0.315
0.355
0.21
0.285
0.13
0.22
0.09
0.27
0.185
0.25
0.395
0.29
0.175
0.155
0.215
0.14
0.22
0.235
0.335
0.285
0.225
0.16
0.265
0.26
0.235
0.225
0.255
0.185
0.24
0.01
-0.075
0.035
0.0
0.055
0.025
0.215
0.07
0.085
0.0
-0.075
0.0
0.0
-0.045
-0.025
-0.065
0.0
-0.09
-0.02
-0.205
-0.055
-0.065
0.005
0.025
0.09
0.275
0.095
-0.005
-0.065
-0.095
-0.085
-0.055
-0.055
-0.11
-0.23
-0.025
1.1
2.615
0.97
0.005
0.045
0.15
0.115
-0.055
-0.045
-0.135
-0.165
-0.13
-0.18
-0.155
0.05
-0.09
-0.09
-0.12
-0.04
-0.015
0.0
-0.05
0.04
0.07
-0.01
-0.035
0.04
0.1
0.175
0.125
0.12
0.345
0.15
-0.005
-0.065
0.025
0.03
0.015
0.03
0.05
0.13
0.035
0.13
-0.155
0.005
-0.015
-0.035
0.115
-0.01
0.125
0.21
0.005
-0.045
0.02
0.05
0.035
0.16
0.265
0.335
0.21
0.315
0.085
0.15
0.075
0.12
0.115
0.145
0.12
-0.035
-0.125
-0.115
0.375
1.75
2.685
0.915
0.18
0.12
0.135
-0.03
0.07
0.015
0.175
0.08
0.25
0.06
-0.04
0.055
0.065
0.075
0.12
0.115
0.085
0.37
0.0
0.035
0.035
0.075
0.06
0.16
0.205
0.205
0.125
0.505
0.03
-0.015
0.005
0.025
0.065
-0.025
0.09
0.125
0.075
-0.005
0.0
-0.165
-0.105
0.0
0.005
-0.035
0.145
-0.12
-0.08
0.03
-0.16
-0.085
-0.08
-0.12
-0.01
0.015
0.165
0.165
0.07
0.01
0.01
-0.105
-0.05
-0.125
-0.045
-0.065
-0.095
-0.095
-0.265
-0.185
0.865
2.32
1.365
0.22
-0.13
-0.14
-0.095
-0.19
-0.05
-0.12
-0.12
-0.1
-0.155
-0.275
-0.145
-0.14
-0.11
-0.105
0.0
-0.065
-0.185
-0.195
-0.17
-0.12
-0.02
-0.1
-0.135
0.06
-0.045
-0.15
-0.055
0.03
-0.145
-0.16
-0.075
-0.105
-0.01
-0.22
-0.225
-0.275
-0.205
-0.11
-0.06
-0.215
-0.2
-0.21
-0.185
-0.18
-0.165
-0.195
-0.25
0.085
-0.33
-0.22
-0.195
-0.02
-0.25
-0.015
-0.115
-0.08
-0.11
-0.06
-0.06
-0.225
-0.095
-0.155
-0.235
-0.26
-0.28
-0.395
-0.305
0.33
1.975
1.895
0.5
-0.245
-0.14
-0.23
-0.205
-0.17
-0.075
-0.195
0.045
-0.145
-0.13
-0.17
-0.25
-0.145
-0.09
-0.055
-0.065
0.045
-0.095
-0.055
-0.035
-0.11
-0.1
-0.07
-0.105
-0.075
-0.075
-0.265
-0.16
-0.065
-0.27
-0.095
-0.125
-0.085
-0.195
-0.1
-0.1
-0.11
-0.195
-0.185
-0.19
-0.24
-0.245
-0.2
-0.13
-0.215
-0.025
-0.27
-0.21
-0.245
-0.21
-0.155
-0.1
0.005
-0.08
-0.035
-0.075
-0.05
0.01
-0.14
-0.015
-0.155
-0.145
-0.14
-0.19
-0.12
-0.365
-0.345
0.63
2.22
1.555
0.705
0.14
-0.025
-0.14
-0.15
-0.13
-0.16
-0.1
-0.2
0.005
-0.075
-0.025
-0.24
-0.205
-0.175
-0.1
-0.145
-0.11
0.07
0.045
-0.035
-0.115
-0.275
-0.135
-0.035
0.02
0.0
0.0
-0.045
-0.195
0.175
-0.13
-0.275
-0.17
-0.18
-0.105
-0.185
-0.14
0.14
-0.2
-0.27
-0.185
-0.21
-0.21
-0.155
-0.025
-0.13
-0.135
-0.19
-0.235
-0.275
-0.23
-0.1
-0.1
-0.085
0.105
0.375
-0.19
-0.145
-0.225
-0.14
-0.265
-0.075
-0.235
-0.245
-0.06
-0.38
-0.385
0.51
2.37
1.4
0.085
-0.09
0.0
-0.21
-0.12
-0.285
-0.21
-0.205
-0.27
-0.085
-0.21
-0.075
0.045
-0.235
-0.155
-0.11
-0.24
-0.125
-0.115
-0.11
-0.055
-0.11
-0.105
-0.145
-0.085
-0.1
-0.15
-0.015
0.015
-0.155
-0.06
-0.11
-0.275
-0.165
-0.16
-0.21
-0.17
-0.005
-0.005
-0.175
-0.085
-0.1
-0.205
-0.09
-0.085
-0.005
0.055
0.24
0.125
-0.145
-0.14
-0.09
-0.065
-0.065
0.055
0.075
0.245
0.09
-0.175
-0.005
-0.19
-0.185
-0.17
-0.09
-0.29
-0.29
-0.045
-0.01
0.525
2.255
1.95
0.555
0.13
0.04
0.07
-0.215
-0.06
-0.05
-0.14
-0.065
-0.12
-0.055
0.085
-0.115
-0.07
-0.01
0.07
-0.075
0.045
0.13
-0.08
-0.135
-0.055
0.0
-0.075
0.09
0.185
0.085
0.215
0.08
-0.165
-0.13
-0.085
-0.015
-0.005
0.02
0.0
-0.125
0.035
0.04
-0.26
-0.16
-0.12
-0.05
-0.03
-0.025
0.02
-0.12
-0.22
-0.17
-0.115
-0.015
-0.08
0.295
-0.155
-0.09
0.05
-0.125
-0.22
-0.075
-0.17
0.045
-0.255
-0.285
-0.265
-0.195
-0.245
-0.4
-0.11
0.92
2.57
1.13
0.025
-0.2
-0.095
-0.16
-0.035
-0.125
-0.205
-0.205
-0.145
-0.175
-0.045
-0.13
0.015
-0.145
-0.12
0.005
-0.14
0.045
-0.055
-0.1
-0.11
-0.195
-0.1
-0.025
0.025
0.21
0.1
-0.01
0.11
0.065
-0.125
-0.04
-0.04
0.0
-0.13
-0.085
-0.1
0.05
-0.115
-0.135
-0.08
-0.11
-0.135
-0.14
0.01
-0.105
-0.045
-0.325
-0.145
-0.18
-0.155
-0.095
-0.115
-0.055
0.055
0.09
0.13
0.0
-0.105
-0.125
-0.21
-0.195
-0.165
-0.24
-0.14
-0.275
-0.425
-0.085
1.145
2.43
0.985
-0.045
-0.18
-0.13
-0.16
-0.22
-0.1
-0.14
-0.085
-0.34
-0.245
-0.175
-0.13
-0.125
-0.105
-0.065
-0.13
0.07
-0.18
-0.075
-0.225
-0.165
-0.165
-0.16
-0.09
-0.05
0.015
0.0
-0.02
-0.04
0.265
-0.33
-0.075
-0.07
-0.055
-0.035
0.015
-0.045
0.045
0.03
0.08
-0.035
-0.185
-0.125
0.0
-0.04
0.0
-0.005
0.03
0.245
0.06
-0.43
-0.25
-0.175
0.01
-0.125
0.03
-0.055
-0.22
-0.195
-0.12
-0.385
-0.13
-0.085
-0.005
-0.07
0.105
-0.155
-0.22
0.565
2.23
2.02
0.6
0.06
0.13
0.045
-0.12
-0.04
-0.075
0.05
0.08
0.165
-0.165
-0.09
-0.055
-0.035
-0.02
-0.005
-0.07
-0.035
0.12
-0.01
-0.045
-0.205
-0.315
-0.215
-0.09
-0.06
-0.1
-0.11
0.015
-0.075
-0.01
-0.11
-0.12
-0.045
-0.095
-0.06
-0.14
-0.035
0.185
-0.09
-0.205
-0.08
-0.155
-0.08
-0.13
-0.115
-0.11
-0.095
-0.12
-0.1
-0.01
-0.12
-0.13
-0.145
-0.115
-0.025
0.035
0.03
-0.005
-0.015
-0.055
0.095
-0.095
-0.275
-0.145
-0.165
-0.26
-0.37
0.105
1.42
2.205
0.44
-0.23
-0.34
-0.09
-0.175
0.12
0.155
0.04
0.07
-0.02
0.0
-0.07
0.01
0.03
-0.12
-0.16
-0.14
-0.155
-0.145
-0.22
-0.25
-0.31
-0.32
-0.355
-0.235
-0.21
-0.195
-0.105
-0.02
-0.04
-0.01
-0.005
0.025
0.035
0.055
0.055
0.07
-0.01
-0.005
-0.02
-0.005
-0.015
-0.095
-0.035
-0.055
-0.02
-0.06
-0.025
-0.09
-0.045
-0.065
-0.08
-0.075
-0.015
-0.035
0.025
0.045
0.05
-0.015
-0.04
-0.125
-0.125
-0.16
-0.15
-0.195
-0.225
-0.32
-0.435
-0.11
1.075
2.515
0.775
-0.2
-0.26
-0.255
-0.28
-0.205
-0.285
-0.375
-0.275
-0.24
-0.33
-0.175
-0.275
-0.14
-0.14
-0.04
-0.195
0.02
-0.495
-0.06
-0.25
-0.18
-0.04
1.04
0.65
-0.14
-0.505
0.0
-0.085
0.23
-0.06
0.085
-0.245
-0.475
-0.745
-0.72
-0.58
-0.33
-0.15
-0.25
0.14
-0.075
0.045
-0.135
0.04
-0.225
0.38
-0.03
0.14
-0.44
-0.26
-0.38
-0.05
-0.375
0.01
-0.1
0.23
0.035
0.275
-0.015
0.19
-0.145
0.03
-0.07
0.475
0.24
-0.21
-0.295
0.45
1.855
2.105
0.685
-0.06
-0.175
-0.095
-0.155
-0.265
-0.305
-0.34
-0.315
-0.31
-0.255
-0.155
-0.055
0.27
0.015
-0.03
0.135
0.095
0.21
0.145
0.25
0.135
0.2
0.105
0.19
0.09
0.145
0.04
0.09
0.0
0.045
0.0
0.075
-0.005
0.095
0.075
0.15
0.105
0.17
0.095
0.14
0.05
0.12
0.015
0.04
-0.05
-0.025
-0.205
-0.16
-0.255
-0.205
-0.275
-0.19
-0.255
-0.145
-0.145
-0.09
-0.15
-0.185
-0.2
-0.195
-0.225
-0.24
-0.235
-0.28
-0.37
-0.525
-0.36
0.55
2.195
1.175
0.005
-0.29
-0.175
-0.15
-0.145
-0.12
-0.13
-0.125
-0.105
-0.1
-0.09
-0.065
-0.06
-0.025
-0.005
0.015
-0.005
0.0
-0.005
0.005
-0.09
-0.05
-0.055
-0.04
-0.05
-0.01
0.0
0.0
-0.02
0.005
-0.015
0.005
-0.015
0.015
-0.045
-0.025
-0.025
0.0
-0.035
-0.03
-0.04
-0.04
-0.04
-0.07
-0.08
-0.1
-0.11
-0.09
-0.095
-0.105
-0.06
-0.04
-0.025
0.015
0.09
0.105
0.02
0.015
-0.09
-0.11
-0.13
-0.125
-0.15
-0.135
-0.15
-0.375
-0.185
0.755
2.495
1.485
0.175
-0.13
-0.07
-0.065
-0.1
-0.05
-0.125
-0.095
-0.15
-0.12
-0.15
-0.065
-0.13
-0.085
-0.11
-0.075
-0.065
-0.01
0.035
0.035
0.01
0.025
-0.005
-0.01
0.01
0.045
-0.005
0.0
-0.045
0.0
-0.04
-0.07
-0.08
-0.07
-0.05
-0.07
-0.07
-0.12
-0.105
-0.13
-0.145
-0.145
-0.1
-0.13
-0.135
-0.125
-0.075
-0.125
-0.145
-0.135
-0.12
-0.05
-0.03
-0.005
-0.015
0.08
0.045
0.01
-0.03
-0.16
-0.375
-0.335
-0.33
-0.26
-0.315
-0.465
-0.39
0.345
1.995
1.815
0.345
-0.165
-0.145
-0.13
-0.2
-0.265
-0.28
-0.27
-0.21
-0.18
-0.09
-0.155
-0.13
-0.055
-0.145
-0.11
-0.05
-0.035
-0.08
-0.04
-0.105
-0.09
-0.085
-0.115
-0.105
-0.12
-0.105
-0.135
-0.105
-0.105
-0.075
-0.09
-0.08
-0.095
-0.1
-0.09
-0.08
-0.025
-0.03
0.0
0.075
0.045
0.115
0.065
0.065
0.035
0.0
-0.065
-0.065
-0.12
-0.04
-0.085
-0.025
0.0
0.09
0.145
0.125
0.01
-0.015
-0.08
-0.1
-0.075
-0.055
-0.085
-0.06
-0.26
-0.255
0.23
1.66
2.5
0.76
-0.065
-0.065
0.005
-0.03
-0.035
0.025
0.065
0.085
0.125
0.165
0.215
0.22
0.255
0.3
0.355
0.36
0.415
0.415
0.46
0.48
0.5
0.48
0.535
0.515
0.57
0.49
0.515
0.48
0.57
0.5
0.555
0.56
0.57
0.505
0.49
0.39
0.29
0.115
-0.03
-0.18
-0.24
-0.295
-0.335
-0.56
-0.565
-0.825
-0.925
-1.16
-1.33
-1.54
-1.46
-1.18
-1.265
-0.985
-1.055
-0.735
-0.6
-0.205
-0.335
-0.28
-0.56
-0.43
-0.515
-0.385
-0.615
-0.72
-0.46
0.825
2.44
0.87
-0.3
-0.32
-0.3
-0.265
-0.31
-0.325
-0.295
-0.165
-0.145
-0.085
-0.025
-0.005
0.015
0.09
0.09
0.065
0.085
0.1
0.115
0.12
0.085
-0.01
0.045
0.04
0.05
0.08
0.07
0.07
0.04
0.05
0.045
0.07
0.06
0.08
0.095
0.08
0.07
0.065
0.065
0.045
0.06
0.04
0.06
0.03
0.04
0.005
0.0
-0.015
0.01
-0.055
0.02
-0.005
0.075
0.02
0.08
0.06
0.095
-0.055
-0.06
-0.2
-0.2
-0.315
-0.24
-0.385
-0.305
-0.485
-0.54
-0.39
0.845
2.35
1.065
-0.155
-0.205
-0.12
-0.115
-0.11
-0.125
-0.09
-0.11
-0.105
-0.135
-0.105
-0.115
-0.055
-0.02
0.0
0.005
0.035
0.045
0.085
0.085
0.1
0.11
0.11
0.13
0.11
0.165
0.1
0.08
0.12
0.13
0.16
0.165
0.15
0.235
0.21
0.19
0.185
0.185
0.155
0.115
0.15
0.14
0.145
0.145
0.17
0.16
0.185
0.22
0.145
0.2
0.165
0.145
0.2
0.205
0.19
0.24
0.335
0.275
0.28
0.22
0.16
0.05
0.07
0.055
0.015
0.085
0.11
-0.02
0.045
0.71
2.26
2.35
0.92
0.315
0.34
0.385
0.355
0.295
0.28
0.37
0.35
0.355
0.325
0.33
0.3
0.33
0.435
0.395
0.325
0.26
0.06
-0.115
-0.275
-0.355
-0.465
-0.785
-0.685
0.22
0.62
0.255
-0.085
-0.49
-1.06
-1.355
-1.485
-1.375
-1.38
-1.9
-2.475
-1.645
-1.81
-1.785
-1.71
-1.34
-1.01
-0.165
-0.34
-0.17
0.125
0.11
-0.085
-0.09
-0.275
-0.175
-0.47
-0.265
-0.62
-0.15
-0.64
-0.155
-0.18
-0.16
0.02
-0.425
-0.58
-0.64
-0.845
-1.04
-0.81
-0.905
-0.71
-0.72
0.225
0.89
2.33
0.825
-0.07
-0.145
-0.02
-0.08
0.18
-0.13
-0.025
-0.395
-0.455
-0.365
0.055
-0.11
-0.12
-0.045
-0.06
0.04
0.02
0.19
-0.185
-0.305
-0.615
0.13
0.065
0.175
-0.125
0.12
-0.06
0.305
-0.38
0.43
-0.6
-0.125
-0.58
0.095
0.195
-0.155
0.1
-0.44
0.19
-0.315
0.08
0.075
-0.03
-0.04
0.04
-0.17
0.065
-0.06
-0.07
-0.11
-0.035
-0.025
0.13
0.08
0.11
-0.07
0.01
0.02
0.23
0.08
0.075
-0.13
-0.17
-0.08
-0.075
-0.095
-0.035
-0.085
-0.4
-0.255
0.94
2.575
1.395
0.2
-0.22
-0.05
-0.085
-0.095
0.14
-0.16
-0.045
-0.005
0.0
0.175
0.045
0.115
0.235
-0.055
0.07
0.175
0.015
0.16
0.16
-0.09
0.155
-0.1
0.115
-0.195
0.025
-0.135
0.155
-0.065
0.05
-0.025
-0.045
-0.105
0.145
0.06
0.0
0.035
0.125
-0.04
0.02
0.06
0.0
0.04
-0.085
0.2
-0.045
0.305
-0.025
0.105
0.15
0.08
0.1
0.125
0.03
0.03
0.245
0.045
0.18
0.29
0.12
0.145
-0.045
-0.01
-0.265
0.01
-0.095
0.04
-0.06
-0.015
-0.325
-0.07
0.695
2.795
1.78
0.475
0.205
0.03
0.165
-0.025
0.145
-0.045
0.24
0.12
-0.005
0.18
0.015
0.005
0.055
0.125
-0.05
0.22
0.165
0.2
-0.15
0.225
-0.12
0.15
-0.11
-0.16
-1.035
-0.945
-1.01
-0.945
0.065
0.405
1.1
0.775
0.825
0.425
0.375
-0.04
0.19
-0.085
0.15
-0.145
0.12
-0.18
0.035
-0.18
-0.005
-0.155
0.01
-0.03
-0.02
0.095
-0.215
-0.145
-0.14
-0.12
-0.025
-0.065
0.11
-0.005
0.37
0.075
0.115
-0.07
-0.05
-0.06
-0.08
-0.04
-0.105
-0.02
-0.04
-0.355
-0.205
0.85
2.5
1.29
0.12
0.08
0.04
0.02
-0.235
-0.15
-0.115
-0.015
-0.06
0.015
0.115
0.12
-0.085
0.0
-0.005
0.0
0.18
0.19
0.32
0.055
0.14
-0.02
-0.03
0.045
0.115
0.105
0.265
0.095
-0.005
0.025
-0.025
0.15
0.11
0.135
0.035
0.15
-0.01
0.005
-0.035
0.0
-0.04
0.075
0.095
-0.01
-0.02
-0.115
-0.02
-0.1
-0.05
0.02
0.115
-0.165
-0.025
-0.055
-0.05
-0.025
0.15
0.27
-0.14
0.06
0.155
0.1
0.02
0.0
0.055
-0.22
-0.03
-0.1
0.0
-0.075
-0.4
-0.18
1.0
2.645
1.225
0.325
-0.135
0.095
-0.075
-0.22
-0.045
-0.075
-0.115
-0.085
0.07
-0.005
-0.12
-0.04
0.005
0.0
0.005
0.045
0.015
0.21
-0.12
-0.045
-0.07
-0.01
0.03
0.125
0.18
0.075
0.01
-0.02
-0.075
-0.025
-0.025
0.055
0.055
-0.015
0.11
0.005
-0.13
-0.135
-0.09
-0.075
0.015
-0.16
0.22
-0.29
0.14
-0.32
-0.005
-0.185
-0.035
-0.015
0.035
0.03
0.005
-0.07
-0.225
-0.07
-0.06
0.05
0.005
0.365
0.01
0.095
-0.11
-0.145
-0.185
-0.055
-0.135
0.08
0.0
-0.44
-0.25
0.13
1.955
2.08
0.68
-0.065
0.045
0.115
-0.225
-0.175
-0.14
-0.135
-0.13
0.0
-0.05
0.045
-0.015
-0.005
-0.08
-0.065
-0.025
-0.035
-0.01
0.02
-0.015
-0.1
0.005
0.275
0.08
-0.245
-0.025
-0.05
-0.045
-0.03
-0.025
-0.005
-0.015
0.015
-0.02
0.14
-0.06
-0.205
-0.13
-0.1
-0.105
-0.125
-0.18
-0.07
-0.08
-0.105
-0.175
-0.155
-0.13
-0.08
-0.045
-0.095
-0.11
-0.295
0.01
-0.24
-0.17
-0.025
-0.045
0.17
0.24
0.215
-0.075
-0.14
-0.07
-0.065
-0.08
-0.065
0.03
-0.06
-0.035
-0.4
0.12
1.685
2.52
0.875
0.12
0.025
0.055
0.125
0.0
0.05
0.09
0.105
0.18
0.14
0.25
0.09
0.185
0.19
0.255
0.195
0.2
0.245
0.27
0.155
0.185
0.125
0.135
0.08
0.09
0.12
0.24
0.13
0.165
0.135
0.145
0.13
-0.095
-0.09
-0.16
-0.135
-0.195
-0.12
-0.18
-0.095
-0.13
-0.09
-0.115
-0.11
-0.09
-0.08
-0.045
-0.045
-0.07
-0.06
-0.07
-0.09
-0.115
-0.135
-0.14
-0.165
-0.11
-0.15
-0.055
-0.035
-0.055
-0.14
-0.175
-0.29
-0.3
-0.36
-0.305
-0.33
-0.3
-0.43
-0.535
-0.22
0.955
2.28
0.75
-0.27
-0.3
-0.255
-0.275
-0.305
-0.29
-0.31
-0.28
-0.285
-0.255
-0.265
-0.235
-0.235
-0.18
-0.165
-0.145
-0.135
-0.155
-0.16
-0.15
-0.155
-0.155
-0.165
-0.13
-0.07
-0.04
-0.095
-0.08
-0.105
-0.105
-0.105
-0.105
-0.15
-0.15
-0.16
-0.16
-0.135
-0.135
-0.135
-0.145
-0.115
-0.105
-0.145
-0.16
-0.185
-0.185
-0.15
-0.155
-0.195
-0.205
-0.19
-0.205
-0.21
-0.215
-0.21
-0.15
-0.145
-0.07
0.0
0.045
0.0
-0.045
-0.145
-0.19
-0.23
-0.235
-0.215
-0.215
-0.255
-0.42
-0.375
0.26
1.81
1.805
0.42
-0.16
-0.15
-0.16
-0.18
-0.19
-0.2
-0.185
-0.18
-0.175
-0.17
-0.19
-0.165
-0.16
-0.145
-0.13
-0.09
-0.095
-0.1
-0.08
-0.115
-0.125
-0.14
-0.1
-0.095
-0.05
-0.05
-0.07
-0.07
-0.075
-0.105
-0.11
-0.11
-0.095
-0.115
-0.135
-0.13
-0.13
-0.16
-0.13
-0.155
-0.175
-0.14
-0.165
-0.125
-0.15
-0.195
-0.16
-0.145
-0.185
-0.17
-0.185
-0.185
-0.165
-0.17
-0.145
-0.115
-0.08
-0.04
-0.005
-0.035
-0.11
-0.145
-0.205
-0.22
-0.255
-0.22
-0.245
-0.23
-0.395
-0.41
0.19
1.68
2.025
0.55
-0.135
-0.145
-0.135
-0.185
-0.175
-0.185
-0.175
-0.15
-0.18
-0.17
-0.13
-0.145
-0.155
-0.12
-0.08
-0.1
-0.075
-0.06
-0.085
-0.095
-0.12
-0.135
-0.14
-0.095
-0.06
-0.065
-0.08
-0.095
-0.095
-0.125
-0.12
-0.11
-0.105
-0.105
-0.12
-0.125
-0.135
-0.135
-0.13
-0.14
-0.15
-0.14
-0.15
-0.16
-0.16
-0.175
-0.165
-0.165
-0.15
-0.17
-0.165
-0.165
-0.17
-0.175
-0.125
-0.1
-0.07
-0.015
0.035
-0.01
-0.06
-0.125
-0.16
-0.195
-0.195
-0.185
-0.165
-0.205
-0.39
-0.34
0.4
2.045
1.775
0.355
-0.17
-0.135
-0.12
-0.175
-0.175
-0.18
-0.165
-0.17
-0.145
-0.15
-0.14
-0.14
-0.095
-0.105
-0.09
-0.075
-0.06
-0.07
-0.06
-0.095
-0.13
-0.145
-0.125
-0.085
-0.06
-0.055
-0.065
-0.065
-0.085
-0.09
-0.09
-0.1
-0.105
-0.095
-0.095
-0.09
-0.1
-0.1
-0.1
-0.105
-0.11
-0.13
-0.12
-0.135
-0.125
-0.135
-0.125
-0.14
-0.11
-0.13
-0.105
-0.13
-0.115
-0.125
-0.045
-0.07
0.01
0.02
0.055
-0.03
-0.05
-0.14
-0.145
-0.185
-0.17
-0.2
-0.16
-0.25
-0.4
-0.23
0.775
2.435
1.21
0.03
-0.15
-0.095
-0.105
-0.16
-0.15
-0.175
-0.13
-0.145
-0.12
-0.135
-0.105
-0.11
-0.075
-0.085
-0.055
-0.075
-0.045
-0.08
-0.075
-0.105
-0.12
-0.145
-0.13
-0.11
-0.065
-0.06
-0.06
-0.085
-0.08
-0.08
-0.085
-0.085
-0.075
-0.075
-0.085
-0.095
-0.095
-0.1
-0.105
-0.1
-0.105
-0.105
-0.115
-0.11
-0.11
-0.11
-0.125
-0.095
-0.115
-0.105
-0.13
-0.12
-0.115
-0.015
-0.04
0.045
0.075
0.08
-0.015
-0.035
-0.105
-0.12
-0.155
-0.135
-0.165
-0.135
-0.205
-0.365
-0.2
0.78
2.415
1.3
0.075
-0.125
-0.095
-0.105
-0.155
-0.13
-0.165
-0.135
-0.155
-0.125
-0.12
-0.1
-0.11
-0.075
-0.065
-0.03
-0.02
-0.035
-0.035
-0.04
-0.06
-0.06
-0.135
-0.075
-0.065
-0.04
-0.045
-0.075
-0.055
-0.075
-0.085
-0.085
-0.105
-0.075
-0.055
-0.07
-0.08
-0.1
-0.1
-0.08
-0.1
-0.11
-0.115
-0.105
-0.115
-0.155
-0.125
-0.13
-0.165
-0.13
-0.175
-0.16
-0.12
-0.07
-0.115
-0.025
0.0
0.03
-0.055
-0.045
-0.13
-0.165
-0.195
-0.19
-0.195
-0.19
-0.26
-0.395
-0.3
0.505
2.25
1.59
0.225
-0.125
-0.13
-0.115
-0.21
-0.175
-0.165
-0.2
-0.19
-0.125
-0.16
-0.15
-0.125
-0.105
-0.1
-0.045
-0.035
-0.055
-0.045
-0.035
-0.06
-0.075
-0.105
-0.095
-0.065
-0.03
-0.055
-0.06
-0.09
-0.1
-0.095
-0.075
-0.1
-0.095
-0.105
-0.095
-0.095
-0.12
-0.115
-0.12
-0.11
-0.125
-0.125
-0.145
-0.145
-0.16
-0.145
-0.16
-0.16
-0.15
-0.175
-0.155
-0.155
-0.12
-0.085
-0.07
0.0
0.045
0.01
-0.04
-0.105
-0.16
-0.16
-0.175
-0.16
-0.17
-0.19
-0.345
-0.36
0.26
1.83
2.095
0.52
-0.13
-0.1
-0.085
-0.135
-0.14
-0.145
-0.135
-0.11
-0.105
-0.105
-0.095
-0.085
-0.06
-0.055
-0.035
-0.01
-0.01
-0.005
-0.025
-0.035
-0.055
-0.06
-0.065
-0.04
-0.02
-0.015
-0.03
-0.035
-0.045
-0.065
-0.07
-0.05
-0.065
-0.065
-0.065
-0.065
-0.065
-0.07
-0.08
-0.095
-0.105
-0.08
-0.1
-0.095
-0.115
-0.115
-0.12
-0.105
-0.125
-0.105
-0.125
-0.115
-0.1
-0.045
-0.06
0.045
0.055
0.045
-0.04
-0.05
-0.13
-0.12
-0.165
-0.13
-0.16
-0.13
-0.27
-0.365
-0.03
1.225
2.53
0.92
-0.08
-0.11
-0.065
-0.1
-0.15
-0.13
-0.13
-0.105
-0.13
-0.105
-0.12
-0.09
-0.095
-0.07
-0.065
-0.04
-0.06
-0.03
-0.045
-0.045
-0.08
-0.095
-0.1
-0.075
-0.05
-0.02
-0.025
-0.04
-0.065
-0.06
-0.055
-0.05
-0.065
-0.055
-0.07
-0.065
-0.085
-0.075
-0.09
-0.085
-0.095
-0.1
-0.115
-0.1
-0.115
-0.105
-0.12
-0.105
-0.13
-0.12
-0.145
-0.115
-0.11
-0.055
-0.075
0.025
0.05
0.065
-0.03
-0.05
-0.135
-0.135
-0.17
-0.15
-0.17
-0.135
-0.225
-0.38
-0.22
0.765
2.415
1.265
0.095
-0.095
-0.065
-0.085
-0.15
-0.12
-0.145
-0.11
-0.13
-0.1
-0.115
-0.075
-0.095
-0.055
-0.05
-0.035
-0.04
-0.025
-0.04
-0.03
-0.065
-0.075
-0.09
-0.08
-0.06
-0.02
-0.04
-0.05
-0.06
-0.055
-0.065
-0.05
-0.055
-0.06
-0.065
-0.07
-0.09
-0.065
-0.085
-0.075
-0.095
-0.1
-0.1
-0.11
-0.12
-0.115
-0.115
-0.1
-0.125
-0.105
-0.115
-0.105
-0.12
-0.045
-0.06
0.035
0.06
0.06
-0.01
-0.015
-0.12
-0.13
-0.145
-0.13
-0.17
-0.145
-0.195
-0.345
-0.235
0.67
2.34
1.445
0.195
-0.105
-0.07
-0.095
-0.15
-0.11
-0.13
-0.12
-0.13
-0.115
-0.12
-0.095
-0.1
-0.05
-0.05
-0.04
-0.035
-0.015
-0.03
-0.04
-0.06
-0.05
-0.095
-0.06
-0.04
-0.03
-0.035
-0.03
-0.045
-0.045
-0.05
-0.065
-0.07
-0.05
-0.04
-0.075
-0.095
-0.05
-0.065
-0.095
-0.105
-0.09
-0.095
-0.105
-0.115
-0.115
-0.11
-0.12
-0.13
-0.125
-0.125
-0.13
-0.115
-0.1
-0.03
-0.035
0.015
0.055
0.03
-0.03
-0.055
-0.125
-0.13
-0.185
-0.155
-0.16
-0.14
-0.295
-0.355
0.03
1.44
2.365
0.84
-0.065
-0.095
-0.075
-0.12
-0.135
-0.135
-0.145
-0.11
-0.13
-0.115
-0.105
-0.1
-0.075
-0.03
-0.03
-0.025
-0.025
-0.015
-0.055
-0.01
-0.05
-0.055
-0.07
-0.045
-0.025
-0.015
-0.02
-0.045
-0.065
-0.055
-0.07
-0.08
-0.07
-0.1
-0.085
-0.08
-0.095
-0.09
-0.1
-0.095
-0.08
-0.13
-0.105
-0.135
-0.095
-0.14
-0.15
-0.16
-0.135
-0.155
-0.13
-0.155
-0.12
-0.165
-0.1
-0.085
-0.04
0.0
0.035
-0.05
-0.025
-0.15
-0.155
-0.2
-0.145
-0.17
-0.145
-0.21
-0.38
-0.245
0.72
2.525
1.325
0.13
-0.125
-0.075
-0.09
-0.155
-0.14
-0.17
-0.125
-0.135
-0.125
-0.135
-0.11
-0.11
-0.045
-0.085
-0.05
-0.055
-0.03
-0.045
-0.03
-0.075
-0.08
-0.095
-0.07
-0.075
-0.02
-0.04
-0.07
-0.065
-0.09
-0.105
-0.08
-0.105
-0.11
-0.11
-0.115
-0.13
-0.125
-0.125
-0.13
-0.145
-0.155
-0.165
-0.155
-0.16
-0.155
-0.175
-0.19
-0.19
-0.19
-0.205
-0.18
-0.2
-0.17
-0.18
-0.085
-0.065
0.025
0.065
0.06
-0.015
-0.04
-0.165
-0.125
-0.16
-0.105
-0.135
-0.155
-0.305
-0.43
-0.13
1.17
2.575
0.89
-0.125
-0.1
-0.13
-0.19
-0.265
-0.21
-0.23
-0.14
-0.075
-0.01
-0.055
-0.035
-0.065
-0.07
-0.12
-0.1
-0.115
-0.125
-0.175
-0.15
-0.18
-0.28
-0.095
-0.005
0.08
0.1
0.08
0.04
0.02
0.01
-0.005
0.025
0.055
0.0
-0.06
-0.075
-0.105
-0.12
-0.135
-0.155
-0.15
-0.19
-0.165
-0.235
-0.21
-0.395
-0.41
-0.39
-0.24
0.225
-0.185
-0.26
-0.61
-0.615
-0.56
-0.34
-0.17
-0.05
0.03
0.205
0.41
0.43
0.34
0.12
-0.005
-0.06
-0.09
-0.155
-0.33
-0.43
0.005
1.385
2.31
0.71
-0.145
-0.085
-0.065
-0.09
-0.12
-0.085
-0.095
-0.07
-0.05
0.0
0.095
0.2
0.21
0.185
0.145
0.135
0.055
0.015
-0.04
-0.06
-0.12
-0.095
-0.12
-0.105
-0.09
-0.05
-0.085
-0.07
-0.04
-0.13
-0.1
-0.11
-0.11
-0.105
-0.11
-0.11
-0.13
-0.16
-0.265
-0.265
-0.095
-0.055
0.1
0.12
0.03
-0.025
-0.05
-0.06
-0.07
-0.1
-0.08
-0.11
-0.1
-0.11
-0.04
-0.06
0.02
0.05
0.08
0.0
-0.02
-0.16
-0.19
-0.215
-0.195
-0.235
-0.215
-0.3
-0.455
-0.3
0.7
2.415
1.275
0.08
-0.145
-0.095
-0.12
-0.17
-0.115
-0.17
-0.13
-0.165
-0.095
-0.09
-0.085
-0.085
-0.065
-0.065
0.0
-0.02
0.005
-0.04
-0.03
-0.06
-0.055
-0.095
-0.045
-0.02
0.005
0.015
0.015
-0.02
-0.01
-0.05
-0.055
-0.12
-0.255
0.125
0.005
0.0
0.01
-0.075
-0.1
-0.13
-0.16
-0.16
-0.155
-0.135
-0.145
-0.16
-0.175
-0.175
-0.17
-0.14
-0.14
-0.11
-0.105
-0.05
-0.04
0.01
0.06
0.1
0.03
-0.01
-0.08
-0.095
-0.115
-0.105
-0.115
-0.085
-0.14
-0.31
-0.2
0.595
2.3
1.73
0.405
-0.06
0.02
0.05
-0.035
0.015
-0.005
-0.03
-0.04
0.0
-0.04
0.0
-0.02
-0.01
-0.005
0.02
0.005
0.03
-0.02
0.0
-0.045
-0.045
-0.085
-0.065
-0.01
0.005
0.0
-0.04
-0.035
-0.055
-0.075
-0.115
-0.145
-0.295
-0.09
0.175
-0.09
-0.195
-0.17
-0.135
-0.09
-0.14
-0.16
-0.165
-0.16
-0.165
-0.15
-0.175
-0.17
-0.14
-0.15
-0.175
-0.155
-0.16
-0.09
-0.12
-0.05
0.015
0.025
-0.055
-0.07
-0.16
-0.17
-0.215
-0.195
-0.265
-0.24
-0.295
-0.43
-0.35
0.45
2.16
1.56
0.315
-0.105
-0.055
-0.015
-0.04
0.01
-0.06
-0.045
-0.075
-0.08
-0.11
-0.08
-0.095
-0.095
-0.1
-0.09
-0.06
-0.055
-0.075
-0.095
-0.16
-0.165
-0.17
-0.085
0.005
0.005
0.0
0.0
-0.035
-0.06
-0.075
-0.065
-0.11
-0.115
-0.13
-0.14
-0.135
-0.13
-0.12
-0.14
-0.13
-0.14
-0.135
-0.14
-0.135
-0.125
-0.12
-0.145
-0.13
-0.155
-0.135
-0.14
-0.135
-0.15
-0.09
-0.08
-0.01
0.015
0.055
-0.015
-0.02
-0.14
-0.135
-0.17
-0.145
-0.185
-0.17
-0.255
-0.425
-0.275
0.715
2.46
1.24
0.045
-0.145
-0.1
-0.125
-0.17
-0.12
-0.16
-0.14
-0.165
-0.11
-0.13
-0.095
-0.1
-0.085
-0.1
-0.065
-0.08
-0.06
-0.07
-0.08
-0.115
-0.1
-0.125
-0.07
-0.025
0.0
-0.015
-0.03
-0.05
-0.03
-0.055
-0.07
-0.09
-0.105
-0.09
-0.085
-0.085
-0.1
-0.115
-0.12
-0.115
-0.145
-0.12
-0.125
-0.115
-0.14
-0.14
-0.145
-0.135
-0.17
-0.15
-0.145
-0.14
-0.14
-0.075
-0.095
-0.005
0.015
0.035
-0.045
-0.065
-0.14
-0.125
-0.16
-0.135
-0.18
-0.16
-0.28
-0.365
-0.005
1.335
2.63
0.94
-0.025
-0.025
-0.03
-0.09
-0.14
-0.14
-0.175
-0.155
-0.21
-0.145
-0.135
-0.15
-0.165
-0.135
-0.125
-0.1
-0.095
-0.1
-0.11
-0.12
-0.145
-0.15
-0.16
-0.105
-0.055
-0.04
-0.05
-0.06
-0.085
-0.09
-0.11
-0.105
-0.13
-0.115
-0.12
-0.13
-0.15
-0.13
-0.125
-0.175
-0.185
-0.17
-0.165
-0.14
-0.135
-0.105
-0.16
-0.195
-0.195
-0.085
-0.135
-0.1
-0.12
-0.095
-0.135
-0.055
0.0
0.115
0.06
0.075
-0.075
-0.115
-0.135
-0.135
-0.14
-0.055
-0.175
-0.29
-0.18
0.87
2.61
1.305
0.155
-0.09
0.06
0.03
-0.015
0.03
-0.015
0.015
0.05
0.135
0.035
0.075
0.08
0.065
0.06
0.02
0.005
0.055
0.0
0.0
-0.065
-0.025
-0.085
-0.01
-0.115
0.0
-0.045
0.0
0.11
0.055
0.025
-0.03
-0.055
-0.15
-0.18
-0.175
-0.13
-0.125
-0.15
-0.12
-0.1
-0.055
-0.05
-0.08
-0.08
0.0
-0.005
-0.005
0.02
-0.005
0.0
0.04
0.025
0.095
0.055
0.16
0.195
0.205
0.115
0.145
0.0
0.005
-0.03
0.0
-0.02
-0.05
-0.15
-0.255
0.08
1.255
2.655
1.015
0.03
-0.015
0.0
-0.01
-0.075
-0.08
-0.065
-0.035
-0.035
-0.03
-0.01
0.01
0.01
0.035
0.035
0.0
0.02
-0.025
-0.025
-0.08
-0.09
-0.17
-0.1
-0.11
-0.055
-0.075
-0.035
-0.095
-0.03
-0.065
0.0
-0.11
0.0
-0.11
-0.05
-0.19
-0.06
-0.175
0.07
0.0
0.12
0.125
0.16
0.165
0.03
0.055
-0.08
-0.01
-0.09
-0.04
-0.11
-0.02
-0.02
-0.005
0.03
0.145
0.125
0.125
0.08
0.035
-0.005
0.035
-0.02
-0.015
-0.045
-0.06
-0.27
-0.23
0.485
2.19
1.775
0.485
-0.075
-0.03
-0.035
-0.11
-0.105
-0.075
-0.09
-0.11
-0.095
-0.075
-0.03
-0.055
-0.045
-0.01
0.0
-0.02
0.02
-0.01
0.0
-0.02
0.0
-0.02
0.0
0.005
0.095
0.025
0.015
0.0
-0.005
-0.02
-0.05
-0.04
-0.025
-0.06
-0.025
-0.06
-0.04
-0.105
-0.05
-0.04
-0.07
-0.05
-0.08
-0.065
-0.065
-0.09
-0.085
-0.11
-0.1
-0.1
-0.06
-0.09
-0.005
-0.04
0.01
0.04
0.08
0.01
0.035
-0.125
-0.07
-0.15
-0.115
-0.115
-0.13
-0.2
-0.32
-0.105
1.07
2.685
1.115
0.045
-0.085
-0.03
-0.045
-0.11
-0.085
-0.11
-0.06
-0.09
-0.05
-0.065
-0.04
-0.045
-0.02
-0.015
0.01
0.005
0.03
0.005
0.01
-0.035
-0.005
-0.025
0.005
0.035
0.075
0.04
0.025
-0.005
-0.04
-0.045
-0.025
-0.03
-0.03
-0.035
-0.04
-0.055
-0.05
-0.03
-0.05
-0.065
-0.06
-0.06
-0.085
-0.06
-0.075
-0.065
-0.065
-0.075
-0.085
-0.075
-0.08
-0.02
-0.03
-0.005
0.035
0.11
0.055
0.01
-0.065
-0.07
-0.125
-0.105
-0.12
-0.095
-0.145
-0.32
-0.24
0.585
2.32
1.7
0.305
-0.075
-0.015
-0.045
-0.095
-0.06
-0.09
-0.065
-0.075
-0.06
-0.045
-0.055
-0.05
-0.02
-0.035
-0.015
-0.01
0.0
0.0
0.0
-0.055
-0.06
-0.06
-0.01
0.03
0.045
0.035
0.025
0.0
-0.01
-0.015
-0.025
-0.025
-0.02
-0.045
-0.025
-0.035
-0.02
-0.04
-0.05
-0.06
-0.04
-0.065
-0.065
-0.075
-0.08
-0.08
-0.07
-0.075
-0.07
-0.11
-0.075
-0.07
0.0
-0.01
0.065
0.07
0.1
0.025
0.005
-0.085
-0.075
-0.105
-0.09
-0.13
-0.105
-0.235
-0.325
0.07
1.375
2.61
0.83
-0.07
-0.045
-0.025
-0.065
-0.1
-0.08
-0.085
-0.065
-0.08
-0.06
-0.06
-0.03
-0.045
-0.02
-0.03
0.005
0.0
0.01
-0.025
0.02
-0.03
-0.07
-0.03
0.025
0.03
0.055
0.025
0.015
0.0
0.005
-0.005
0.0
-0.035
-0.015
-0.055
-0.075
-0.06
-0.045
-0.05
-0.05
-0.055
0.01
-0.055
-0.05
-0.035
-0.03
-0.045
-0.03
-0.04
-0.045
-0.075
-0.05
-0.075
0.02
-0.005
0.08
0.1
0.115
0.025
0.015
-0.065
-0.06
-0.125
-0.07
-0.11
-0.09
-0.2
-0.33
0.0
1.225
2.69
1.01
-0.035
-0.055
-0.03
-0.055
-0.1
-0.07
-0.09
-0.065
-0.085
-0.05
-0.07
-0.025
-0.045
-0.005
0.0
0.025
0.01
0.015
-0.025
-0.035
-0.045
-0.025
-0.04
0.03
0.05
0.075
0.065
0.03
0.015
0.005
-0.005
0.0
-0.01
-0.035
-0.03
-0.01
-0.04
-0.025
-0.025
-0.025
-0.06
-0.045
-0.04
-0.055
-0.08
-0.06
-0.05
-0.06
-0.08
-0.055
-0.09
-0.055
-0.075
-0.005
-0.03
0.055
0.085
0.105
0.025
0.01
-0.09
-0.08
-0.115
-0.085
-0.115
-0.085
-0.185
-0.3
-0.06
1.04
2.615
1.17
0.015
-0.095
-0.035
-0.04
-0.105
-0.07
-0.095
-0.065
-0.09
-0.06
-0.05
-0.025
-0.03
0.0
-0.005
0.025
0.0
0.03
0.035
0.0
-0.04
-0.045
-0.055
-0.01
0.01
0.04
0.04
0.015
0.0
-0.005
-0.015
0.0
0.0
-0.02
-0.025
-0.015
-0.03
-0.03
-0.035
-0.05
-0.05
-0.05
-0.06
-0.07
-0.07
-0.07
-0.065
-0.08
-0.085
-0.085
-0.08
-0.09
-0.085
-0.055
-0.02
-0.005
0.065
0.1
0.08
0.01
-0.02
-0.11
-0.09
-0.1
-0.11
-0.12
-0.09
-0.275
-0.305
0.215
1.595
2.265
0.745
-0.08
-0.08
-0.035
-0.105
-0.105
-0.085
-0.1
-0.07
-0.075
-0.06
-0.06
-0.045
-0.035
-0.02
-0.005
0.01
0.015
0.025
0.005
-0.005
-0.03
-0.03
-0.04
0.0
0.015
0.025
0.025
0.015
0.0
-0.02
-0.015
-0.01
-0.025
-0.03
-0.025
-0.015
-0.03
-0.03
-0.05
-0.05
-0.05
-0.055
-0.06
-0.065
-0.055
-0.06
-0.08
-0.065
-0.075
-0.08
-0.07
-0.07
-0.075
-0.03
-0.01
0.015
0.075
0.12
0.065
0.015
-0.04
-0.085
-0.1
-0.09
-0.095
-0.105
-0.11
-0.29
-0.285
0.37
1.92
2.02
0.58
-0.065
-0.07
-0.04
-0.09
-0.1
-0.095
-0.085
-0.09
-0.075
-0.05
-0.05
-0.025
-0.01
-0.015
0.0
0.0
0.02
0.035
0.025
0.005
-0.005
-0.03
-0.01
0.0
0.0
0.0
0.005
0.0
-0.01
-0.02
-0.045
-0.03
-0.035
-0.045
-0.035
-0.04
-0.055
-0.06
-0.055
-0.065
-0.07
-0.07
-0.075
-0.06
-0.06
-0.08
-0.085
-0.08
-0.08
-0.08
-0.07
-0.085
-0.065
-0.035
-0.005
0.02
0.08
0.1
0.065
0.025
-0.035
-0.095
-0.08
-0.105
-0.11
-0.105
-0.09
-0.285
-0.315
0.255
1.75
2.19
0.74
-0.025
-0.05
-0.055
-0.065
-0.055
-0.085
-0.105
-0.08
-0.11
-0.1
-0.065
-0.035
-0.025
-0.015
-0.02
0.005
0.01
0.03
0.01
0.015
0.005
-0.025
-0.01
0.0
0.02
0.0
-0.015
-0.015
-0.025
-0.04
-0.045
-0.045
-0.05
-0.03
-0.035
-0.05
-0.03
-0.055
-0.065
-0.065
-0.06
-0.075
-0.07
-0.065
-0.07
-0.085
-0.085
-0.085
-0.095
-0.11
-0.09
-0.11
-0.07
-0.07
-0.02
-0.045
0.045
0.065
0.09
0.0
0.01
-0.09
-0.09
-0.12
-0.115
-0.135
-0.105
-0.175
-0.345
-0.255
