signal
0.03
0.01
-0.02
-0.09
-0.115
-0.13
-0.145
-0.14
-0.15
-0.115
-0.12
0.195
0.755
0.825
0.48
-0.19
-0.4
-0.4
-0.29
-0.16
-0.145
-0.125
-0.125
-0.11
-0.12
-0.075
-0.095
-0.065
-0.075
-0.08
-0.04
-0.05
-0.025
-0.005
0.01
0.065
0.08
0.105
0.16
0.215
0.23
0.265
0.29
0.32
0.32
0.31
0.225
0.16
0.105
0.055
0.02
-0.01
0.0
-0.005
0.015
-0.015
-0.005
-0.015
-0.01
0.0
0.0
0.0
-0.005
-0.005
-0.005
-0.035
-0.025
-0.03
-0.05
-0.05
-0.055
-0.055
-0.07
-0.035
-0.065
-0.06
-0.07
-0.08
-0.085
-0.095
-0.055
-0.07
-0.09
-0.04
0.015
0.0
-0.02
0.04
0.075
0.06
0.005
-0.025
-0.09
-0.09
-0.13
-0.13
-0.155
-0.145
-0.095
-0.13
0.02
0.64
1.225
0.725
-0.11
-0.465
-0.41
-0.31
-0.2
-0.145
-0.14
-0.12
-0.115
-0.105
-0.08
-0.075
-0.075
-0.075
-0.065
-0.06
-0.035
-0.03
0.0
0.01
0.045
0.1
0.115
0.15
0.185
0.25
0.275
0.3
0.325
0.34
0.31
0.23
0.18
0.115
0.06
0.015
0.005
0.0
-0.01
-0.025
-0.015
-0.03
-0.035
-0.025
-0.005
-0.025
-0.025
-0.04
-0.015
-0.02
-0.04
-0.05
-0.055
-0.05
-0.05
-0.055
-0.065
-0.06
-0.07
-0.075
-0.07
-0.07
-0.075
-0.075
-0.08
-0.085
-0.085
-0.085
-0.02
0.015
0.02
0.02
0.045
0.075
0.04
0.0
-0.03
-0.065
-0.1
-0.13
-0.125
-0.12
-0.135
-0.135
-0.135
0.025
0.655
1.13
0.69
-0.175
-0.48
-0.425
-0.29
-0.15
-0.13
-0.13
-0.125
-0.12
-0.115
-0.105
-0.105
-0.09
-0.085
-0.08
-0.065
-0.05
-0.035
-0.02
0.005
0.03
0.065
0.1
0.13
0.17
0.21
0.24
0.28
0.305
0.31
0.275
0.225
0.16
0.11
0.055
0.01
-0.005
-0.015
-0.02
-0.03
-0.03
-0.03
-0.025
-0.025
-0.015
-0.01
-0.02
-0.02
-0.025
-0.025
-0.035
-0.04
-0.045
-0.055
-0.055
-0.06
-0.06
-0.07
-0.075
-0.085
-0.08
-0.08
-0.085
-0.085
-0.085
-0.085
-0.09
-0.09
-0.045
0.0
0.01
0.015
0.045
0.075
0.055
-0.01
-0.025
-0.06
-0.095
-0.125
-0.14
-0.15
-0.135
-0.14
-0.125
-0.08
0.46
1.18
0.71
-0.03
-0.46
-0.46
-0.325
-0.2
-0.115
-0.125
-0.12
-0.12
-0.115
-0.11
-0.1
-0.085
-0.085
-0.075
-0.06
-0.05
-0.035
-0.02
0.005
0.035
0.065
0.095
0.125
0.165
0.205
0.24
0.265
0.295
0.31
0.29
0.245
0.185
0.12
0.065
0.02
0.0
0.0
-0.015
-0.025
-0.03
-0.02
-0.02
-0.015
-0.005
-0.015
-0.015
-0.005
-0.015
-0.025
-0.03
-0.04
-0.045
-0.055
-0.055
-0.06
-0.065
-0.07
-0.08
-0.075
-0.08
-0.09
-0.085
-0.08
-0.09
-0.095
-0.095
-0.09
-0.085
-0.04
-0.01
0.0
0.02
0.045
0.07
0.04
-0.01
-0.03
-0.08
-0.1
-0.135
-0.155
-0.145
-0.14
-0.145
-0.14
-0.04
0.515
1.115
0.62
-0.125
-0.475
-0.46
-0.315
-0.19
-0.13
-0.135
-0.125
-0.125
-0.12
-0.105
-0.095
-0.095
-0.075
-0.08
-0.07
-0.055
-0.025
0.0
0.005
0.03
0.065
0.095
0.13
0.18
0.205
0.24
0.27
0.305
0.31
0.285
0.245
0.185
0.135
0.08
0.03
0.0
-0.02
-0.02
-0.025
-0.01
-0.025
-0.02
-0.015
-0.015
-0.015
-0.01
-0.03
-0.03
-0.03
-0.05
-0.04
-0.06
-0.07
-0.06
-0.065
-0.075
-0.08
-0.075
-0.075
-0.085
-0.09
-0.09
-0.11
-0.09
-0.09
-0.095
-0.09
-0.065
-0.03
-0.015
0.005
0.055
0.04
0.06
-0.005
-0.035
-0.055
-0.11
-0.11
-0.13
-0.14
-0.125
-0.14
-0.115
-0.095
0.38
1.065
0.675
0.15
-0.31
-0.4
-0.325
-0.25
-0.12
-0.12
-0.11
-0.13
-0.1
-0.1
-0.095
-0.095
-0.085
-0.075
-0.07
-0.045
-0.035
-0.015
0.015
0.02
0.06
0.07
0.11
0.155
0.185
0.235
0.275
0.315
0.335
0.295
0.255
0.205
0.15
0.075
0.05
0.015
0.015
-0.005
-0.015
0.0
0.0
0.005
0.0
-0.015
-0.005
-0.01
0.0
0.0
-0.03
-0.03
-0.025
-0.025
-0.045
-0.05
-0.06
-0.045
-0.065
-0.06
-0.065
-0.075
-0.07
-0.065
-0.08
-0.085
-0.08
-0.085
-0.085
-0.065
-0.055
-0.02
0.0
0.045
0.05
0.05
0.01
-0.035
-0.055
-0.08
-0.105
-0.135
-0.14
-0.12
-0.145
-0.125
-0.12
0.33
1.08
0.77
0.235
-0.295
-0.395
-0.345
-0.275
-0.12
-0.145
-0.125
-0.12
-0.105
-0.11
-0.1
-0.1
-0.085
-0.08
-0.065
-0.05
-0.045
-0.025
0.0
0.02
0.05
0.08
0.11
0.155
0.19
0.225
0.26
0.285
0.305
0.29
0.26
0.2
0.135
0.085
0.04
0.015
-0.005
-0.01
-0.02
-0.025
-0.025
-0.02
-0.025
-0.005
-0.005
-0.01
-0.015
-0.02
-0.015
-0.02
-0.03
-0.04
-0.05
-0.055
-0.055
-0.065
-0.065
-0.065
-0.065
-0.075
-0.075
-0.075
-0.07
-0.085
-0.08
-0.08
-0.085
-0.09
-0.085
-0.07
-0.025
0.005
0.025
0.05
0.07
0.025
-0.015
-0.06
-0.07
-0.095
-0.125
-0.14
-0.135
-0.135
-0.13
-0.135
0.11
0.745
0.98
0.57
-0.22
-0.45
-0.405
-0.275
-0.12
-0.12
-0.115
-0.105
-0.105
-0.095
-0.085
-0.09
-0.08
-0.075
-0.055
-0.045
-0.035
-0.02
0.005
0.02
0.045
0.075
0.115
0.145
0.185
0.22
0.25
0.285
0.305
0.305
0.28
0.225
0.165
0.105
0.055
0.02
-0.005
-0.02
-0.025
-0.03
-0.02
-0.015
-0.02
-0.01
-0.01
-0.005
-0.01
-0.01
-0.02
-0.025
-0.04
-0.035
-0.04
-0.045
-0.05
-0.055
-0.065
-0.06
-0.07
-0.07
-0.07
-0.08
-0.085
-0.09
-0.09
-0.08
-0.08
-0.085
-0.085
-0.06
-0.03
0.005
0.01
0.04
0.075
0.02
-0.015
-0.06
-0.065
-0.11
-0.135
-0.145
-0.15
-0.15
-0.145
-0.135
0.03
0.625
1.01
0.58
-0.205
-0.465
-0.435
-0.3
-0.145
-0.125
-0.125
-0.12
-0.115
-0.11
-0.11
-0.105
-0.09
-0.085
-0.075
-0.05
-0.04
-0.03
-0.005
0.01
0.04
0.065
0.115
0.14
0.185
0.225
0.26
0.285
0.305
0.31
0.28
0.235
0.175
0.115
0.055
0.02
-0.005
-0.02
-0.02
-0.025
-0.025
-0.025
-0.02
-0.02
-0.005
-0.01
0.0
-0.005
-0.005
-0.02
-0.03
-0.03
-0.04
-0.05
-0.05
-0.05
-0.055
-0.065
-0.065
-0.07
-0.065
-0.075
-0.09
-0.08
-0.07
-0.08
-0.085
-0.085
-0.085
-0.075
-0.03
-0.005
0.015
0.05
0.085
0.025
-0.015
-0.05
-0.065
-0.095
-0.13
-0.135
-0.12
-0.135
-0.13
-0.12
0.15
0.715
0.855
0.535
-0.15
-0.415
-0.39
-0.295
-0.145
-0.14
-0.14
-0.125
-0.12
-0.115
-0.115
-0.105
-0.09
-0.09
-0.07
-0.055
-0.045
-0.025
-0.01
0.02
0.025
0.065
0.105
0.13
0.17
0.22
0.25
0.28
0.315
0.305
0.28
0.21
0.155
0.095
0.045
0.015
-0.01
-0.01
-0.025
-0.03
-0.035
-0.035
-0.015
-0.01
-0.02
-0.015
-0.015
-0.02
-0.03
-0.02
-0.03
-0.04
-0.045
-0.07
-0.05
-0.07
-0.06
-0.065
-0.065
-0.085
-0.075
-0.075
-0.09
-0.065
-0.075
-0.09
-0.1
-0.075
-0.08
-0.065
-0.02
-0.005
0.035
0.07
0.025
-0.025
-0.025
-0.07
-0.115
-0.11
-0.155
-0.145
-0.125
-0.13
-0.135
0.025
0.63
1.075
0.69
-0.06
-0.43
-0.395
-0.285
-0.175
-0.14
-0.12
-0.11
-0.12
-0.12
-0.095
-0.085
-0.085
-0.07
-0.08
-0.07
-0.045
-0.015
0.0
0.005
0.055
0.08
0.095
0.14
0.18
0.225
0.255
0.28
0.305
0.31
0.28
0.24
0.16
0.09
0.045
-0.005
-0.015
-0.035
-0.03
-0.02
-0.025
-0.015
-0.03
-0.03
-0.02
-0.02
-0.025
-0.03
-0.025
-0.035
-0.04
-0.045
-0.05
-0.06
-0.06
-0.075
-0.06
-0.065
-0.075
-0.08
-0.075
-0.08
-0.075
-0.09
-0.09
-0.095
-0.095
-0.1
-0.105
-0.08
-0.02
0.0
0.03
0.035
0.04
0.0
-0.025
-0.055
-0.08
-0.115
-0.13
-0.135
-0.13
-0.145
-0.12
-0.135
0.31
1.045
0.815
0.3
-0.305
-0.41
-0.335
-0.235
-0.1
-0.12
-0.105
-0.11
-0.105
-0.115
-0.095
-0.09
-0.075
-0.075
-0.065
-0.06
-0.03
-0.015
0.0
0.03
0.065
0.085
0.125
0.165
0.2
0.23
0.27
0.295
0.315
0.305
0.27
0.215
0.15
0.09
0.04
0.005
0.0
-0.015
-0.02
-0.02
-0.02
-0.02
-0.025
-0.02
-0.01
-0.01
-0.02
-0.02
-0.02
-0.025
-0.035
-0.04
-0.05
-0.055
-0.055
-0.07
-0.07
-0.075
-0.07
-0.075
-0.08
-0.08
-0.075
-0.085
-0.08
-0.09
-0.08
-0.09
-0.085
-0.07
-0.01
0.01
0.04
0.045
0.06
0.01
-0.01
-0.05
-0.07
-0.105
-0.13
-0.145
-0.13
-0.135
-0.12
-0.12
0.245
0.935
0.825
0.375
-0.3
-0.445
-0.38
-0.265
-0.11
-0.13
-0.12
-0.125
-0.11
-0.115
-0.1
-0.1
-0.09
-0.09
-0.07
-0.065
-0.045
-0.025
0.005
0.015
0.045
0.075
0.12
0.155
0.195
0.23
0.265
0.295
0.315
0.305
0.28
0.225
0.15
0.09
0.04
0.005
-0.01
-0.02
-0.025
-0.03
-0.025
-0.015
-0.01
-0.01
0.0
0.0
-0.005
-0.01
-0.015
-0.02
-0.02
-0.04
-0.06
-0.055
-0.05
-0.065
-0.075
-0.06
-0.07
-0.075
-0.09
-0.08
-0.07
-0.07
-0.08
-0.08
-0.08
-0.09
-0.085
-0.055
-0.03
0.005
0.035
0.055
0.085
0.035
-0.005
-0.045
-0.055
-0.095
-0.11
-0.13
-0.13
-0.125
-0.12
-0.115
0.08
0.64
0.97
0.6
-0.135
-0.42
-0.395
-0.285
-0.145
-0.12
-0.12
-0.115
-0.095
-0.105
-0.11
-0.095
-0.085
-0.075
-0.06
-0.05
-0.035
-0.03
-0.01
0.02
0.045
0.065
0.11
0.15
0.19
0.235
0.255
0.29
0.305
0.305
0.29
0.25
0.18
0.1
0.05
0.005
-0.01
-0.005
-0.02
-0.02
-0.035
-0.02
-0.015
-0.02
-0.03
-0.02
-0.01
-0.005
-0.005
-0.045
-0.04
-0.04
-0.045
-0.055
-0.055
-0.06
-0.065
-0.075
-0.075
-0.08
-0.06
-0.09
-0.075
-0.1
-0.075
-0.07
-0.085
-0.09
-0.1
-0.065
-0.035
-0.015
0.005
0.035
0.065
0.015
-0.03
-0.055
-0.085
-0.1
-0.13
-0.145
-0.13
-0.14
-0.125
-0.13
0.155
0.83
0.9
0.52
-0.15
-0.4
-0.38
-0.285
-0.125
-0.12
-0.115
-0.13
-0.11
-0.11
-0.105
-0.1
-0.085
-0.065
-0.07
-0.05
-0.025
-0.02
0.0
0.02
0.055
0.07
0.11
0.15
0.195
0.23
0.265
0.305
0.325
0.31
0.28
0.235
0.175
0.085
0.045
0.015
0.005
0.0
-0.03
-0.02
-0.015
-0.02
-0.025
-0.025
-0.015
-0.01
-0.02
-0.01
-0.025
-0.025
-0.035
-0.035
-0.04
-0.05
-0.065
-0.075
-0.08
-0.07
-0.07
-0.065
-0.075
-0.07
-0.085
-0.09
-0.095
-0.085
-0.095
-0.085
-0.105
-0.095
-0.075
-0.03
0.0
0.02
0.035
0.065
0.01
-0.025
-0.065
-0.075
-0.1
-0.125
-0.14
-0.125
-0.13
-0.125
-0.135
0.2
0.875
0.895
0.465
-0.25
-0.43
-0.37
-0.265
-0.11
-0.125
-0.11
-0.105
-0.095
-0.095
-0.085
-0.095
-0.075
-0.075
-0.06
-0.055
-0.03
-0.015
0.01
0.02
0.05
0.085
0.12
0.145
0.19
0.225
0.25
0.285
0.31
0.295
0.265
0.205
0.145
0.08
0.035
0.0
-0.015
-0.03
-0.035
-0.035
-0.03
-0.035
-0.03
-0.025
-0.02
-0.02
-0.025
-0.025
-0.03
-0.04
-0.045
-0.055
-0.06
-0.075
-0.075
-0.075
-0.075
-0.08
-0.08
-0.085
-0.08
-0.095
-0.095
-0.095
-0.095
-0.1
-0.095
-0.105
-0.1
-0.105
-0.09
-0.075
-0.015
-0.005
0.035
0.05
0.02
-0.02
-0.055
-0.07
-0.105
-0.135
-0.15
-0.15
-0.135
-0.145
-0.13
-0.065
0.48
1.15
0.685
-0.06
-0.435
-0.43
-0.31
-0.19
-0.115
-0.115
-0.105
-0.11
-0.09
-0.1
-0.09
-0.085
-0.075
-0.07
-0.05
-0.05
-0.025
-0.02
0.005
0.03
0.07
0.09
0.13
0.165
0.205
0.24
0.275
0.3
0.315
0.29
0.25
0.19
0.125
0.07
0.02
0.0
0.0
-0.02
-0.03
-0.025
-0.02
-0.015
-0.015
-0.005
-0.005
-0.005
-0.005
-0.015
-0.01
-0.02
-0.025
-0.03
-0.035
-0.04
-0.04
-0.055
-0.055
-0.055
-0.045
-0.075
-0.055
-0.06
-0.07
-0.075
-0.07
-0.085
-0.06
-0.075
-0.075
-0.05
-0.025
0.0
0.045
0.045
0.09
0.015
-0.01
-0.04
-0.085
-0.1
-0.11
-0.135
-0.12
-0.125
-0.13
-0.125
0.255
0.91
0.73
0.375
-0.24
-0.415
-0.365
-0.29
-0.115
-0.135
-0.12
-0.13
-0.115
-0.13
-0.09
-0.085
-0.095
-0.095
-0.07
-0.055
-0.045
-0.03
-0.005
0.01
0.05
0.09
0.12
0.165
0.205
0.23
0.27
0.3
0.345
0.33
0.3
0.24
0.155
0.085
0.045
0.015
0.02
-0.015
-0.03
-0.01
0.005
-0.015
-0.01
-0.005
0.0
-0.02
0.0
-0.005
-0.02
-0.015
-0.025
-0.015
-0.04
-0.04
-0.05
-0.07
-0.065
-0.03
-0.065
-0.075
-0.07
-0.075
-0.09
-0.07
-0.09
-0.085
-0.075
-0.105
-0.08
-0.07
-0.005
0.0
0.035
0.075
0.02
-0.025
-0.035
-0.05
-0.095
-0.125
-0.13
-0.135
-0.135
-0.145
-0.11
0.045
0.645
1.06
0.67
-0.065
-0.415
-0.395
-0.295
-0.16
-0.115
-0.125
-0.115
-0.11
-0.1
-0.1
-0.105
-0.09
-0.075
-0.06
-0.06
-0.04
0.0
-0.005
0.005
0.035
0.065
0.105
0.15
0.19
0.24
0.255
0.3
0.33
0.31
0.275
0.225
0.155
0.09
0.04
0.0
0.0
-0.025
-0.03
-0.025
-0.025
-0.03
-0.04
-0.04
-0.03
-0.01
-0.025
-0.03
-0.025
-0.03
-0.05
-0.05
-0.055
-0.055
-0.06
-0.06
-0.06
-0.065
-0.07
-0.065
-0.07
-0.08
-0.085
-0.07
-0.085
-0.085
-0.09
-0.085
-0.095
-0.085
-0.075
-0.02
0.0
0.035
0.035
0.035
-0.02
-0.045
-0.065
-0.095
-0.125
-0.145
-0.16
-0.15
-0.155
-0.14
-0.12
0.405
1.165
0.765
0.08
-0.4
-0.44
-0.325
-0.22
-0.115
-0.14
-0.125
-0.13
-0.115
-0.115
-0.1
-0.105
-0.095
-0.095
-0.065
-0.055
-0.035
-0.025
0.005
0.025
0.065
0.095
0.145
0.175
0.225
0.255
0.285
0.315
0.325
0.305
0.265
0.22
0.145
0.08
0.035
0.01
0.0
-0.01
-0.02
-0.015
-0.01
-0.01
-0.015
-0.01
-0.005
-0.005
-0.01
-0.015
-0.015
-0.025
-0.03
-0.04
-0.05
-0.05
-0.055
-0.06
-0.06
-0.07
-0.065
-0.075
-0.075
-0.08
-0.085
-0.08
-0.09
-0.09
-0.09
-0.09
-0.095
-0.095
-0.08
-0.055
0.0
0.01
0.035
0.07
0.02
-0.01
-0.06
-0.065
-0.095
-0.13
-0.14
-0.14
-0.14
-0.14
-0.13
0.055
0.665
1.06
0.64
-0.19
-0.465
-0.435
-0.285
-0.13
-0.125
-0.12
-0.12
-0.11
-0.11
-0.105
-0.1
-0.09
-0.08
-0.07
-0.06
-0.045
-0.025
-0.005
0.005
0.035
0.07
0.105
0.145
0.185
0.225
0.265
0.29
0.315
0.32
0.295
0.245
0.175
0.12
0.065
0.03
0.0
-0.01
-0.015
-0.015
-0.015
-0.01
-0.005
-0.005
0.0
0.0
0.005
0.0
-0.005
-0.01
-0.02
-0.025
-0.03
-0.035
-0.045
-0.055
-0.06
-0.06
-0.06
-0.06
-0.06
-0.065
-0.075
-0.07
-0.07
-0.08
-0.08
-0.085
-0.08
-0.085
-0.07
-0.065
-0.005
0.01
0.05
0.06
0.07
0.0
-0.025
-0.045
-0.085
-0.11
-0.13
-0.13
-0.13
-0.14
-0.125
-0.08
0.435
1.125
0.665
0.02
-0.415
-0.435
-0.325
-0.22
-0.105
-0.13
-0.115
-0.125
-0.105
-0.1
-0.095
-0.09
-0.075
-0.06
-0.05
-0.05
-0.025
-0.015
0.0
0.025
0.07
0.105
0.15
0.175
0.21
0.24
0.295
0.325
0.325
0.315
0.275
0.22
0.16
0.1
0.045
0.01
-0.005
-0.015
-0.02
-0.02
-0.01
-0.005
-0.015
-0.015
-0.015
-0.01
-0.025
-0.01
0.005
-0.015
-0.045
-0.05
-0.04
-0.06
-0.055
-0.045
-0.07
-0.065
-0.085
-0.075
-0.075
-0.07
-0.06
-0.08
-0.09
-0.085
-0.09
-0.08
-0.105
-0.085
-0.065
-0.01
-0.005
0.03
0.055
0.065
-0.01
-0.04
-0.05
-0.09
-0.12
-0.135
-0.14
-0.125
-0.125
-0.125
-0.015
0.535
1.12
0.7
-0.015
-0.41
-0.405
-0.295
-0.175
-0.125
-0.125
-0.125
-0.105
-0.105
-0.105
-0.1
-0.085
-0.075
-0.055
-0.055
-0.035
-0.02
-0.01
0.035
0.035
0.095
0.13
0.155
0.18
0.255
0.27
0.325
0.355
0.355
0.32
0.295
0.21
0.125
0.08
0.055
0.02
0.03
0.0
-0.015
0.0
-0.01
0.005
0.0
0.005
-0.015
-0.01
0.0
0.0
-0.02
-0.005
-0.035
-0.05
-0.055
-0.04
-0.04
-0.065
-0.04
-0.05
-0.065
-0.1
-0.095
-0.075
-0.075
-0.075
-0.095
-0.1
-0.085
-0.105
-0.105
-0.085
-0.09
-0.07
-0.005
0.005
0.05
0.045
-0.035
-0.03
-0.07
-0.09
-0.125
-0.14
-0.14
-0.12
-0.135
-0.15
-0.07
0.515
1.31
0.865
0.015
-0.41
-0.405
-0.325
-0.215
-0.1
-0.12
-0.115
-0.12
-0.105
-0.09
-0.085
-0.09
-0.07
-0.06
-0.045
-0.045
-0.015
0.005
0.015
0.04
0.075
0.105
0.135
0.18
0.22
0.26
0.295
0.32
0.325
0.31
0.255
0.205
0.135
0.07
0.03
0.005
-0.01
-0.025
-0.015
-0.015
-0.025
-0.02
-0.02
-0.015
-0.01
-0.005
-0.015
-0.01
-0.02
-0.02
-0.04
-0.035
-0.045
-0.045
-0.055
-0.06
-0.055
-0.065
-0.08
-0.08
-0.075
-0.075
-0.085
-0.085
-0.085
-0.09
-0.095
-0.085
-0.1
-0.085
-0.075
-0.055
-0.01
0.01
0.03
0.07
0.0
-0.02
-0.065
-0.08
-0.115
-0.135
-0.14
-0.135
-0.145
-0.135
-0.145
0.265
0.995
0.875
0.365
-0.32
-0.45
-0.36
-0.245
-0.11
-0.13
-0.12
-0.125
-0.1
-0.11
-0.1
-0.105
-0.09
-0.08
-0.07
-0.07
-0.035
-0.025
0.0
0.015
0.055
0.08
0.125
0.155
0.19
0.23
0.27
0.29
0.315
0.305
0.275
0.21
0.15
0.085
0.035
0.005
-0.005
-0.025
-0.03
-0.035
-0.025
-0.025
-0.015
-0.01
-0.01
-0.005
-0.005
-0.01
-0.015
-0.02
-0.03
-0.03
-0.04
-0.045
-0.05
-0.055
-0.06
-0.06
-0.07
-0.07
-0.075
-0.07
-0.075
-0.07
-0.08
-0.08
-0.085
-0.075
-0.08
-0.08
-0.075
-0.035
0.0
0.015
0.035
0.08
0.015
-0.015
-0.06
-0.08
-0.105
-0.13
-0.15
-0.14
-0.15
-0.135
-0.14
0.205
0.89
0.855
0.395
-0.315
-0.46
-0.395
-0.27
-0.12
-0.125
-0.12
-0.12
-0.11
-0.115
-0.1
-0.1
-0.085
-0.09
-0.07
-0.06
-0.03
-0.025
0.0
0.015
0.045
0.08
0.115
0.155
0.2
0.235
0.275
0.3
0.32
0.315
0.285
0.215
0.16
0.1
0.045
0.02
0.0
-0.02
-0.025
-0.02
-0.02
-0.02
-0.02
0.0
-0.015
-0.005
0.005
-0.01
-0.015
-0.005
-0.025
-0.025
-0.035
-0.03
-0.03
-0.045
-0.05
-0.05
-0.045
-0.06
-0.06
-0.06
-0.06
-0.055
-0.08
-0.075
-0.075
-0.07
-0.085
-0.075
-0.075
-0.01
0.005
0.05
0.065
0.075
0.0
-0.04
-0.06
-0.095
-0.1
-0.13
-0.13
-0.12
-0.145
-0.13
-0.065
0.435
1.1
0.68
0.055
-0.375
-0.395
-0.325
-0.245
-0.13
-0.14
-0.115
-0.11
-0.115
-0.12
-0.1
-0.1
-0.09
-0.085
-0.045
-0.06
-0.04
-0.02
0.0
0.02
0.065
0.085
0.12
0.16
0.205
0.255
0.265
0.305
0.325
0.305
0.255
0.175
0.13
0.075
0.03
-0.005
-0.03
-0.035
-0.025
-0.02
-0.015
-0.02
-0.025
-0.02
-0.01
-0.01
-0.04
-0.025
-0.015
-0.02
-0.045
-0.04
-0.055
-0.065
-0.06
-0.06
-0.07
-0.09
-0.07
-0.085
-0.085
-0.09
-0.085
-0.1
-0.095
-0.085
-0.11
-0.09
-0.095
-0.06
-0.03
-0.005
0.025
0.07
0.04
-0.01
-0.055
-0.08
-0.09
-0.14
-0.16
-0.145
-0.125
-0.14
-0.135
0.08
0.68
1.06
0.695
-0.085
-0.42
-0.375
-0.275
-0.155
-0.1
-0.1
-0.115
-0.1
-0.095
-0.09
-0.085
-0.07
-0.065
-0.05
-0.035
-0.02
-0.025
-0.005
0.02
0.05
0.07
0.11
0.155
0.185
0.23
0.265
0.3
0.32
0.315
0.29
0.23
0.17
0.11
0.05
0.02
0.0
-0.015
-0.03
-0.04
-0.035
-0.025
-0.015
-0.025
-0.03
-0.03
-0.02
-0.025
-0.02
-0.03
-0.04
-0.05
-0.05
-0.05
-0.065
-0.075
-0.075
-0.08
-0.085
-0.075
-0.09
-0.08
-0.09
-0.1
-0.11
-0.1
-0.1
-0.095
-0.105
-0.095
-0.09
-0.04
-0.005
0.02
0.04
0.065
-0.01
-0.035
-0.065
-0.105
-0.135
-0.15
-0.15
-0.145
-0.15
-0.13
-0.105
0.41
1.155
0.76
0.09
-0.38
-0.42
-0.32
-0.21
-0.105
-0.12
-0.115
-0.12
-0.105
-0.1
-0.09
-0.09
-0.07
-0.075
-0.06
-0.055
-0.03
-0.02
0.005
0.03
0.06
0.085
0.12
0.16
0.2
0.23
0.275
0.295
0.305
0.29
0.255
0.195
0.125
0.07
0.025
0.0
-0.02
-0.03
-0.025
-0.03
-0.035
-0.03
-0.02
-0.015
-0.01
-0.015
-0.015
-0.02
-0.02
-0.03
-0.035
-0.04
-0.05
-0.06
-0.06
-0.05
-0.065
-0.065
-0.065
-0.065
-0.065
-0.065
-0.075
-0.07
-0.065
-0.07
-0.08
-0.08
-0.075
-0.07
-0.025
0.01
0.035
0.065
0.105
0.035
0.0
-0.045
-0.055
-0.085
-0.11
-0.13
-0.125
-0.13
-0.115
-0.12
0.125
0.75
0.965
0.555
-0.23
-0.45
-0.41
-0.28
-0.115
-0.12
-0.11
-0.11
-0.1
-0.1
-0.09
-0.095
-0.085
-0.075
-0.06
-0.06
-0.04
-0.025
-0.005
0.015
0.04
0.08
0.115
0.15
0.19
0.23
0.255
0.285
0.315
0.32
0.28
0.24
0.175
0.11
0.06
0.015
0.0
-0.015
-0.025
-0.035
-0.03
-0.025
-0.02
-0.02
-0.02
-0.025
-0.025
-0.015
-0.025
-0.03
-0.04
-0.045
-0.04
-0.045
-0.06
-0.055
-0.05
-0.075
-0.075
-0.06
-0.07
-0.07
-0.07
-0.08
-0.08
-0.07
-0.085
-0.065
-0.075
-0.07
-0.035
0.0
0.025
0.07
0.09
0.04
-0.005
-0.06
-0.06
-0.11
-0.12
-0.14
-0.135
-0.135
-0.125
-0.115
0.085
0.645
0.96
0.595
-0.115
-0.41
-0.385
-0.3
-0.15
-0.11
-0.115
-0.11
-0.11
-0.1
-0.11
-0.09
-0.08
-0.075
-0.055
-0.06
-0.04
-0.02
-0.015
0.01
0.03
0.07
0.095
0.155
0.195
0.21
0.245
0.28
0.32
0.32
0.295
0.235
0.185
0.09
0.035
0.0
0.0
-0.02
-0.03
-0.03
-0.035
-0.03
-0.025
-0.015
-0.03
-0.035
-0.025
-0.025
-0.03
-0.025
-0.045
-0.05
-0.07
-0.05
-0.045
-0.065
-0.09
-0.09
-0.085
-0.075
-0.075
-0.08
-0.09
-0.075
-0.11
-0.085
-0.09
-0.08
-0.075
-0.035
-0.015
0.025
0.03
0.035
0.0
-0.03
-0.055
-0.09
-0.095
-0.15
-0.165
-0.145
-0.135
-0.115
-0.135
0.265
0.955
0.805
0.37
-0.235
-0.405
-0.355
-0.285
-0.135
-0.13
-0.125
-0.13
-0.11
-0.115
-0.085
-0.09
-0.085
-0.07
-0.065
-0.05
-0.04
-0.03
0.005
0.02
0.06
0.09
0.14
0.18
0.205
0.245
0.28
0.31
0.335
0.325
0.29
0.225
0.155
0.08
0.04
0.005
0.0
-0.03
-0.025
-0.02
-0.035
-0.03
-0.025
-0.02
-0.035
-0.02
-0.02
-0.025
-0.035
-0.03
-0.035
-0.045
-0.06
-0.06
-0.065
-0.065
-0.07
-0.07
-0.09
-0.08
-0.085
-0.085
-0.1
-0.095
-0.08
-0.095
-0.11
-0.105
-0.075
-0.015
0.0
0.02
0.035
0.045
0.0
-0.03
-0.06
-0.085
-0.115
-0.145
-0.155
-0.135
-0.14
-0.115
-0.14
0.26
0.965
0.81
0.35
-0.27
-0.415
-0.36
-0.27
-0.115
-0.13
-0.11
-0.115
-0.1
-0.1
-0.09
-0.095
-0.08
-0.08
-0.06
-0.05
-0.025
-0.02
0.005
0.025
0.055
0.08
0.13
0.17
0.2
0.23
0.27
0.3
0.32
0.31
0.27
0.225
0.145
0.08
0.025
0.0
-0.02
-0.03
-0.025
-0.025
-0.035
-0.025
-0.02
-0.02
-0.02
-0.015
-0.01
-0.015
-0.015
-0.03
-0.045
-0.05
-0.055
-0.06
-0.055
-0.065
-0.065
-0.075
-0.08
-0.08
-0.085
-0.1
-0.085
-0.09
-0.08
-0.095
-0.09
-0.095
-0.085
-0.07
-0.01
0.0
0.04
0.05
0.035
0.0
-0.03
-0.06
-0.095
-0.115
-0.13
-0.15
-0.14
-0.145
-0.135
-0.12
0.345
1.07
0.73
0.175
-0.365
-0.44
-0.345
-0.245
-0.11
-0.125
-0.11
-0.11
-0.1
-0.105
-0.095
-0.09
-0.07
-0.075
-0.055
-0.045
-0.025
-0.02
0.005
0.035
0.06
0.09
0.13
0.165
0.215
0.245
0.29
0.315
0.32
0.305
0.27
0.195
0.13
0.075
0.025
-0.005
-0.025
-0.03
-0.04
-0.03
-0.035
-0.03
-0.02
-0.01
-0.02
-0.005
-0.005
-0.015
-0.025
-0.03
-0.035
-0.045
-0.055
-0.05
-0.045
-0.065
-0.075
-0.075
-0.07
-0.075
-0.065
-0.08
-0.075
-0.085
-0.075
-0.08
-0.08
-0.105
-0.085
-0.06
-0.005
-0.005
0.04
0.065
0.04
-0.005
-0.055
-0.05
-0.11
-0.125
-0.15
-0.165
-0.145
-0.15
-0.125
-0.06
0.445
1.105
0.665
0.045
-0.385
-0.415
-0.31
-0.22
-0.12
-0.125
-0.115
-0.13
-0.12
-0.12
-0.08
-0.095
-0.08
-0.085
-0.075
-0.05
-0.035
-0.005
0.0
0.02
0.07
0.095
0.145
0.16
0.225
0.25
0.29
0.325
0.325
0.31
0.265
0.205
0.14
0.08
0.015
-0.005
-0.01
-0.01
-0.015
-0.025
-0.035
-0.015
-0.005
-0.015
0.0
-0.005
-0.02
-0.02
-0.005
-0.01
-0.03
-0.03
-0.05
-0.045
-0.05
-0.05
-0.07
-0.07
-0.08
-0.05
-0.08
-0.085
-0.085
-0.08
-0.09
-0.085
-0.085
-0.09
-0.08
-0.03
0.0
0.005
0.01
0.055
0.015
-0.025
-0.06
-0.095
-0.11
-0.145
-0.14
-0.12
-0.14
-0.135
-0.135
0.305
1.055
0.78
0.31
-0.235
-0.405
-0.32
-0.25
-0.105
-0.13
-0.1
-0.125
-0.115
-0.105
-0.09
-0.1
-0.085
-0.07
-0.055
-0.055
-0.045
-0.03
0.005
0.02
0.065
0.095
0.14
0.185
0.22
0.28
0.3
0.315
0.34
0.32
0.295
0.22
0.15
0.085
0.035
0.005
-0.005
-0.02
-0.015
-0.035
-0.02
-0.015
-0.025
-0.02
-0.025
-0.02
-0.02
-0.02
-0.01
-0.03
-0.04
-0.05
-0.045
-0.065
-0.07
-0.08
-0.075
-0.065
-0.075
-0.08
-0.08
-0.08
-0.095
-0.09
-0.095
-0.085
-0.105
-0.095
-0.1
-0.095
-0.065
-0.015
0.0
0.03
0.05
0.035
-0.02
-0.05
-0.055
-0.105
-0.12
-0.14
-0.145
-0.14
-0.14
-0.135
-0.09
0.455
1.2
0.77
0.05
-0.4
-0.435
-0.32
-0.205
-0.11
-0.125
-0.11
-0.11
-0.1
-0.1
-0.085
-0.09
-0.08
-0.075
-0.055
-0.045
-0.035
-0.005
0.01
0.025
0.06
0.095
0.14
0.175
0.21
0.24
0.27
0.305
0.32
0.305
0.26
0.195
0.14
0.075
0.03
0.005
-0.015
-0.025
-0.025
-0.02
-0.025
-0.025
-0.02
-0.02
-0.02
-0.01
-0.015
-0.025
-0.03
-0.04
-0.045
-0.045
-0.055
-0.055
-0.065
-0.075
-0.075
-0.08
-0.085
-0.085
-0.08
-0.085
-0.085
-0.09
-0.085
-0.095
-0.09
-0.09
-0.09
-0.095
-0.09
-0.075
-0.035
0.005
0.015
0.03
0.07
0.01
-0.015
-0.055
-0.075
-0.105
-0.115
-0.14
-0.13
-0.135
-0.12
-0.125
0.2
0.87
0.88
0.465
-0.245
-0.43
-0.37
-0.27
-0.12
-0.13
-0.12
-0.135
-0.12
-0.11
-0.1
-0.115
-0.095
-0.085
-0.06
-0.065
-0.045
-0.025
0.0
0.015
0.055
0.07
0.1
0.15
0.175
0.235
0.265
0.305
0.31
0.325
0.28
0.23
0.175
0.095
0.045
0.005
-0.005
-0.025
-0.01
-0.01
-0.025
-0.025
-0.02
0.0
0.0
-0.01
-0.005
0.0
0.0
-0.025
-0.03
-0.025
-0.045
-0.05
-0.045
-0.055
-0.065
-0.05
-0.075
-0.07
-0.075
-0.07
-0.095
-0.065
-0.09
-0.095
-0.09
-0.09
-0.095
-0.095
-0.08
-0.025
0.005
0.01
0.04
0.06
0.0
-0.02
-0.05
-0.085
-0.105
-0.14
-0.14
-0.125
-0.145
-0.13
-0.11
0.395
1.12
0.765
0.19
-0.33
-0.4
-0.315
-0.24
-0.115
-0.13
-0.125
-0.115
-0.115
-0.11
-0.09
-0.095
-0.075
-0.095
-0.07
-0.045
-0.03
-0.025
0.0
0.015
0.045
0.075
0.13
0.165
0.205
0.235
0.27
0.3
0.32
0.305
0.275
0.215
0.125
0.07
0.035
0.01
0.0
-0.035
-0.025
-0.025
-0.025
-0.035
-0.025
-0.015
-0.025
-0.035
-0.025
-0.04
-0.04
-0.025
-0.045
-0.06
-0.07
-0.065
-0.055
-0.07
-0.08
-0.075
-0.085
-0.085
-0.07
-0.08
-0.105
-0.09
-0.09
-0.08
-0.095
-0.09
-0.085
-0.085
-0.07
-0.015
0.015
0.025
0.045
0.065
0.0
-0.03
-0.055
-0.085
-0.11
-0.125
-0.145
-0.15
-0.145
-0.12
-0.125
0.37
1.11
0.775
0.175
-0.35
-0.42
-0.32
-0.225
-0.11
-0.125
-0.12
-0.12
-0.11
-0.11
-0.095
-0.1
-0.085
-0.085
-0.065
-0.06
-0.035
-0.02
0.0
0.01
0.045
0.08
0.12
0.155
0.18
0.215
0.255
0.285
0.3
0.3
0.265
0.205
0.14
0.08
0.035
0.01
0.0
-0.01
-0.01
-0.015
-0.02
-0.025
-0.02
-0.015
-0.01
-0.01
-0.015
-0.015
-0.02
-0.02
-0.035
-0.04
-0.05
-0.05
-0.05
-0.055
-0.065
-0.07
-0.08
-0.07
-0.075
-0.07
-0.08
-0.08
-0.085
-0.08
-0.09
-0.085
-0.09
-0.085
-0.085
-0.045
-0.005
0.015
0.045
0.08
0.03
-0.015
-0.055
-0.065
-0.09
-0.12
-0.14
-0.135
-0.13
-0.125
-0.125
0.11
0.73
0.995
0.59
-0.2
-0.435
-0.4
-0.285
-0.12
-0.115
-0.11
-0.11
-0.1
-0.1
-0.1
-0.095
-0.09
-0.08
-0.065
-0.065
-0.05
-0.03
0.0
0.005
0.035
0.065
0.095
0.13
0.175
0.205
0.245
0.275
0.305
0.31
0.285
0.24
0.175
0.115
0.07
0.035
0.005
-0.01
-0.01
-0.015
-0.015
-0.015
-0.01
-0.005
-0.005
0.0
-0.005
0.0
-0.005
-0.02
-0.03
-0.04
-0.045
-0.04
-0.05
-0.06
-0.05
-0.055
-0.06
-0.07
-0.07
-0.07
-0.075
-0.085
-0.075
-0.08
-0.085
-0.085
-0.075
-0.085
-0.085
-0.055
-0.01
0.005
0.06
0.08
0.04
0.005
-0.035
-0.055
-0.1
-0.105
-0.13
-0.14
-0.13
-0.125
-0.125
0.0
0.535
1.09
0.67
-0.075
-0.42
-0.42
-0.295
-0.18
-0.115
-0.12
-0.11
-0.105
-0.105
-0.1
-0.085
-0.09
-0.085
-0.075
-0.045
-0.035
-0.025
-0.015
0.0
0.04
0.075
0.105
0.145
0.165
0.215
0.25
0.29
0.3
0.315
0.31
0.27
0.205
0.145
0.08
0.035
0.0
0.01
-0.005
-0.015
-0.015
-0.005
0.005
-0.005
-0.005
0.0
0.0
-0.005
-0.005
-0.02
-0.025
-0.035
-0.03
-0.04
-0.045
-0.05
-0.055
-0.06
-0.07
-0.07
-0.06
-0.05
-0.085
-0.08
-0.085
-0.085
-0.095
-0.085
-0.1
-0.085
-0.06
0.0
0.0
0.045
0.045
0.025
0.0
-0.025
-0.035
-0.095
-0.125
-0.13
-0.125
-0.13
-0.15
-0.125
-0.085
0.41
1.125
0.72
0.105
-0.335
-0.36
-0.31
-0.25
-0.115
-0.115
-0.12
-0.135
-0.095
-0.1
-0.09
-0.1
-0.075
-0.085
-0.05
-0.06
-0.03
-0.02
0.0
0.025
0.06
0.095
0.135
0.17
0.205
0.25
0.28
0.32
0.33
0.315
0.27
0.215
0.135
0.085
0.045
0.015
0.005
0.0
-0.01
-0.01
-0.015
-0.01
0.0
0.0
0.0
-0.01
-0.005
-0.01
-0.015
-0.03
-0.03
-0.04
-0.035
-0.055
-0.05
-0.065
-0.06
-0.07
-0.065
-0.075
-0.075
-0.08
-0.075
-0.095
-0.085
-0.09
-0.09
-0.095
-0.075
-0.03
-0.01
0.0
0.035
0.03
0.035
-0.005
-0.035
-0.06
-0.09
-0.12
-0.14
-0.145
-0.13
-0.14
-0.125
-0.11
0.385
1.125
0.75
0.125
-0.355
-0.405
-0.325
-0.235
-0.11
-0.125
-0.11
-0.115
-0.095
-0.095
-0.09
-0.085
-0.075
-0.075
-0.06
-0.05
-0.035
-0.02
0.005
0.02
0.05
0.075
0.12
0.155
0.2
0.235
0.265
0.29
0.31
0.305
0.265
0.205
0.145
0.09
0.04
0.01
-0.01
-0.01
-0.01
-0.01
-0.005
-0.015
-0.015
-0.015
0.0
-0.005
-0.005
-0.015
-0.02
-0.025
-0.03
-0.03
-0.035
-0.045
-0.055
-0.055
-0.06
-0.065
-0.065
-0.065
-0.07
-0.07
-0.07
-0.075
-0.075
-0.08
-0.085
-0.085
-0.085
-0.03
0.0
0.005
0.02
0.055
0.07
0.045
0.0
-0.01
-0.055
-0.08
-0.115
-0.13
-0.13
-0.125
-0.13
-0.115
-0.07
0.47
1.17
0.7
-0.01
-0.42
-0.44
-0.325
-0.205
-0.11
-0.12
-0.115
-0.125
-0.11
-0.105
-0.1
-0.09
-0.08
-0.075
-0.055
-0.04
-0.03
-0.005
0.025
0.04
0.065
0.09
0.135
0.18
0.215
0.245
0.285
0.32
0.335
0.31
0.265
0.205
0.14
0.075
0.02
0.0
-0.005
-0.02
-0.015
-0.015
-0.04
-0.02
-0.01
-0.005
-0.005
0.0
-0.015
-0.02
-0.03
-0.04
-0.04
-0.045
-0.04
-0.055
-0.065
-0.06
-0.07
-0.075
-0.08
-0.07
-0.085
-0.08
-0.07
-0.08
-0.095
-0.08
-0.09
-0.055
-0.02
0.0
0.0
0.045
0.075
0.075
0.01
0.0
-0.045
-0.095
-0.11
-0.13
-0.13
-0.13
-0.145
-0.125
-0.11
0.26
0.9
0.75
0.4
-0.19
-0.38
-0.35
-0.275
-0.12
-0.125
-0.105
-0.115
-0.105
-0.115
-0.1
-0.09
-0.07
-0.065
-0.055
-0.07
-0.015
-0.02
0.0
0.015
0.055
0.085
0.125
0.165
0.21
0.245
0.29
0.295
0.325
0.33
0.29
0.235
0.155
0.095
0.05
0.005
-0.005
-0.01
-0.005
-0.02
-0.02
-0.02
-0.01
-0.005
-0.015
-0.02
-0.015
0.0
-0.01
-0.025
-0.03
-0.04
-0.045
-0.05
-0.05
-0.065
-0.055
-0.065
-0.065
-0.07
-0.075
-0.095
-0.065
-0.065
-0.08
-0.09
-0.075
-0.1
-0.07
-0.005
-0.01
0.005
0.015
0.035
0.055
0.015
0.0
-0.04
-0.085
-0.115
-0.13
-0.14
-0.125
-0.135
-0.12
-0.13
0.175
0.815
0.89
0.53
-0.14
-0.395
-0.37
-0.285
-0.13
-0.135
-0.125
-0.125
-0.11
-0.12
-0.115
-0.11
-0.095
-0.09
-0.07
-0.065
-0.04
-0.025
0.0
0.02
0.05
0.075
0.115
0.14
0.18
0.215
0.26
0.29
0.315
0.305
0.275
0.225
0.165
0.105
0.05
0.02
0.0
-0.015
-0.02
-0.02
-0.025
-0.015
-0.01
-0.015
-0.015
-0.02
-0.015
-0.02
-0.025
-0.025
-0.03
-0.04
-0.05
-0.05
-0.065
-0.055
-0.065
-0.07
-0.07
-0.08
-0.075
-0.08
-0.08
-0.075
-0.075
-0.08
-0.075
-0.075
-0.08
-0.065
-0.005
0.005
0.005
0.025
0.045
0.07
0.03
0.0
-0.03
-0.08
-0.115
-0.13
-0.14
-0.135
-0.145
-0.135
-0.135
0.11
0.725
0.98
0.58
-0.2
-0.435
-0.405
-0.29
-0.125
-0.13
-0.12
-0.12
-0.115
-0.11
-0.11
-0.105
-0.1
-0.09
-0.075
-0.07
-0.06
-0.035
-0.01
0.0
0.035
0.06
0.1
0.14
0.18
0.21
0.245
0.28
0.31
0.305
0.285
0.235
0.17
0.105
0.05
0.02
-0.005
-0.02
-0.025
-0.03
-0.025
-0.025
-0.02
-0.02
-0.02
-0.015
-0.01
-0.015
-0.02
-0.025
-0.045
-0.045
-0.05
-0.05
-0.06
-0.07
-0.075
-0.08
-0.085
-0.08
-0.085
-0.075
-0.085
-0.085
-0.09
-0.085
-0.1
-0.095
-0.1
-0.075
-0.02
0.0
0.005
0.03
0.055
0.07
0.02
0.0
-0.03
-0.085
-0.115
-0.12
-0.135
-0.13
-0.13
-0.125
-0.135
0.14
0.75
0.89
0.505
-0.225
-0.445
-0.41
-0.3
-0.14
-0.135
-0.125
-0.13
-0.12
-0.12
-0.11
-0.1
-0.085
-0.085
-0.08
-0.065
-0.05
-0.03
-0.005
0.01
0.045
0.065
0.115
0.155
0.175
0.23
0.265
0.3
0.325
0.325
0.3
0.235
0.18
0.1
0.05
0.005
-0.005
-0.02
-0.015
-0.01
-0.025
-0.005
-0.03
-0.03
-0.015
-0.01
0.0
-0.015
-0.015
-0.03
-0.03
-0.05
-0.05
-0.055
-0.06
-0.06
-0.065
-0.065
-0.075
-0.07
-0.095
-0.075
-0.08
-0.08
-0.105
-0.08
-0.085
-0.06
-0.105
-0.08
-0.025
-0.02
0.0
0.01
0.055
0.075
0.015
0.0
-0.045
-0.105
-0.1
-0.125
-0.125
-0.155
-0.145
-0.12
-0.115
0.115
0.72
0.88
0.56
-0.1
-0.42
-0.4
-0.31
-0.16
-0.14
-0.13
-0.13
-0.135
-0.12
-0.11
-0.12
-0.08
-0.09
-0.07
-0.065
-0.05
-0.03
0.005
0.005
0.035
0.095
0.125
0.14
0.2
0.23
0.28
0.295
0.34
0.335
0.31
0.25
0.185
0.115
0.055
0.04
0.01
0.01
0.0
0.0
-0.035
0.0
-0.005
-0.01
0.0
-0.005
-0.015
-0.015
-0.005
-0.01
-0.02
-0.04
-0.045
-0.045
-0.035
-0.05
-0.065
-0.06
-0.075
-0.07
-0.07
-0.08
-0.1
-0.08
-0.095
-0.085
-0.1
-0.09
-0.105
-0.07
-0.005
-0.01
0.005
0.03
0.05
0.035
-0.02
-0.045
-0.065
-0.09
-0.145
-0.15
-0.155
-0.145
-0.145
-0.15
-0.09
0.425
1.195
0.77
0.06
-0.38
-0.415
-0.335
-0.265
-0.13
-0.145
-0.135
-0.14
-0.125
-0.13
-0.105
-0.11
-0.1
-0.1
-0.08
-0.065
-0.05
-0.035
-0.005
0.005
0.055
0.075
0.11
0.15
0.19
0.235
0.275
0.295
0.31
0.295
0.26
0.195
0.12
0.065
0.025
0.0
-0.02
-0.015
-0.03
-0.025
-0.035
-0.025
-0.02
-0.02
-0.025
-0.02
-0.02
-0.02
-0.035
-0.04
-0.045
-0.05
-0.055
-0.055
-0.06
-0.065
-0.07
-0.07
-0.075
-0.08
-0.065
-0.085
-0.08
-0.085
-0.085
-0.09
-0.09
-0.09
-0.085
-0.055
-0.015
0.0
0.025
0.045
0.055
0.025
-0.015
-0.055
-0.065
-0.09
-0.12
-0.135
-0.125
-0.13
-0.13
-0.125
0.055
0.655
1.07
0.66
-0.165
-0.45
-0.425
-0.285
-0.135
-0.125
-0.125
-0.12
-0.11
-0.11
-0.1
-0.095
-0.085
-0.085
-0.065
-0.055
-0.045
-0.03
-0.01
0.01
0.035
0.07
0.1
0.15
0.185
0.22
0.25
0.29
0.32
0.31
0.29
0.245
0.175
0.115
0.055
0.02
0.0
-0.01
-0.025
-0.03
-0.025
-0.025
-0.02
-0.02
-0.01
-0.01
-0.01
-0.015
-0.01
-0.02
-0.025
-0.03
-0.04
-0.05
-0.055
-0.06
-0.06
-0.065
-0.07
-0.07
-0.065
-0.075
-0.08
-0.085
-0.08
-0.09
-0.085
-0.09
-0.08
-0.085
-0.075
-0.045
0.0
0.0
0.045
0.075
0.03
-0.015
-0.045
-0.06
-0.1
-0.125
-0.135
-0.145
-0.14
-0.145
-0.13
-0.05
0.49
1.145
0.665
-0.08
-0.445
-0.44
-0.31
-0.19
-0.12
-0.125
-0.11
-0.105
-0.095
-0.095
-0.085
-0.085
-0.075
-0.07
-0.06
-0.045
-0.03
-0.01
0.015
0.035
0.07
0.1
0.145
0.18
0.22
0.25
0.295
0.315
0.325
0.3
0.26
0.195
0.13
0.08
0.03
0.0
-0.01
-0.015
-0.025
-0.025
-0.02
-0.015
-0.015
-0.01
-0.01
-0.005
-0.01
-0.005
-0.015
-0.02
-0.035
-0.045
-0.05
-0.05
-0.06
-0.06
-0.065
-0.065
-0.07
-0.07
-0.07
-0.07
-0.08
-0.07
-0.085
-0.07
-0.08
-0.08
-0.085
-0.08
-0.065
-0.005
0.0
0.05
0.065
0.055
-0.005
-0.025
-0.05
-0.095
-0.12
-0.14
-0.14
-0.125
-0.14
-0.125
-0.11
0.375
1.065
0.66
0.13
-0.36
-0.42
-0.35
-0.25
-0.105
-0.13
-0.115
-0.115
-0.095
-0.11
-0.105
-0.1
-0.07
-0.075
-0.06
-0.06
-0.04
-0.02
0.01
0.02
0.055
0.085
0.12
0.16
0.2
0.24
0.265
0.295
0.315
0.33
0.28
0.225
0.145
0.065
0.03
0.0
-0.005
-0.02
-0.02
-0.01
-0.02
-0.025
-0.02
-0.025
-0.01
-0.02
-0.01
-0.005
-0.035
-0.035
-0.035
-0.03
-0.04
-0.075
-0.055
-0.06
-0.055
-0.06
-0.065
-0.085
-0.085
-0.08
-0.07
-0.075
-0.08
-0.075
-0.09
-0.1
-0.08
-0.075
-0.07
-0.065
-0.025
0.0
0.05
0.075
0.04
-0.01
-0.04
-0.06
-0.105
-0.125
-0.13
-0.135
-0.125
-0.13
-0.125
0.0
0.525
1.045
0.67
0.0
-0.37
-0.37
-0.29
-0.195
-0.11
-0.13
-0.12
-0.115
-0.11
-0.105
-0.095
-0.095
-0.08
-0.065
-0.045
-0.055
-0.045
-0.015
0.015
0.04
0.065
0.1
0.135
0.195
0.21
0.235
0.28
0.32
0.33
0.3
0.24
0.165
0.125
0.065
0.035
-0.005
0.0
-0.005
-0.01
-0.015
-0.025
-0.015
-0.01
0.005
0.0
-0.015
-0.03
-0.005
-0.025
-0.015
-0.02
-0.04
-0.055
-0.05
-0.055
-0.07
-0.06
-0.075
-0.08
-0.075
-0.075
-0.08
-0.075
-0.07
-0.08
-0.1
-0.085
-0.09
-0.09
-0.09
-0.085
-0.07
-0.025
-0.015
0.02
0.05
0.05
-0.02
-0.055
-0.07
-0.1
-0.13
-0.15
-0.15
-0.145
-0.15
-0.14
-0.06
0.475
1.145
0.72
0.01
-0.37
-0.39
-0.305
-0.21
-0.105
-0.12
-0.12
-0.12
-0.11
-0.115
-0.085
-0.09
-0.085
-0.08
-0.07
-0.045
-0.02
-0.02
0.0
0.025
0.06
0.1
0.135
0.16
0.205
0.24
0.28
0.31
0.32
0.305
0.26
0.195
0.13
0.075
0.035
0.005
-0.005
-0.01
-0.02
-0.025
-0.02
-0.015
-0.015
-0.015
-0.005
-0.005
-0.005
-0.015
-0.015
-0.025
-0.035
-0.045
-0.045
-0.05
-0.055
-0.055
-0.065
-0.065
-0.075
-0.07
-0.085
-0.08
-0.08
-0.075
-0.085
-0.09
-0.095
-0.095
-0.095
-0.095
-0.105
-0.09
-0.08
-0.02
0.0
0.035
0.05
0.035
-0.01
-0.04
-0.055
-0.095
-0.125
-0.145
-0.15
-0.135
-0.14
-0.135
-0.085
0.455
1.175
0.73
0.0
-0.415
-0.425
-0.315
-0.205
-0.115
-0.125
-0.115
-0.115
-0.105
-0.105
-0.095
-0.1
-0.085
-0.075
-0.06
-0.045
-0.025
-0.02
0.0
0.025
0.05
0.09
0.14
0.175
0.21
0.245
0.28
0.3
0.32
0.31
0.27
0.205
0.13
0.07
0.025
-0.005
-0.025
-0.03
-0.035
-0.035
-0.035
-0.03
-0.03
-0.02
-0.015
-0.015
-0.015
-0.025
-0.03
-0.035
-0.04
-0.04
-0.045
-0.055
-0.06
-0.065
-0.065
-0.065
-0.065
-0.075
-0.075
-0.075
-0.085
-0.08
-0.08
-0.085
-0.08
-0.085
-0.08
-0.09
-0.085
-0.075
-0.05
-0.005
0.015
0.04
0.075
0.025
-0.015
-0.06
-0.075
-0.1
-0.125
-0.13
-0.13
-0.135
-0.135
-0.13
0.11
0.7
0.955
0.565
-0.18
-0.43
-0.405
-0.29
-0.14
-0.125
-0.12
-0.11
-0.1
-0.1
-0.095
-0.095
-0.085
-0.08
-0.075
-0.06
-0.045
-0.025
-0.015
0.0
0.03
0.06
0.1
0.14
0.18
0.22
0.255
0.28
0.315
0.315
0.29
0.24
0.18
0.115
0.055
0.015
0.0
-0.015
-0.02
-0.025
-0.03
-0.025
-0.025
-0.02
-0.01
-0.01
-0.005
-0.015
-0.03
-0.025
-0.02
-0.045
-0.05
-0.06
-0.065
-0.06
-0.07
-0.07
-0.07
-0.075
-0.065
-0.07
-0.07
-0.085
-0.08
-0.085
-0.08
-0.08
-0.075
-0.085
-0.08
-0.075
-0.02
0.0
0.045
0.055
0.05
0.0
-0.03
-0.055
-0.095
-0.115
-0.135
-0.135
-0.125
-0.135
-0.115
-0.05
0.445
1.1
0.685
0.1
-0.32
-0.37
-0.285
-0.23
-0.095
-0.12
-0.1
-0.115
-0.1
-0.11
-0.095
-0.085
-0.085
-0.07
-0.05
-0.05
-0.015
0.005
0.01
0.055
0.06
0.1
0.15
0.195
0.235
0.255
0.29
0.31
0.34
0.33
0.27
0.21
0.135
0.075
0.04
0.03
0.0
-0.015
-0.015
-0.025
-0.01
-0.01
-0.03
-0.015
-0.005
-0.015
-0.015
-0.03
-0.025
-0.02
-0.035
-0.04
-0.045
-0.05
-0.055
-0.075
-0.055
-0.065
-0.075
-0.08
-0.065
-0.085
-0.085
-0.09
-0.09
-0.09
-0.1
-0.095
-0.095
-0.08
-0.025
-0.01
0.02
0.035
0.065
0.005
-0.03
-0.065
-0.075
-0.105
-0.135
-0.145
-0.135
-0.145
-0.125
-0.13
0.255
0.96
0.785
0.355
-0.22
-0.37
-0.345
-0.285
-0.115
-0.125
-0.12
-0.13
-0.11
-0.115
-0.1
-0.095
-0.095
-0.095
-0.08
-0.065
-0.035
-0.025
-0.005
0.015
0.045
0.07
0.12
0.155
0.2
0.235
0.27
0.3
0.32
0.31
0.275
0.22
0.15
0.09
0.045
0.01
-0.005
-0.015
-0.03
-0.035
-0.03
-0.025
-0.025
-0.025
-0.035
-0.025
-0.02
-0.025
-0.03
-0.035
-0.04
-0.05
-0.06
-0.055
-0.065
-0.065
-0.07
-0.07
-0.08
-0.08
-0.085
-0.075
-0.085
-0.085
-0.095
-0.095
-0.1
-0.09
-0.105
-0.085
-0.08
-0.015
0.0
0.035
0.05
0.04
0.0
-0.03
-0.06
-0.1
-0.12
-0.14
-0.15
-0.13
-0.14
-0.125
-0.1
0.4
1.135
0.72
0.085
-0.375
-0.405
-0.315
-0.215
-0.1
-0.125
-0.105
-0.105
-0.1
-0.1
-0.09
-0.09
-0.07
-0.075
-0.06
-0.05
-0.03
-0.015
0.005
0.025
0.06
0.095
0.13
0.165
0.215
0.24
0.275
0.305
0.315
0.305
0.255
0.2
0.135
0.07
0.025
-0.005
-0.015
-0.03
-0.035
-0.04
-0.04
-0.035
-0.03
-0.03
-0.03
-0.025
-0.02
-0.025
-0.025
-0.03
-0.04
-0.055
-0.055
-0.055
-0.06
-0.075
-0.075
-0.08
-0.08
-0.09
-0.085
-0.09
-0.09
-0.1
-0.09
-0.095
-0.085
-0.095
-0.085
-0.075
-0.015
0.0
0.04
0.045
0.05
-0.005
-0.025
-0.055
-0.095
-0.12
-0.135
-0.15
-0.135
-0.145
-0.125
-0.1
0.375
1.09
0.685
0.125
-0.37
-0.42
-0.33
-0.23
-0.105
-0.125
-0.105
-0.115
-0.105
-0.11
-0.095
-0.1
-0.08
-0.075
-0.06
-0.055
-0.025
-0.01
0.0
0.03
0.065
0.095
0.13
0.175
0.215
0.245
0.295
0.315
0.325
0.305
0.27
0.205
0.145
0.09
0.045
0.005
-0.015
-0.02
-0.025
-0.035
-0.02
-0.03
-0.03
-0.015
-0.015
-0.01
-0.015
-0.025
-0.025
-0.015
-0.02
-0.03
-0.035
-0.055
-0.07
-0.07
-0.06
-0.07
-0.075
-0.085
-0.075
-0.08
-0.08
-0.09
-0.075
-0.1
-0.09
-0.1
-0.085
-0.075
-0.025
-0.015
0.04
0.045
0.06
0.0
-0.025
-0.065
-0.11
-0.125
-0.135
-0.15
-0.13
-0.15
-0.13
-0.095
0.37
1.045
0.6
0.115
-0.33
-0.385
-0.325
-0.255
-0.1
-0.115
-0.11
-0.115
-0.115
-0.1
-0.09
-0.09
-0.075
-0.085
-0.055
-0.055
-0.025
-0.005
0.02
0.04
0.05
0.085
0.135
0.165
0.215
0.265
0.295
0.31
0.33
0.305
0.28
0.205
0.15
0.08
0.045
0.0
0.0
-0.01
-0.02
-0.025
-0.03
-0.025
-0.03
-0.02
-0.015
-0.02
-0.01
-0.025
-0.045
-0.03
-0.05
-0.055
-0.055
-0.045
-0.06
-0.08
-0.075
-0.07
-0.07
-0.08
-0.085
-0.105
-0.095
-0.1
-0.095
-0.095
-0.09
-0.105
-0.11
-0.09
-0.055
-0.005
0.015
0.025
0.075
-0.005
-0.025
-0.065
-0.1
-0.115
-0.135
-0.145
-0.13
-0.135
-0.14
-0.14
0.26
0.905
0.745
0.36
-0.195
-0.36
-0.325
-0.265
-0.11
-0.125
-0.11
-0.125
-0.1
-0.095
-0.085
-0.09
-0.075
-0.07
-0.055
-0.055
-0.03
-0.005
-0.005
0.045
0.055
0.095
0.14
0.17
0.205
0.24
0.295
0.32
0.335
0.33
0.285
0.21
0.155
0.08
0.03
-0.005
-0.02
-0.03
-0.03
-0.035
-0.015
-0.02
-0.02
-0.02
-0.01
-0.02
-0.02
-0.02
-0.025
-0.03
-0.035
-0.04
-0.055
-0.06
-0.06
-0.065
-0.065
-0.065
-0.065
-0.08
-0.075
-0.085
-0.08
-0.085
-0.085
-0.085
-0.075
-0.08
-0.075
-0.08
-0.055
0.0
0.02
0.035
0.07
0.015
-0.015
-0.065
-0.08
-0.105
-0.135
-0.155
-0.135
-0.14
-0.14
-0.135
0.12
0.74
0.935
0.57
-0.16
-0.41
-0.38
-0.285
-0.14
-0.13
-0.115
-0.12
-0.115
-0.11
-0.095
-0.105
-0.085
-0.085
-0.07
-0.065
-0.045
-0.03
-0.005
0.01
0.04
0.08
0.12
0.155
0.195
0.23
0.275
0.305
0.325
0.325
0.3
0.235
0.175
0.11
0.05
0.02
0.0
-0.02
-0.02
-0.03
-0.03
-0.025
-0.015
-0.015
-0.01
-0.005
-0.005
-0.005
-0.01
-0.02
-0.03
-0.045
-0.05
-0.05
-0.06
-0.06
-0.06
-0.06
-0.06
-0.065
-0.07
-0.07
-0.08
-0.085
-0.09
-0.085
-0.085
-0.09
-0.095
-0.09
-0.095
-0.085
-0.07
-0.02
0.005
0.035
0.065
0.04
-0.015
-0.045
-0.065
-0.105
-0.125
-0.135
-0.135
-0.13
-0.13
-0.12
-0.025
0.525
1.15
0.705
-0.055
-0.425
-0.415
-0.3
-0.165
-0.105
-0.11
-0.115
-0.11
-0.105
-0.1
-0.09
-0.09
-0.075
-0.075
-0.055
-0.04
-0.02
-0.01
0.01
0.04
0.07
0.105
0.15
0.19
0.22
0.26
0.295
0.325
0.325
0.315
0.255
0.19
0.125
0.065
0.025
-0.005
-0.025
-0.03
-0.035
-0.025
-0.03
-0.025
-0.02
-0.01
-0.01
-0.005
-0.005
-0.01
-0.02
-0.025
-0.025
-0.035
-0.035
-0.045
-0.05
-0.05
-0.06
-0.07
-0.07
-0.07
-0.065
-0.07
-0.075
-0.075
-0.065
-0.075
-0.085
-0.09
-0.09
-0.08
-0.085
-0.065
-0.06
-0.01
0.01
0.035
0.075
0.045
-0.015
-0.04
-0.05
-0.095
-0.135
-0.125
-0.13
-0.12
-0.12
-0.11
0.06
0.61
1.015
0.645
-0.08
-0.39
-0.38
-0.28
-0.155
-0.11
-0.105
-0.1
-0.11
-0.105
-0.085
-0.09
-0.08
-0.075
-0.065
-0.05
-0.045
-0.025
-0.005
0.02
0.03
0.07
0.105
0.145
0.195
0.22
0.26
0.3
0.335
0.33
0.3
0.26
0.18
0.115
0.065
0.03
0.005
-0.005
-0.02
-0.02
-0.01
-0.025
-0.015
-0.01
0.0
-0.005
-0.02
-0.01
-0.025
-0.025
-0.045
-0.03
-0.03
-0.035
-0.055
-0.06
-0.06
-0.055
-0.065
-0.055
-0.075
-0.07
-0.07
-0.065
-0.08
-0.09
-0.075
-0.075
-0.085
-0.07
-0.09
-0.08
-0.08
-0.05
-0.01
0.025
0.04
0.075
0.02
-0.01
-0.055
-0.085
-0.11
-0.11
-0.125
-0.135
-0.15
-0.12
-0.13
0.26
0.93
0.79
0.405
-0.17
-0.36
-0.33
-0.285
-0.115
-0.12
-0.125
-0.125
-0.12
-0.095
-0.1
-0.095
-0.08
-0.085
-0.065
-0.06
-0.04
-0.03
0.0
0.01
0.045
0.08
0.125
0.155
0.195
0.235
0.285
0.315
0.34
0.33
0.295
0.225
0.17
0.1
0.045
0.02
0.0
-0.015
-0.025
-0.02
-0.02
-0.015
-0.015
-0.02
-0.015
-0.02
-0.015
-0.01
-0.015
-0.02
-0.025
-0.035
-0.04
-0.045
-0.045
-0.06
-0.055
-0.055
-0.06
-0.07
-0.07
-0.08
-0.08
-0.07
-0.08
-0.09
-0.085
-0.095
-0.09
-0.09
-0.08
-0.095
-0.095
-0.085
-0.025
0.0
0.03
0.045
0.055
-0.01
-0.04
-0.05
-0.085
-0.125
-0.14
-0.14
-0.13
-0.135
-0.13
-0.085
0.455
1.165
0.745
0.06
-0.365
-0.385
-0.28
-0.19
-0.1
-0.115
-0.105
-0.115
-0.095
-0.105
-0.085
-0.085
-0.075
-0.075
-0.06
-0.05
-0.02
-0.005
0.015
0.04
0.07
0.1
0.15
0.185
0.225
0.255
0.295
0.325
0.345
0.325
0.28
0.215
0.155
0.09
0.045
0.015
-0.005
-0.015
-0.015
-0.015
-0.02
-0.015
-0.01
-0.01
0.0
0.0
0.0
0.0
0.0
-0.015
-0.02
-0.025
-0.03
-0.04
-0.04
-0.055
-0.055
-0.065
-0.055
-0.07
-0.075
-0.075
-0.07
-0.08
-0.08
-0.085
-0.08
-0.08
-0.075
-0.09
-0.085
-0.1
-0.085
-0.075
-0.01
0.0
0.035
0.05
0.05
-0.01
-0.04
-0.06
-0.09
-0.11
-0.13
-0.145
-0.13
-0.14
-0.125
-0.1
0.405
1.14
0.72
0.105
-0.365
-0.4
-0.31
-0.22
-0.1
-0.125
-0.105
-0.11
-0.105
-0.1
-0.085
-0.09
-0.065
-0.075
-0.055
-0.05
-0.025
-0.015
0.015
0.035
0.065
0.09
0.14
0.18
0.22
0.245
0.295
0.32
0.345
0.325
0.285
0.23
0.15
0.075
0.03
0.01
-0.01
-0.01
-0.035
-0.035
-0.025
-0.015
-0.02
-0.015
-0.005
-0.01
0.0
-0.01
-0.01
-0.02
-0.025
-0.02
-0.03
-0.045
-0.06
-0.05
-0.05
-0.06
-0.055
-0.075
-0.06
-0.06
-0.065
-0.07
-0.055
-0.065
-0.065
-0.075
-0.075
-0.085
-0.075
-0.08
-0.08
-0.055
-0.005
0.005
0.04
0.08
0.05
0.0
-0.03
-0.04
-0.085
-0.12
-0.135
-0.145
-0.115
-0.13
-0.115
-0.065
0.435
1.11
0.71
0.12
-0.295
-0.355
-0.3
-0.22
-0.1
-0.11
-0.105
-0.125
-0.09
-0.1
-0.1
-0.08
-0.075
-0.07
-0.055
-0.05
-0.025
0.0
0.02
0.03
0.075
0.09
0.14
0.19
0.23
0.245
0.305
0.34
0.34
0.33
0.285
0.215
0.135
0.085
0.035
0.02
-0.005
-0.02
-0.03
-0.025
-0.025
-0.035
-0.02
-0.02
-0.015
-0.01
0.0
-0.015
-0.015
-0.025
-0.04
-0.04
-0.05
-0.05
-0.05
-0.05
-0.05
-0.065
-0.07
-0.07
-0.06
-0.075
-0.07
-0.075
-0.08
-0.085
-0.075
-0.075
-0.08
-0.085
-0.09
-0.09
-0.08
-0.055
-0.005
0.0
0.03
0.065
0.025
-0.02
-0.06
-0.075
-0.105
-0.135
-0.15
-0.15
-0.145
-0.145
-0.135
0.02
0.59
1.06
0.68
-0.08
-0.395
-0.385
-0.29
-0.165
-0.12
-0.125
-0.115
-0.115
-0.12
-0.115
-0.11
-0.1
-0.09
-0.09
-0.075
-0.055
-0.035
-0.025
0.005
0.02
0.06
0.095
0.14
0.185
0.215
0.25
0.285
0.31
0.32
0.3
0.25
0.185
0.12
0.065
0.015
-0.005
-0.02
-0.03
-0.025
-0.025
-0.03
-0.02
-0.015
-0.02
-0.015
-0.01
-0.01
-0.01
-0.02
-0.025
-0.03
-0.035
-0.05
-0.055
-0.055
-0.065
-0.065
-0.07
-0.065
-0.07
-0.075
-0.08
-0.075
-0.08
-0.08
-0.085
-0.085
-0.09
-0.08
-0.08
-0.085
-0.09
-0.09
-0.075
-0.04
-0.005
0.005
0.035
0.07
0.015
-0.025
-0.07
-0.075
-0.115
-0.14
-0.15
-0.14
-0.14
-0.145
-0.135
0.05
0.65
1.055
0.65
-0.155
-0.435
-0.4
-0.285
-0.145
-0.13
-0.125
-0.115
-0.11
-0.115
-0.105
-0.105
-0.095
-0.08
-0.07
-0.07
-0.05
-0.035
-0.015
0.0
0.035
0.07
0.105
0.15
0.185
0.23
0.275
0.31
0.325
0.33
0.315
0.255
0.2
0.13
0.08
0.03
0.0
-0.015
-0.025
-0.015
-0.02
-0.03
-0.015
-0.005
-0.015
-0.01
-0.01
-0.005
-0.01
-0.015
-0.015
-0.03
-0.03
-0.04
-0.045
-0.045
-0.045
-0.055
-0.06
-0.055
-0.055
-0.06
-0.075
-0.06
-0.07
-0.08
-0.08
-0.08
-0.09
-0.07
-0.09
-0.085
-0.085
-0.07
-0.03
0.0
0.005
0.055
0.08
0.045
-0.015
-0.05
-0.07
-0.1
-0.105
-0.13
-0.14
-0.125
-0.13
-0.125
-0.025
0.465
1.095
0.685
0.055
-0.33
-0.365
-0.3
-0.21
-0.1
-0.135
-0.13
-0.13
-0.11
-0.115
-0.115
-0.095
-0.085
-0.085
-0.065
-0.05
-0.03
-0.03
-0.01
0.015
0.065
0.095
0.135
0.17
0.205
0.24
0.29
0.33
0.34
0.325
0.265
0.21
0.15
0.065
0.025
0.0
-0.02
-0.02
-0.03
-0.025
-0.015
-0.015
-0.035
-0.035
-0.015
-0.025
-0.01
-0.02
-0.03
-0.035
-0.025
-0.045
-0.055
-0.055
-0.06
-0.055
-0.085
-0.065
-0.065
-0.08
-0.08
-0.075
-0.085
-0.08
-0.09
-0.085
-0.085
-0.095
-0.105
-0.09
-0.095
-0.09
-0.075
-0.02
-0.01
0.035
0.05
0.03
-0.015
-0.035
-0.06
-0.1
-0.105
-0.13
-0.145
-0.13
-0.145
-0.125
-0.085
0.44
1.145
0.755
0.09
-0.335
-0.375
-0.3
-0.23
-0.12
-0.135
-0.125
-0.125
-0.125
-0.125
-0.105
-0.105
-0.1
-0.09
-0.065
-0.055
-0.045
-0.03
-0.005
0.02
0.06
0.09
0.135
0.17
0.205
0.255
0.3
0.32
0.335
0.315
0.275
0.21
0.14
0.075
0.035
0.005
-0.005
-0.01
-0.02
-0.02
-0.03
-0.03
-0.025
-0.02
-0.005
-0.015
-0.015
-0.01
-0.01
-0.015
-0.025
-0.03
-0.025
-0.05
-0.055
-0.065
-0.06
-0.065
-0.07
-0.065
-0.07
-0.075
-0.075
-0.08
-0.08
-0.09
-0.075
-0.085
-0.085
-0.095
-0.09
-0.095
-0.085
-0.055
-0.005
0.0
0.04
0.05
0.045
0.0
-0.025
-0.06
-0.095
-0.115
-0.13
-0.14
-0.135
-0.145
-0.14
-0.13
0.335
1.07
0.77
0.235
-0.325
-0.42
-0.345
-0.25
-0.115
-0.13
-0.115
-0.125
-0.115
-0.12
-0.11
-0.11
-0.085
-0.085
-0.065
-0.055
-0.03
-0.02
0.0
0.015
0.05
0.09
0.135
0.17
0.22
0.255
0.285
0.315
0.335
0.325
0.29
0.225
0.16
0.095
0.045
0.005
-0.01
-0.03
-0.03
-0.035
-0.04
-0.025
-0.025
-0.025
-0.015
-0.005
0.0
-0.015
-0.015
-0.02
-0.025
-0.035
-0.04
-0.035
-0.045
-0.055
-0.065
-0.06
-0.06
-0.065
-0.065
-0.07
-0.075
-0.075
-0.075
-0.075
-0.075
-0.075
-0.08
-0.075
-0.075
-0.08
-0.075
-0.055
-0.015
0.0
0.02
0.05
0.055
0.025
-0.025
-0.06
-0.07
-0.11
-0.125
-0.14
-0.145
-0.135
-0.135
-0.11
0.055
0.62
1.04
0.63
-0.13
-0.42
-0.4
-0.29
-0.155
-0.115
-0.11
-0.11
-0.11
-0.1
-0.095
-0.09
-0.09
-0.08
-0.075
-0.065
-0.05
-0.035
-0.005
0.01
0.03
0.07
0.1
0.14
0.19
0.235
0.265
0.3
0.325
0.335
0.31
0.255
0.195
0.115
0.055
0.02
0.0
-0.025
-0.025
-0.035
-0.05
-0.045
-0.025
-0.03
-0.025
-0.025
-0.02
-0.02
-0.02
-0.025
-0.035
-0.035
-0.05
-0.055
-0.05
-0.065
-0.065
-0.07
-0.075
-0.07
-0.07
-0.09
-0.08
-0.09
-0.085
-0.09
-0.085
-0.095
-0.09
-0.1
-0.1
-0.095
-0.08
-0.035
-0.03
-0.005
0.02
0.035
0.04
0.005
-0.02
-0.07
-0.08
-0.115
-0.145
-0.145
-0.15
-0.145
-0.14
-0.14
0.125
0.685
0.87
0.56
-0.1
-0.38
-0.38
-0.3
-0.16
-0.145
-0.14
-0.13
-0.12
-0.135
-0.115
-0.11
-0.11
-0.08
-0.08
-0.07
-0.055
-0.045
-0.02
0.005
0.045
0.06
0.11
0.145
0.18
0.23
0.26
0.29
0.32
0.325
0.305
0.235
0.175
0.105
0.04
0.005
-0.015
-0.02
-0.03
-0.025
-0.045
-0.035
-0.045
-0.035
-0.03
-0.025
-0.025
-0.02
-0.01
-0.02
-0.04
-0.045
-0.045
-0.055
-0.05
-0.055
-0.07
-0.07
-0.07
-0.08
-0.07
-0.075
-0.075
-0.085
-0.085
-0.085
-0.075
-0.085
-0.085
-0.1
-0.085
-0.095
-0.085
-0.03
-0.005
0.0
0.03
0.04
0.035
-0.02
-0.05
-0.07
-0.105
-0.13
-0.125
-0.14
-0.135
-0.145
-0.135
-0.045
0.485
1.125
0.73
0.04
-0.35
-0.355
-0.29
-0.21
-0.12
-0.115
-0.11
-0.12
-0.11
-0.1
-0.095
-0.09
-0.08
-0.07
-0.05
-0.05
-0.025
-0.005
0.015
0.04
0.07
0.105
0.155
0.18
0.23
0.275
0.31
0.33
0.345
0.32
0.28
0.215
0.15
0.09
0.04
0.005
-0.005
-0.01
-0.01
-0.02
-0.02
-0.02
-0.02
-0.015
-0.02
-0.02
-0.025
-0.025
-0.02
-0.035
-0.04
-0.04
-0.05
-0.06
-0.065
-0.075
-0.08
-0.08
-0.08
-0.075
-0.085
-0.09
-0.085
-0.095
-0.085
-0.085
-0.085
-0.095
-0.085
-0.1
-0.095
-0.1
-0.095
-0.05
-0.015
-0.01
0.025
0.035
0.04
0.01
-0.025
-0.065
-0.085
-0.115
-0.135
-0.15
-0.14
-0.15
-0.145
-0.135
0.17
0.815
0.905
0.515
-0.21
-0.42
-0.38
-0.27
-0.11
-0.125
-0.115
-0.115
-0.105
-0.1
-0.095
-0.095
-0.085
-0.08
-0.065
-0.06
-0.045
-0.03
0.0
0.015
0.04
0.075
0.12
0.15
0.195
0.235
0.27
0.3
0.325
0.325
0.295
0.25
0.185
0.11
0.06
0.015
-0.01
-0.02
-0.025
-0.025
-0.03
-0.03
-0.025
-0.015
-0.02
-0.015
-0.01
-0.01
-0.015
-0.02
-0.03
-0.03
-0.035
-0.04
-0.045
-0.05
-0.055
-0.055
-0.055
-0.07
-0.065
-0.075
-0.075
-0.08
-0.065
-0.08
-0.07
-0.085
-0.08
-0.09
-0.085
-0.095
-0.07
-0.02
0.005
0.005
0.05
0.06
0.04
-0.01
-0.035
-0.06
-0.1
-0.11
-0.135
-0.145
-0.13
-0.145
-0.125
-0.065
0.45
1.125
0.675
0.02
-0.37
-0.39
-0.315
-0.21
-0.105
-0.115
-0.105
-0.11
-0.095
-0.095
-0.09
-0.09
-0.075
-0.075
-0.06
-0.05
-0.03
-0.01
0.01
0.025
0.07
0.1
0.145
0.185
0.225
0.26
0.3
0.335
0.345
0.335
0.275
0.215
0.15
0.085
0.05
0.01
0.0
-0.01
-0.02
-0.015
-0.015
-0.015
-0.02
-0.01
-0.005
-0.005
-0.01
-0.005
-0.015
-0.02
-0.02
-0.02
-0.04
-0.04
-0.045
-0.045
-0.045
-0.065
-0.06
-0.06
-0.065
-0.065
-0.075
-0.08
-0.08
-0.075
-0.08
-0.08
-0.09
-0.08
-0.08
-0.05
-0.01
0.0
0.005
0.055
0.055
0.03
-0.015
-0.04
-0.06
-0.11
-0.13
-0.135
-0.145
-0.14
-0.14
-0.13
0.0
0.525
1.065
0.68
0.0
-0.345
-0.36
-0.295
-0.195
-0.11
-0.125
-0.12
-0.1
-0.095
-0.105
-0.09
-0.08
-0.075
-0.065
-0.045
-0.035
-0.02
-0.005
0.01
0.045
0.08
0.105
0.15
0.185
0.225
0.27
0.305
0.33
0.35
0.305
0.245
0.2
0.135
0.08
0.025
-0.01
-0.02
-0.01
-0.03
-0.025
-0.035
-0.025
-0.015
-0.025
-0.02
-0.03
-0.02
-0.02
-0.02
-0.03
-0.04
-0.06
-0.055
-0.05
-0.065
-0.07
-0.055
-0.09
-0.065
-0.085
-0.08
-0.085
-0.085
-0.095
-0.09
-0.095
-0.095
-0.115
-0.105
-0.105
-0.085
-0.07
-0.035
-0.03
0.015
0.035
0.025
-0.015
-0.04
-0.07
-0.105
-0.12
-0.135
-0.15
-0.145
-0.145
-0.13
-0.12
0.34
1.08
0.77
0.255
-0.23
-0.345
-0.305
-0.25
-0.115
-0.14
-0.125
-0.125
-0.11
-0.125
-0.1
-0.1
-0.085
-0.08
-0.065
-0.065
-0.045
-0.025
0.0
0.03
0.06
0.09
0.13
0.175
0.225
0.25
0.29
0.325
0.335
0.32
0.285
0.22
0.15
0.085
0.045
0.005
-0.015
-0.03
-0.035
-0.03
-0.03
-0.03
-0.03
-0.035
-0.025
-0.025
-0.025
-0.025
-0.02
-0.03
-0.035
-0.04
-0.045
-0.055
-0.065
-0.07
-0.065
-0.075
-0.07
-0.08
-0.08
-0.09
-0.085
-0.095
-0.09
-0.1
-0.1
-0.105
-0.095
-0.095
-0.095
-0.1
-0.09
-0.065
-0.02
-0.015
0.035
0.055
0.02
-0.025
-0.04
-0.075
-0.11
-0.13
-0.15
-0.155
-0.15
-0.15
-0.13
-0.115
0.395
1.13
0.75
0.13
-0.345
-0.415
-0.33
-0.24
-0.12
-0.14
-0.13
-0.135
-0.12
-0.125
-0.11
-0.11
-0.095
-0.095
-0.075
-0.07
-0.05
-0.035
-0.005
0.01
0.04
0.08
0.125
0.165
0.205
0.25
0.28
0.315
0.335
0.32
0.275
0.22
0.16
0.085
0.04
0.0
-0.015
-0.03
-0.03
-0.035
-0.035
-0.03
-0.025
-0.025
-0.02
-0.01
-0.01
-0.01
-0.015
-0.025
-0.025
-0.03
-0.04
-0.045
-0.055
-0.05
-0.06
-0.065
-0.06
-0.07
-0.07
-0.075
-0.08
-0.08
-0.085
-0.075
-0.085
-0.08
-0.085
-0.08
-0.09
-0.09
-0.095
-0.07
-0.055
0.0
0.005
0.05
0.065
0.05
0.01
-0.015
-0.04
-0.075
-0.095
-0.13
-0.125
-0.12
-0.13
-0.115
-0.12
0.265
0.94
0.815
0.395
-0.25
-0.41
-0.35
-0.27
-0.11
-0.13
-0.12
-0.11
-0.11
-0.11
-0.095
-0.1
-0.08
-0.07
-0.06
-0.055
-0.03
-0.02
0.005
0.03
0.055
0.085
0.125
0.17
0.22
0.255
0.3
0.325
0.355
0.345
0.315
0.255
0.185
0.12
0.07
0.02
0.0
-0.015
-0.025
-0.03
-0.02
-0.025
-0.025
-0.015
-0.015
-0.015
-0.01
-0.015
-0.01
-0.02
-0.02
-0.025
-0.035
-0.045
-0.05
-0.06
-0.055
-0.055
-0.06
-0.065
-0.065
-0.075
-0.07
-0.075
-0.07
-0.075
-0.08
-0.085
-0.085
-0.08
-0.075
-0.09
-0.08
-0.09
-0.085
-0.065
-0.01
-0.005
0.04
0.055
0.04
-0.005
-0.035
-0.07
-0.11
-0.125
-0.14
-0.135
-0.125
-0.145
-0.125
-0.105
0.375
1.09
0.715
0.2
-0.275
-0.375
-0.33
-0.26
-0.105
-0.13
-0.125
-0.125
-0.105
-0.115
-0.095
-0.1
-0.09
-0.085
-0.075
-0.055
-0.02
-0.02
0.0
0.02
0.07
0.08
0.135
0.17
0.21
0.255
0.3
0.33
0.345
0.33
0.3
0.25
0.165
0.105
0.045
0.02
-0.01
-0.01
-0.02
-0.025
-0.035
-0.025
-0.025
-0.02
-0.015
-0.015
-0.02
-0.015
-0.02
-0.03
-0.03
-0.03
-0.045
-0.055
-0.065
-0.065
-0.06
-0.075
-0.08
-0.075
-0.09
-0.075
-0.08
-0.075
-0.08
-0.09
-0.1
-0.09
-0.08
-0.08
-0.09
-0.085
-0.09
-0.085
-0.065
-0.02
0.0
0.02
0.04
0.045
-0.02
-0.045
-0.06
-0.105
-0.13
-0.145
-0.155
-0.145
-0.16
-0.135
-0.13
0.31
1.04
0.825
0.35
-0.205
-0.38
-0.345
-0.28
-0.12
-0.13
-0.12
-0.12
-0.105
-0.11
-0.1
-0.1
-0.085
-0.08
-0.07
-0.06
-0.04
-0.035
-0.005
0.02
0.05
0.08
0.125
0.165
0.22
0.25
0.295
0.32
0.345
0.34
0.3
0.25
0.17
0.1
0.05
0.02
0.0
-0.02
-0.035
-0.03
-0.03
-0.025
-0.025
-0.02
-0.025
-0.03
-0.025
-0.02
-0.015
-0.025
-0.035
-0.04
-0.05
-0.055
-0.05
-0.055
-0.055
-0.06
-0.06
-0.065
-0.07
-0.075
-0.075
-0.07
-0.08
-0.08
-0.085
-0.085
-0.085
-0.085
-0.08
-0.085
-0.085
-0.085
-0.085
-0.065
-0.015
0.0
0.02
0.045
0.075
0.02
-0.015
-0.06
-0.06
-0.1
-0.125
-0.14
-0.135
-0.135
-0.13
-0.135
0.08
0.705
1.055
0.67
-0.115
-0.4
-0.38
-0.285
-0.135
-0.12
-0.11
-0.105
-0.105
-0.105
-0.105
-0.085
-0.08
-0.09
-0.075
-0.06
-0.045
-0.03
-0.01
0.015
0.04
0.075
0.12
0.15
0.2
0.235
0.285
0.32
0.33
0.35
0.33
0.27
0.2
0.14
0.08
0.02
-0.01
-0.025
-0.03
-0.02
-0.015
-0.025
-0.015
-0.015
-0.01
-0.005
0.0
0.0
0.0
0.0
-0.005
-0.01
-0.02
-0.025
-0.025
-0.03
-0.045
-0.045
-0.04
-0.05
-0.05
-0.055
-0.06
-0.065
-0.07
-0.07
-0.075
-0.075
-0.065
-0.075
-0.07
-0.075
-0.07
-0.075
-0.07
-0.075
-0.055
-0.005
0.01
0.015
0.055
0.06
0.05
-0.01
-0.045
-0.065
-0.105
-0.13
-0.135
-0.14
-0.125
-0.145
-0.125
-0.05
0.475
1.18
0.765
0.035
-0.38
-0.41
-0.315
-0.225
-0.115
-0.12
-0.12
-0.13
-0.11
-0.105
-0.095
-0.1
-0.095
-0.08
-0.07
-0.05
-0.03
-0.015
0.0
0.02
0.06
0.09
0.13
0.185
0.23
0.27
0.305
0.33
0.355
0.325
0.295
0.24
0.16
0.1
0.04
0.015
-0.005
-0.01
-0.025
-0.015
-0.02
-0.015
-0.015
-0.015
0.0
0.0
0.0
-0.015
-0.01
-0.015
-0.02
-0.025
-0.03
-0.035
-0.045
-0.04
-0.045
-0.055
-0.055
-0.065
-0.07
-0.065
-0.07
-0.055
-0.065
-0.07
-0.075
-0.08
-0.085
-0.075
-0.085
-0.07
-0.09
-0.06
-0.01
-0.01
0.01
0.055
0.055
0.045
-0.01
-0.045
-0.08
-0.11
-0.13
-0.145
-0.155
-0.14
-0.145
-0.13
-0.1
0.4
1.14
0.755
0.17
-0.295
-0.385
-0.33
-0.265
-0.12
-0.135
-0.115
-0.12
-0.11
-0.11
-0.1
-0.095
-0.085
-0.08
-0.06
-0.045
-0.03
-0.015
0.0
0.03
0.07
0.09
0.14
0.19
0.23
0.275
0.31
0.335
0.36
0.35
0.305
0.24
0.18
0.105
0.055
0.01
-0.005
-0.01
-0.025
-0.025
-0.025
-0.02
-0.02
-0.02
-0.015
-0.025
-0.025
-0.015
-0.02
-0.03
-0.025
-0.025
-0.03
-0.05
-0.06
-0.045
-0.055
-0.045
-0.065
-0.06
-0.065
-0.065
-0.065
-0.065
-0.07
-0.07
-0.08
-0.08
-0.07
-0.08
-0.085
-0.09
-0.1
-0.085
-0.035
-0.015
0.0
0.025
0.035
0.06
0.02
-0.02
-0.05
-0.08
-0.1
-0.125
-0.14
-0.13
-0.14
-0.135
-0.115
0.05
0.645
1.12
0.73
-0.06
-0.395
-0.385
-0.3
-0.165
-0.12
-0.125
-0.115
-0.11
-0.105
-0.105
-0.1
-0.09
-0.085
-0.08
-0.065
-0.055
-0.035
-0.01
0.005
0.04
0.07
0.105
0.15
0.2
0.235
0.27
0.31
0.34
0.35
0.335
0.275
0.215
0.15
0.09
0.03
0.0
-0.01
-0.015
-0.035
-0.025
-0.025
-0.025
-0.015
-0.015
-0.02
-0.02
-0.015
-0.02
-0.015
-0.025
-0.035
-0.045
-0.055
-0.055
-0.055
-0.05
-0.065
-0.055
-0.065
-0.075
-0.075
-0.07
-0.07
-0.075
-0.075
-0.08
-0.075
-0.075
-0.09
-0.1
-0.09
-0.09
-0.085
-0.09
-0.035
-0.015
0.005
0.02
0.05
0.07
0.035
0.0
-0.025
-0.085
-0.1
-0.135
-0.135
-0.135
-0.13
-0.135
-0.135
-0.03
0.51
1.185
0.745
-0.01
-0.4
-0.4
-0.315
-0.195
-0.115
-0.135
-0.12
-0.11
-0.11
-0.11
-0.1
-0.09
-0.09
-0.085
-0.06
-0.055
-0.04
-0.03
0.0
0.03
0.065
0.1
0.135
0.185
0.23
0.265
0.31
0.345
0.36
0.335
0.29
0.22
0.16
0.105
0.05
0.025
-0.02
-0.02
-0.02
-0.03
-0.02
-0.03
-0.025
-0.015
-0.025
-0.015
-0.015
-0.02
-0.01
-0.025
-0.035
-0.035
-0.055
-0.055
-0.045
-0.06
-0.065
-0.07
-0.075
-0.07
-0.075
-0.085
-0.085
-0.09
-0.085
-0.095
-0.095
-0.085
-0.095
-0.105
-0.095
-0.1
-0.06
-0.025
0.0
0.0
0.025
0.07
0.065
0.015
-0.01
-0.04
-0.08
-0.12
-0.135
-0.145
-0.12
-0.145
-0.125
-0.13
0.275
0.995
0.84
0.4
-0.2
-0.405
-0.37
-0.305
-0.135
-0.13
-0.125
-0.135
-0.11
-0.125
-0.105
-0.1
-0.1
-0.1
-0.085
-0.055
-0.055
-0.035
-0.005
0.005
0.04
0.07
0.115
0.15
0.21
0.255
0.285
0.33
0.35
0.35
0.315
0.255
0.185
0.11
0.06
0.01
-0.015
-0.02
-0.03
-0.035
-0.035
-0.035
-0.025
-0.03
-0.025
-0.025
-0.03
-0.025
-0.02
-0.03
-0.035
-0.04
-0.045
-0.05
-0.055
-0.05
-0.06
-0.07
-0.07
-0.08
-0.08
-0.08
-0.07
-0.075
-0.075
-0.09
-0.085
-0.09
-0.085
-0.085
-0.085
-0.095
-0.065
-0.03
-0.01
0.005
0.015
0.06
0.075
0.045
-0.01
-0.035
-0.095
-0.13
-0.145
-0.16
-0.145
-0.155
-0.14
-0.145
0.155
0.805
0.965
0.58
-0.15
-0.42
-0.4
-0.31
-0.145
-0.135
-0.13
-0.14
-0.12
-0.12
-0.1
-0.095
-0.08
-0.085
-0.075
-0.065
-0.04
-0.025
0.0
0.015
0.04
0.08
0.125
0.16
0.2
0.255
0.29
0.315
0.345
0.35
0.315
0.265
0.2
0.13
0.085
0.035
0.0
-0.01
-0.03
-0.03
-0.03
-0.035
-0.02
-0.01
-0.03
-0.015
-0.02
-0.015
-0.015
-0.01
-0.02
-0.035
-0.02
-0.045
-0.055
-0.06
-0.08
-0.065
-0.055
-0.065
-0.085
-0.085
-0.085
-0.07
-0.075
-0.09
-0.095
-0.07
-0.09
-0.09
-0.085
-0.08
-0.085
-0.045
-0.025
0.015
0.005
0.03
0.095
0.07
0.005
-0.01
-0.075
-0.075
-0.11
-0.135
-0.15
-0.145
-0.15
-0.135
-0.095
0.38
1.14
0.79
0.23
-0.295
-0.39
-0.36
-0.295
-0.115
-0.135
-0.125
-0.12
-0.125
-0.125
-0.11
-0.105
-0.09
-0.095
-0.075
-0.07
-0.03
-0.03
0.005
0.025
0.04
0.09
0.125
0.185
0.23
0.27
0.31
0.345
0.365
0.35
0.325
0.24
0.165
0.085
0.05
0.015
-0.02
-0.02
-0.03
-0.035
-0.045
-0.03
-0.025
-0.025
-0.025
-0.02
-0.02
-0.015
-0.04
-0.03
-0.035
-0.045
-0.035
-0.06
-0.06
-0.06
-0.07
-0.07
-0.08
-0.09
-0.085
-0.075
-0.085
-0.095
-0.085
-0.11
-0.1
-0.095
-0.09
-0.12
-0.085
-0.08
-0.055
-0.04
-0.015
-0.02
0.045
0.075
0.05
0.005
-0.03
-0.065
-0.095
-0.135
-0.145
-0.155
-0.15
-0.135
-0.135
-0.1
0.445
1.255
0.895
0.145
-0.355
-0.41
-0.33
-0.265
-0.145
-0.145
-0.12
-0.13
-0.12
-0.125
-0.1
-0.09
-0.09
-0.09
-0.085
-0.07
-0.04
-0.025
0.0
0.025
0.065
0.1
0.145
0.195
0.26
0.28
0.33
0.37
0.37
0.365
0.305
0.245
0.165
0.085
0.045
0.0
-0.02
-0.045
-0.035
-0.03
-0.03
-0.025
-0.04
-0.04
-0.02
-0.025
-0.02
-0.02
-0.015
-0.025
-0.03
-0.035
-0.045
-0.035
-0.05
-0.065
-0.06
-0.055
-0.065
-0.08
-0.075
-0.075
-0.085
-0.08
-0.075
-0.09
-0.085
-0.08
-0.085
-0.095
-0.09
-0.105
-0.095
-0.03
-0.025
-0.01
-0.005
0.025
0.065
0.04
-0.02
-0.025
-0.075
-0.115
-0.14
-0.155
-0.14
-0.145
-0.135
-0.135
0.025
0.62
1.19
0.785
-0.06
-0.43
-0.43
-0.31
-0.175
-0.14
-0.125
-0.125
-0.115
-0.11
-0.095
-0.105
-0.095
-0.085
-0.07
-0.065
-0.045
-0.035
-0.01
0.005
0.035
0.07
0.105
0.135
0.175
0.23
0.27
0.305
0.345
0.355
0.335
0.285
0.215
0.155
0.08
0.02
-0.005
-0.025
-0.03
-0.04
-0.05
-0.045
-0.045
-0.035
-0.035
-0.03
-0.035
-0.035
-0.025
-0.025
-0.025
-0.035
-0.04
-0.04
-0.055
-0.06
-0.06
-0.06
-0.065
-0.07
-0.08
-0.085
-0.085
-0.08
-0.08
-0.08
-0.085
-0.085
-0.09
-0.085
-0.085
-0.085
-0.09
-0.09
-0.095
-0.05
-0.02
0.0
0.0
0.025
0.06
0.06
0.0
-0.01
-0.045
-0.08
-0.13
-0.14
-0.145
-0.125
-0.14
-0.12
-0.125
0.275
1.01
0.89
0.38
-0.305
-0.455
-0.395
-0.275
-0.11
-0.12
-0.115
-0.115
-0.105
-0.105
-0.09
-0.085
-0.075
-0.075
-0.065
-0.055
-0.04
-0.025
0.005
0.005
0.055
0.08
0.125
0.175
0.23
0.265
0.315
0.34
0.36
0.35
0.325
0.265
0.21
0.145
0.075
0.015
0.0
-0.01
-0.025
-0.025
-0.03
-0.03
-0.015
-0.015
-0.025
-0.01
-0.01
0.0
-0.01
-0.01
-0.025
-0.035
-0.035
-0.025
-0.04
-0.06
-0.055
-0.055
-0.05
-0.065
-0.07
-0.06
-0.07
-0.065
-0.08
-0.08
-0.065
-0.075
-0.08
-0.09
-0.095
-0.095
-0.085
-0.09
-0.085
-0.04
-0.015
0.0
0.0
0.04
0.07
0.05
0.0
-0.04
-0.09
-0.115
-0.135
-0.155
-0.155
-0.135
-0.14
-0.135
0.015
0.575
1.185
0.785
-0.025
-0.435
-0.435
-0.335
-0.205
-0.14
-0.135
-0.115
-0.125
-0.115
-0.1
-0.11
-0.1
-0.075
-0.07
-0.07
-0.06
-0.025
-0.02
0.01
0.035
0.06
0.1
0.16
0.19
0.25
0.29
0.335
0.37
0.375
0.36
0.31
0.255
0.155
0.105
0.055
0.02
0.0
-0.005
-0.015
-0.03
-0.015
-0.015
-0.025
-0.025
-0.01
-0.015
-0.015
-0.02
-0.02
-0.02
-0.03
-0.03
-0.045
-0.07
-0.065
-0.06
-0.05
-0.06
-0.085
-0.075
-0.085
-0.09
-0.085
-0.08
-0.105
-0.105
-0.1
-0.1
-0.095
-0.1
-0.095
-0.09
-0.095
-0.085
-0.02
-0.025
0.0
0.01
0.05
0.065
0.005
-0.02
-0.045
-0.085
-0.125
-0.135
-0.155
-0.15
-0.145
-0.14
-0.15
0.115
0.77
1.105
0.71
-0.115
-0.45
-0.435
-0.33
-0.16
-0.135
-0.135
-0.135
-0.125
-0.12
-0.115
-0.11
-0.1
-0.09
-0.08
-0.07
-0.05
-0.035
-0.02
0.005
0.025
0.06
0.115
0.15
0.195
0.25
0.28
0.32
0.345
0.355
0.325
0.27
0.195
0.13
0.065
0.02
0.005
-0.005
-0.025
-0.045
-0.04
-0.025
-0.035
-0.025
-0.025
-0.02
-0.015
-0.02
-0.025
-0.03
-0.035
-0.035
-0.05
-0.05
-0.055
-0.06
-0.07
-0.065
-0.065
-0.08
-0.085
-0.08
-0.085
-0.085
-0.08
-0.08
-0.095
-0.08
-0.095
-0.08
-0.09
-0.095
-0.1
-0.09
-0.1
-0.065
-0.025
0.0
0.015
0.03
0.045
0.025
-0.015
-0.025
-0.065
-0.095
-0.14
-0.14
-0.16
-0.145
-0.16
-0.14
-0.15
0.275
1.02
0.875
0.39
-0.275
-0.45
-0.4
-0.295
-0.135
-0.145
-0.12
-0.135
-0.12
-0.12
-0.105
-0.105
-0.1
-0.08
-0.075
-0.07
-0.055
-0.05
-0.015
0.01
0.035
0.07
0.105
0.145
0.205
0.245
0.285
0.31
0.35
0.34
0.315
0.27
0.195
0.11
0.06
0.015
-0.01
-0.015
-0.04
-0.035
-0.035
-0.035
-0.035
-0.03
-0.015
-0.03
-0.015
-0.005
-0.015
-0.015
-0.025
-0.025
-0.03
-0.04
-0.065
-0.045
-0.05
-0.06
-0.065
-0.065
-0.07
-0.075
-0.075
-0.07
-0.075
-0.095
-0.08
-0.075
-0.09
-0.095
-0.085
-0.085
-0.085
-0.1
-0.02
-0.015
-0.005
0.02
0.045
0.05
0.04
-0.03
-0.05
-0.085
-0.105
-0.135
-0.145
-0.14
-0.155
-0.15
-0.14
-0.065
0.48
1.235
0.805
0.06
-0.38
-0.435
-0.345
-0.24
-0.13
-0.145
-0.12
-0.125
-0.105
-0.11
-0.11
-0.08
-0.085
-0.085
-0.05
-0.05
-0.035
-0.03
0.01
0.03
0.055
0.105
0.135
0.185
0.23
0.27
0.33
0.36
0.36
0.35
0.315
0.26
0.185
0.1
0.045
0.0
-0.005
-0.03
-0.03
-0.035
-0.03
-0.025
-0.025
-0.03
-0.03
-0.005
-0.005
-0.015
-0.02
-0.045
-0.035
-0.045
-0.04
-0.055
-0.065
-0.06
-0.075
-0.075
-0.08
-0.07
-0.08
-0.08
-0.09
-0.085
-0.095
-0.11
-0.105
-0.09
-0.105
-0.095
-0.11
-0.105
-0.075
-0.03
-0.02
0.02
0.035
0.025
0.0
-0.035
-0.07
-0.095
-0.13
-0.14
-0.145
-0.14
-0.145
-0.135
-0.145
0.25
1.02
0.97
0.485
-0.205
-0.43
-0.385
-0.29
-0.125
-0.13
-0.12
-0.125
-0.115
-0.12
-0.1
-0.095
-0.09
-0.075
-0.06
-0.065
-0.05
-0.03
0.005
0.025
0.065
0.095
0.125
0.185
0.22
0.265
0.305
0.35
0.37
0.37
0.335
0.27
0.185
0.115
0.06
0.02
-0.005
-0.015
-0.03
-0.04
-0.035
-0.03
-0.03
-0.035
-0.025
-0.02
-0.02
-0.02
-0.015
-0.025
-0.015
-0.04
-0.045
-0.045
-0.045
-0.04
-0.055
-0.07
-0.065
-0.08
-0.07
-0.075
-0.075
-0.075
-0.08
-0.08
-0.085
-0.085
-0.085
-0.1
-0.09
-0.1
-0.1
-0.085
-0.04
0.0
0.01
0.02
0.055
0.005
-0.035
-0.085
-0.09
-0.11
-0.145
-0.15
-0.15
-0.16
-0.135
-0.15
0.155
0.83
1.02
0.595
-0.195
-0.45
-0.44
-0.315
-0.135
-0.14
-0.135
-0.12
-0.115
-0.12
-0.105
-0.105
-0.095
-0.1
-0.08
-0.075
-0.06
-0.03
-0.02
0.0
0.045
0.07
0.11
0.15
0.195
0.235
0.295
0.325
0.35
0.365
0.325
0.27
0.2
0.125
0.08
0.03
0.0
-0.015
-0.025
-0.035
-0.03
-0.02
-0.01
-0.015
-0.02
-0.01
-0.005
-0.005
0.0
-0.02
-0.015
-0.015
-0.025
-0.02
-0.035
-0.04
-0.05
-0.05
-0.05
-0.045
-0.06
-0.055
-0.065
-0.07
-0.065
-0.07
-0.065
-0.085
-0.08
-0.08
-0.085
-0.085
-0.07
-0.065
-0.02
0.0
0.035
0.04
0.075
0.01
-0.015
-0.07
-0.08
-0.105
-0.145
-0.135
-0.135
-0.14
-0.115
-0.14
0.175
0.85
1.0
0.615
-0.175
-0.465
-0.425
-0.305
-0.135
-0.125
-0.135
-0.13
-0.125
-0.1
-0.095
-0.09
-0.09
-0.095
-0.065
-0.055
-0.03
-0.02
-0.005
0.015
0.045
0.095
0.13
0.155
0.225
0.26
0.295
0.35
0.365
0.36
0.345
0.28
0.205
0.135
0.065
0.01
0.0
-0.02
-0.03
-0.03
-0.045
-0.035
-0.035
-0.025
-0.03
-0.03
-0.02
-0.02
-0.01
-0.025
-0.015
-0.04
-0.045
-0.055
-0.05
-0.05
-0.065
-0.055
-0.07
-0.08
-0.075
-0.08
-0.085
-0.085
-0.09
-0.07
-0.08
-0.085
-0.09
-0.1
-0.095
-0.105
-0.07
-0.04
-0.005
0.015
0.03
0.055
0.015
-0.025
-0.08
-0.08
-0.095
-0.155
-0.15
-0.14
-0.145
-0.145
-0.145
0.065
0.695
1.145
0.765
-0.09
-0.45
-0.445
-0.33
-0.175
-0.145
-0.13
-0.12
-0.115
-0.115
-0.105
-0.095
-0.09
-0.09
-0.08
-0.065
-0.045
-0.035
-0.005
0.015
0.04
0.085
0.115
0.16
0.215
0.255
0.3
0.335
0.36
0.37
0.35
0.3
0.215
0.14
0.085
0.03
-0.005
-0.015
-0.025
-0.035
-0.03
-0.03
-0.03
-0.035
-0.03
-0.025
-0.02
-0.03
-0.025
-0.02
-0.035
-0.025
-0.04
-0.045
-0.06
-0.055
-0.06
-0.07
-0.075
-0.07
-0.07
-0.07
-0.085
-0.09
-0.085
-0.095
-0.095
-0.095
-0.085
-0.09
-0.1
-0.105
-0.07
-0.06
-0.015
0.01
0.045
0.06
0.025
-0.02
-0.06
-0.07
-0.105
-0.135
-0.145
-0.15
-0.135
-0.15
-0.13
-0.03
0.56
1.255
0.82
-0.025
-0.44
-0.455
-0.335
-0.2
-0.125
-0.125
-0.135
-0.135
-0.125
-0.115
-0.11
-0.1
-0.085
-0.09
-0.065
-0.06
-0.045
-0.015
0.005
0.015
0.05
0.095
0.14
0.185
0.24
0.28
0.31
0.345
0.35
0.335
0.285
0.225
0.15
0.08
0.035
0.005
-0.02
-0.035
-0.025
-0.04
-0.04
-0.04
-0.04
-0.03
-0.01
-0.02
-0.025
-0.02
-0.025
-0.03
-0.045
-0.04
-0.045
-0.055
-0.06
-0.065
-0.065
-0.065
-0.065
-0.08
-0.08
-0.08
-0.075
-0.085
-0.075
-0.085
-0.07
-0.075
-0.08
-0.08
-0.09
-0.075
-0.07
-0.055
0.0
0.0
0.06
0.06
0.055
-0.005
-0.04
-0.07
-0.085
-0.12
-0.125
-0.14
-0.13
-0.14
-0.12
-0.115
0.36
1.125
0.835
0.275
-0.335
-0.44
-0.38
-0.265
-0.12
-0.135
-0.12
-0.11
-0.105
-0.11
-0.105
-0.11
-0.08
-0.08
-0.075
-0.06
-0.04
-0.015
0.015
0.02
0.05
0.085
0.135
0.18
0.225
0.27
0.31
0.34
0.36
0.345
0.315
0.26
0.175
0.105
0.055
0.015
-0.015
-0.025
-0.02
-0.045
-0.03
-0.04
-0.025
-0.03
-0.025
-0.015
-0.01
-0.015
-0.025
-0.005
-0.025
-0.025
-0.04
-0.06
-0.055
-0.045
-0.065
-0.075
-0.075
-0.06
-0.085
-0.07
-0.075
-0.085
-0.07
-0.085
-0.095
-0.08
-0.095
-0.085
-0.09
-0.075
-0.075
-0.035
0.0
0.03
0.045
0.04
0.005
-0.025
-0.075
-0.1
-0.12
-0.135
-0.15
-0.12
-0.15
-0.14
-0.14
0.265
1.015
0.95
0.465
-0.225
-0.455
-0.42
-0.315
-0.13
-0.135
-0.12
-0.135
-0.12
-0.115
-0.105
-0.105
-0.1
-0.08
-0.075
-0.07
-0.045
-0.015
-0.02
0.015
0.045
0.065
0.115
0.17
0.24
0.255
0.29
0.33
0.365
0.355
0.33
0.265
0.2
0.14
0.08
0.03
-0.005
-0.02
-0.02
-0.03
-0.025
-0.025
-0.025
-0.025
-0.025
-0.02
-0.015
-0.01
-0.01
-0.01
-0.025
-0.025
-0.02
-0.04
-0.04
-0.065
-0.06
-0.06
-0.055
-0.055
-0.07
-0.085
-0.08
-0.07
-0.075
-0.08
-0.09
-0.08
-0.095
-0.095
-0.08
-0.09
-0.075
-0.035
0.0
0.0
0.03
0.065
0.02
-0.02
-0.065
-0.075
-0.1
-0.135
-0.15
-0.14
-0.14
-0.125
-0.145
0.08
0.745
1.16
0.74
-0.135
-0.475
-0.44
-0.32
-0.16
-0.135
-0.12
-0.125
-0.115
-0.105
-0.095
-0.09
-0.085
-0.09
-0.085
-0.06
-0.035
-0.03
-0.01
0.01
0.035
0.075
0.1
0.15
0.205
0.25
0.29
0.325
0.355
0.355
0.335
0.285
0.22
0.14
0.08
0.03
0.0
-0.01
-0.03
-0.03
-0.04
-0.035
-0.04
-0.025
-0.03
-0.025
-0.005
-0.015
-0.02
-0.015
-0.025
-0.035
-0.04
-0.045
-0.045
-0.065
-0.065
-0.065
-0.06
-0.06
-0.07
-0.065
-0.075
-0.07
-0.085
-0.075
-0.085
-0.075
-0.085
-0.085
-0.09
-0.08
-0.095
-0.08
-0.065
-0.01
0.005
0.045
0.07
0.05
-0.005
-0.03
-0.05
-0.1
-0.12
-0.145
-0.14
-0.125
-0.14
-0.125
-0.115
0.43
1.235
0.83
0.115
-0.395
-0.465
-0.365
-0.235
-0.115
-0.135
-0.115
-0.125
-0.1
-0.115
-0.1
-0.095
-0.08
-0.075
-0.065
-0.065
-0.04
-0.03
0.0
0.02
0.065
0.09
0.14
0.165
0.225
0.26
0.29
0.33
0.35
0.345
0.31
0.24
0.18
0.12
0.06
0.03
0.005
-0.01
-0.015
-0.02
-0.02
-0.015
-0.01
-0.005
-0.015
-0.005
-0.005
0.0
-0.005
-0.02
-0.01
-0.03
-0.04
-0.045
-0.05
-0.035
-0.06
-0.05
-0.04
-0.065
-0.07
-0.075
-0.07
-0.095
-0.065
-0.085
-0.09
-0.085
-0.085
-0.095
-0.085
-0.095
-0.085
-0.065
-0.025
-0.015
0.035
0.04
0.05
-0.005
-0.03
-0.085
-0.115
-0.12
-0.14
-0.135
-0.135
-0.16
-0.125
-0.12
0.355
1.12
0.845
0.295
-0.295
-0.445
-0.385
-0.285
-0.11
-0.135
-0.115
-0.12
-0.11
-0.11
-0.095
-0.1
-0.07
-0.085
-0.065
-0.055
-0.045
-0.02
0.0
0.035
0.05
0.085
0.125
0.145
0.215
0.255
0.295
0.32
0.35
0.345
0.315
0.26
0.19
0.13
0.06
0.03
-0.01
-0.02
-0.03
-0.035
-0.03
-0.035
-0.03
-0.015
-0.03
-0.035
-0.01
-0.02
-0.02
-0.035
-0.045
-0.05
-0.05
-0.05
-0.05
-0.065
-0.055
-0.06
-0.07
-0.07
-0.085
-0.075
-0.06
-0.07
-0.085
-0.09
-0.07
-0.08
-0.09
-0.095
-0.095
-0.1
-0.085
-0.075
-0.015
0.0
0.03
0.055
0.02
-0.025
-0.06
-0.08
-0.1
-0.135
-0.14
-0.15
-0.145
-0.15
-0.13
-0.05
0.53
1.28
0.845
0.0
-0.425
-0.44
-0.33
-0.22
-0.12
-0.12
-0.11
-0.105
-0.11
-0.1
-0.085
-0.09
-0.085
-0.065
-0.055
-0.05
-0.03
-0.025
0.0
0.03
0.065
0.095
0.14
0.18
0.23
0.26
0.295
0.33
0.35
0.335
0.295
0.23
0.175
0.105
0.055
0.015
0.0
-0.015
-0.03
-0.025
-0.035
-0.03
-0.025
-0.02
-0.025
-0.02
-0.015
-0.015
-0.03
-0.03
-0.035
-0.03
-0.03
-0.045
-0.05
-0.05
-0.04
-0.05
-0.055
-0.065
-0.06
-0.06
-0.065
-0.08
-0.07
-0.075
-0.065
-0.08
-0.075
-0.075
-0.07
-0.085
-0.08
-0.085
-0.075
-0.055
0.0
0.005
0.045
0.06
0.03
-0.01
-0.025
-0.05
-0.095
-0.12
-0.14
-0.15
-0.135
-0.145
-0.135
-0.09
0.45
1.24
0.84
0.09
-0.39
-0.46
-0.355
-0.235
-0.12
-0.135
-0.115
-0.105
-0.095
-0.095
-0.085
-0.08
-0.08
-0.085
-0.075
-0.055
-0.035
-0.015
-0.005
0.025
0.075
0.085
0.125
0.16
0.215
0.245
0.29
0.315
0.335
0.34
0.305
0.255
0.2
0.14
0.08
0.03
0.005
0.0
0.0
-0.015
-0.01
-0.005
-0.015
-0.015
0.0
-0.005
-0.01
-0.005
-0.015
-0.025
-0.02
-0.02
-0.03
-0.045
-0.045
-0.065
-0.055
-0.05
-0.06
-0.055
-0.065
-0.065
-0.07
-0.075
-0.075
-0.07
-0.07
-0.08
-0.09
-0.075
-0.095
-0.1
-0.095
-0.095
-0.08
-0.075
-0.015
0.0
0.05
0.065
0.045
-0.01
-0.045
-0.06
-0.085
-0.12
-0.145
-0.14
-0.125
-0.14
-0.12
-0.105
0.42
1.215
0.835
0.16
-0.35
-0.445
-0.355
-0.255
-0.125
-0.125
-0.115
-0.12
-0.11
-0.11
-0.105
-0.1
-0.085
-0.085
-0.07
-0.06
-0.04
-0.02
0.005
0.01
0.045
0.075
0.115
0.165
0.21
0.26
0.295
0.33
0.335
0.335
0.325
0.25
0.19
0.13
0.07
0.03
0.005
-0.01
-0.02
-0.035
-0.015
-0.025
-0.03
-0.02
-0.02
-0.01
-0.025
-0.025
-0.025
-0.03
-0.035
-0.03
-0.05
-0.04
-0.065
-0.05
-0.055
-0.055
-0.07
-0.075
-0.075
-0.07
-0.075
-0.075
-0.065
-0.075
-0.075
-0.08
-0.095
-0.085
-0.085
-0.085
-0.08
-0.075
-0.035
-0.005
0.005
0.055
0.055
0.04
-0.005
-0.035
-0.055
-0.09
-0.125
-0.15
-0.145
-0.12
-0.14
-0.13
-0.095
0.44
1.25
0.865
0.125
-0.36
-0.45
-0.36
-0.245
-0.125
-0.135
-0.13
-0.13
-0.11
-0.105
-0.1
-0.095
-0.09
-0.09
-0.08
-0.06
-0.035
-0.03
-0.01
0.015
0.04
0.07
0.11
0.16
0.195
0.24
0.27
0.31
0.335
0.335
0.305
0.245
0.19
0.13
0.065
0.03
0.0
-0.02
-0.015
-0.025
-0.015
-0.015
-0.015
-0.015
0.0
-0.005
-0.005
-0.005
-0.01
-0.01
-0.02
-0.035
-0.04
-0.045
-0.05
-0.055
-0.065
-0.055
-0.065
-0.07
-0.07
-0.07
-0.08
-0.08
-0.085
-0.085
-0.085
-0.09
-0.09
-0.085
-0.09
-0.085
-0.095
-0.08
-0.02
0.0
0.015
0.05
0.05
0.065
0.015
-0.015
-0.055
-0.075
-0.095
-0.12
-0.13
-0.13
-0.125
-0.12
-0.13
0.07
0.67
1.14
0.71
-0.135
-0.455
-0.45
-0.305
-0.15
-0.11
-0.115
-0.115
-0.095
-0.08
-0.095
-0.085
-0.08
-0.08
-0.065
-0.045
-0.04
-0.025
-0.005
0.005
0.03
0.055
0.095
0.135
0.2
0.225
0.27
0.3
0.32
0.345
0.335
0.285
0.24
0.165
0.09
0.045
0.025
-0.005
-0.02
-0.025
-0.03
-0.03
-0.01
-0.015
-0.01
-0.01
-0.01
-0.01
-0.02
-0.02
-0.025
-0.03
-0.04
-0.06
-0.055
-0.05
-0.06
-0.075
-0.065
-0.07
-0.085
-0.09
-0.095
-0.095
-0.105
-0.095
-0.065
-0.085
-0.095
-0.09
-0.085
-0.105
-0.055
-0.045
-0.015
0.005
0.03
0.08
0.065
-0.025
-0.02
-0.07
-0.105
-0.13
-0.15
-0.145
-0.145
-0.145
-0.14
-0.1
0.395
1.185
0.805
0.18
-0.32
-0.445
-0.36
-0.3
-0.13
-0.135
-0.125
-0.12
-0.095
-0.125
-0.095
-0.095
-0.08
-0.08
-0.06
-0.05
-0.05
-0.025
-0.01
0.025
0.04
0.085
0.13
0.15
0.21
0.255
0.295
0.33
0.345
0.36
0.31
0.26
0.2
0.11
0.07
0.025
-0.005
-0.025
-0.02
-0.025
-0.04
-0.045
-0.03
-0.02
-0.01
-0.015
-0.025
-0.035
-0.02
-0.045
-0.045
-0.045
-0.055
-0.045
-0.065
-0.07
-0.06
-0.085
-0.075
-0.08
-0.075
-0.08
-0.07
-0.095
-0.095
-0.11
-0.095
-0.1
-0.09
-0.095
-0.06
-0.04
0.0
0.0
0.025
0.07
0.07
0.01
-0.02
-0.05
-0.085
-0.13
-0.135
-0.15
-0.15
-0.145
-0.145
-0.13
0.335
1.145
0.89
0.31
-0.285
-0.445
-0.39
-0.285
-0.135
-0.15
-0.135
-0.13
-0.115
-0.11
-0.1
-0.115
-0.095
-0.09
-0.07
-0.07
-0.04
-0.03
0.0
0.01
0.045
0.07
0.115
0.165
0.185
0.235
0.275
0.32
0.335
0.345
0.31
0.25
0.185
0.115
0.055
0.015
-0.005
-0.02
-0.015
-0.035
-0.03
-0.025
-0.025
-0.025
-0.02
-0.02
-0.01
-0.01
-0.01
-0.03
-0.035
-0.045
-0.045
-0.055
-0.055
-0.07
-0.07
-0.08
-0.08
-0.085
-0.085
-0.085
-0.08
-0.085
-0.095
-0.1
-0.09
-0.09
-0.09
-0.105
-0.065
-0.02
0.005
0.0
0.02
0.06
0.065
0.015
-0.005
-0.055
-0.1
-0.135
-0.145
-0.155
-0.145
-0.16
-0.135
-0.145
0.255
1.005
0.875
0.36
-0.305
-0.48
-0.435
-0.315
-0.14
-0.15
-0.14
-0.135
-0.115
-0.13
-0.12
-0.11
-0.105
-0.095
-0.075
-0.075
-0.055
-0.04
-0.01
0.005
0.035
0.065
0.105
0.13
0.19
0.235
0.27
0.315
0.34
0.335
0.3
0.25
0.185
0.125
0.075
0.025
-0.005
-0.02
-0.03
-0.025
-0.02
-0.035
-0.02
-0.02
-0.03
-0.01
-0.015
-0.02
-0.03
-0.035
-0.03
-0.045
-0.05
-0.06
-0.07
-0.085
-0.075
-0.085
-0.09
-0.08
-0.09
-0.08
-0.08
-0.1
-0.11
-0.08
-0.095
-0.105
-0.11
-0.09
-0.035
-0.025
-0.015
0.01
0.035
0.06
0.04
-0.025
-0.05
-0.115
-0.13
-0.145
-0.145
-0.155
-0.165
-0.15
-0.145
0.09
0.705
1.07
0.67
-0.15
-0.47
-0.455
-0.345
-0.2
-0.14
-0.15
-0.13
-0.11
-0.135
-0.11
-0.115
-0.105
-0.105
-0.09
-0.085
-0.055
-0.04
-0.025
0.0
0.02
0.055
0.105
0.125
0.175
0.225
0.275
0.315
0.33
0.345
0.32
0.265
0.205
0.11
0.045
0.015
0.005
-0.015
-0.02
-0.02
-0.025
-0.03
-0.045
-0.045
-0.025
-0.01
-0.035
-0.015
-0.02
-0.025
-0.025
-0.035
-0.06
-0.06
-0.055
-0.07
-0.07
-0.075
-0.09
-0.075
-0.085
-0.075
-0.095
-0.075
-0.09
-0.1
-0.1
-0.1
-0.095
-0.045
-0.03
0.0
0.0
0.025
0.075
0.055
-0.015
-0.015
-0.06
-0.08
-0.145
-0.145
-0.15
-0.155
-0.145
-0.145
-0.135
0.4
1.215
0.855
0.185
-0.38
-0.475
-0.395
-0.28
-0.15
-0.16
-0.135
-0.15
-0.115
-0.12
-0.115
-0.105
-0.09
-0.095
-0.075
-0.06
-0.05
-0.035
-0.01
0.02
0.045
0.085
0.135
0.18
0.225
0.27
0.3
0.33
0.365
0.345
0.31
0.245
0.165
0.1
0.045
0.005
-0.005
-0.025
-0.035
-0.045
-0.035
-0.035
-0.045
-0.035
-0.025
-0.02
-0.025
-0.025
-0.02
-0.025
-0.035
-0.05
-0.055
-0.06
-0.06
-0.065
-0.075
-0.07
-0.07
-0.07
-0.08
-0.085
-0.09
-0.095
-0.1
-0.095
-0.105
-0.105
-0.105
-0.07
-0.04
-0.02
-0.005
0.005
0.05
0.06
0.02
-0.015
-0.05
-0.09
-0.13
-0.155
-0.155
-0.155
-0.155
-0.145
-0.15
0.13
0.81
1.04
0.61
-0.19
-0.475
-0.44
-0.315
-0.145
-0.135
-0.12
-0.125
-0.115
-0.115
-0.095
-0.105
-0.085
-0.075
-0.065
-0.065
-0.05
-0.02
-0.005
0.01
0.03
0.07
0.105
0.155
0.2
0.235
0.28
0.31
0.34
0.34
0.31
0.26
0.195
0.125
0.065
0.015
-0.01
-0.025
-0.025
-0.03
-0.035
-0.035
-0.035
-0.025
-0.025
-0.02
-0.03
-0.02
-0.025
-0.035
-0.04
-0.05
-0.05
-0.06
-0.07
-0.065
-0.07
-0.075
-0.075
-0.065
-0.075
-0.08
-0.08
-0.08
-0.095
-0.085
-0.09
-0.09
-0.1
-0.09
-0.095
-0.06
-0.025
0.0
0.005
0.025
0.065
0.07
0.03
-0.01
-0.045
-0.095
-0.125
-0.13
-0.145
-0.115
-0.125
-0.125
-0.135
0.185
0.865
0.96
0.535
-0.245
-0.47
-0.43
-0.305
-0.11
-0.14
-0.115
-0.125
-0.1
-0.1
-0.095
-0.1
-0.085
-0.07
-0.07
-0.065
-0.045
-0.025
0.0
0.015
0.035
0.07
0.115
0.15
0.21
0.24
0.28
0.32
0.355
0.335
0.315
0.275
0.21
0.15
0.075
0.02
0.01
-0.005
-0.03
-0.02
-0.025
-0.02
-0.025
-0.025
-0.02
-0.01
-0.02
-0.015
-0.03
-0.035
-0.03
-0.045
-0.065
-0.055
-0.05
-0.055
-0.065
-0.085
-0.07
-0.07
-0.075
-0.08
-0.085
-0.09
-0.1
-0.095
-0.095
-0.075
-0.105
-0.105
-0.1
-0.06
-0.035
-0.005
0.0
0.01
0.06
0.07
0.02
-0.01
-0.06
-0.09
-0.115
-0.12
-0.155
-0.155
-0.14
-0.145
-0.135
0.215
0.875
0.915
0.535
-0.18
-0.46
-0.43
-0.315
-0.135
-0.145
-0.13
-0.125
-0.115
-0.125
-0.095
-0.095
-0.085
-0.09
-0.08
-0.055
-0.035
-0.02
0.0
0.005
0.04
0.075
0.115
0.155
0.2
0.255
0.27
0.315
0.355
0.35
0.325
0.275
0.21
0.13
0.065
0.045
0.0
-0.005
-0.03
-0.015
-0.03
-0.04
-0.025
-0.03
-0.005
-0.035
-0.025
-0.01
-0.015
-0.02
-0.03
-0.035
-0.03
-0.045
-0.045
-0.065
-0.065
-0.05
-0.075
-0.075
-0.07
-0.09
-0.085
-0.08
-0.065
-0.1
-0.085
-0.09
-0.105
-0.11
-0.08
-0.035
-0.025
-0.01
0.0
0.045
0.06
0.04
-0.005
-0.025
-0.1
-0.13
-0.14
-0.155
-0.145
-0.155
-0.145
-0.155
0.085
0.75
1.135
0.69
-0.145
-0.475
-0.44
-0.335
-0.175
-0.135
-0.135
-0.125
-0.125
-0.12
-0.115
-0.105
-0.085
-0.08
-0.075
-0.055
-0.06
-0.035
-0.02
0.005
0.03
0.05
0.105
0.15
0.19
0.225
0.27
0.31
0.345
0.35
0.325
0.275
0.205
0.135
0.08
0.02
0.0
-0.005
-0.03
-0.04
-0.04
-0.04
-0.035
-0.035
-0.035
-0.035
-0.03
-0.03
-0.035
-0.035
-0.04
-0.04
-0.055
-0.055
-0.055
-0.065
-0.08
-0.07
-0.07
-0.07
-0.075
-0.075
-0.085
-0.075
-0.085
-0.08
-0.085
-0.075
-0.09
-0.075
-0.085
-0.04
-0.02
0.005
0.01
0.035
0.075
0.055
0.005
-0.015
-0.06
-0.095
-0.135
-0.14
-0.15
-0.135
-0.145
-0.125
-0.14
0.295
1.07
0.88
0.335
-0.315
-0.47
-0.395
-0.28
-0.12
-0.135
-0.115
-0.12
-0.11
-0.115
-0.1
-0.105
-0.085
-0.085
-0.07
-0.065
-0.04
-0.035
-0.005
0.01
0.04
0.07
0.125
0.16
0.195
0.235
0.27
0.305
0.335
0.335
0.305
0.25
0.17
0.11
0.05
0.01
-0.01
-0.02
-0.025
-0.03
-0.03
-0.035
-0.03
-0.02
-0.015
-0.015
-0.015
-0.02
-0.02
-0.025
-0.04
-0.04
-0.035
-0.055
-0.035
-0.045
-0.045
-0.07
-0.065
-0.065
-0.045
-0.075
-0.075
-0.065
-0.075
-0.065
-0.075
-0.08
-0.08
-0.08
-0.08
-0.075
-0.045
-0.025
0.015
0.015
0.045
0.09
0.085
0.02
-0.005
-0.06
-0.095
-0.11
-0.14
-0.155
-0.12
-0.135
-0.135
-0.125
0.24
0.935
0.9
0.475
-0.255
-0.475
-0.425
-0.32
-0.14
-0.135
-0.135
-0.135
-0.115
-0.095
-0.11
-0.115
-0.075
-0.08
-0.07
-0.055
-0.035
-0.04
0.0
0.015
0.04
0.07
0.12
0.17
0.21
0.245
0.285
0.32
0.35
0.34
0.325
0.27
0.21
0.125
0.05
0.01
0.0
-0.02
-0.025
-0.03
-0.03
-0.035
-0.02
-0.03
-0.03
-0.025
-0.025
0.0
-0.03
-0.03
-0.035
-0.04
-0.07
-0.055
-0.06
-0.07
-0.075
-0.085
-0.08
-0.08
-0.085
-0.085
-0.095
-0.085
-0.115
-0.095
-0.1
-0.115
-0.105
-0.06
-0.04
-0.02
-0.01
0.015
0.07
0.06
-0.005
-0.03
-0.055
-0.105
-0.155
-0.16
-0.165
-0.15
-0.155
-0.14
-0.13
0.32
1.105
0.855
0.32
-0.285
-0.465
-0.41
-0.31
-0.14
-0.145
-0.13
-0.15
-0.125
-0.12
-0.11
-0.105
-0.085
-0.09
-0.08
-0.06
-0.045
-0.025
0.0
0.01
0.045
0.08
0.13
0.16
0.215
0.245
0.29
0.315
0.34
0.34
0.315
0.24
0.185
0.115
0.04
0.03
-0.01
-0.025
-0.03
-0.02
-0.04
-0.04
-0.035
-0.025
-0.02
-0.025
-0.02
-0.02
-0.025
-0.025
-0.03
-0.03
-0.05
-0.055
-0.06
-0.075
-0.075
-0.065
-0.065
-0.08
-0.07
-0.075
-0.07
-0.085
-0.09
-0.08
-0.08
-0.1
-0.09
-0.1
-0.06
-0.035
0.0
0.005
0.02
0.06
0.07
0.01
-0.02
-0.05
-0.095
-0.145
-0.14
-0.15
-0.145
-0.16
-0.145
-0.14
0.285
1.05
0.855
0.33
-0.315
-0.49
-0.415
-0.295
-0.13
-0.145
-0.125
-0.125
-0.115
-0.115
-0.1
-0.105
-0.095
-0.09
-0.08
-0.065
-0.045
-0.035
-0.01
0.01
0.045
0.08
0.115
0.155
0.2
0.24
0.28
0.305
0.335
0.33
0.315
0.265
0.195
0.12
0.065
0.015
0.0
-0.015
-0.03
-0.03
-0.03
-0.025
-0.03
-0.02
-0.015
-0.025
-0.015
-0.01
-0.005
-0.02
-0.02
-0.025
-0.045
-0.045
-0.05
-0.05
-0.05
-0.055
-0.075
-0.075
-0.07
-0.075
-0.07
-0.075
-0.075
-0.08
-0.09
-0.105
-0.085
-0.085
-0.05
-0.03
0.005
0.01
0.02
0.065
0.075
0.025
-0.01
-0.055
-0.1
-0.115
-0.125
-0.165
-0.15
-0.15
-0.145
-0.13
0.235
0.915
0.905
0.48
-0.245
-0.475
-0.42
-0.315
-0.15
-0.15
-0.135
-0.13
-0.105
-0.105
-0.105
-0.11
-0.09
-0.075
-0.07
-0.065
-0.05
-0.035
-0.005
0.025
0.055
0.08
0.13
0.165
0.205
0.25
0.29
0.31
0.345
0.35
0.325
0.255
0.195
0.115
0.06
0.015
0.0
-0.025
-0.04
-0.03
-0.03
-0.035
-0.03
-0.035
-0.025
-0.015
-0.02
-0.025
-0.005
-0.02
-0.035
-0.045
-0.055
-0.06
-0.065
-0.055
-0.065
-0.075
-0.08
-0.075
-0.09
-0.08
-0.085
-0.08
-0.095
-0.095
-0.08
-0.095
-0.095
-0.045
-0.03
0.0
0.0
0.045
0.09
0.07
-0.015
-0.025
-0.075
-0.09
-0.125
-0.145
-0.15
-0.14
-0.155
-0.14
-0.07
0.47
1.25
0.83
0.075
-0.39
-0.455
-0.365
-0.265
-0.13
-0.135
-0.135
-0.125
-0.12
-0.12
-0.1
-0.105
-0.1
-0.085
-0.065
-0.06
-0.045
-0.03
-0.005
0.01
0.05
0.09
0.135
0.165
0.22
0.25
0.29
0.315
0.33
0.33
0.29
0.23
0.155
0.09
0.04
0.0
-0.02
-0.03
-0.035
-0.03
-0.04
-0.04
-0.04
-0.03
-0.03
-0.035
-0.03
-0.03
-0.04
-0.035
-0.035
-0.05
-0.06
-0.075
-0.065
-0.075
-0.075
-0.075
-0.075
-0.075
-0.085
-0.09
-0.09
-0.085
-0.09
-0.09
-0.095
-0.095
-0.085
-0.04
-0.025
0.005
0.01
0.035
0.07
0.06
-0.02
-0.025
-0.08
-0.095
-0.135
-0.15
-0.15
-0.155
-0.155
-0.15
-0.1
0.455
1.215
0.77
0.05
-0.44
-0.48
-0.37
-0.24
-0.135
-0.145
-0.13
-0.135
-0.12
-0.12
-0.095
-0.1
-0.085
-0.09
-0.07
-0.06
-0.045
-0.03
-0.005
0.01
0.055
0.085
0.14
0.175
0.215
0.26
0.295
0.315
0.335
0.33
0.295
0.24
0.16
0.1
0.05
0.015
0.0
-0.015
-0.03
-0.02
-0.04
-0.025
-0.02
-0.025
-0.005
-0.015
-0.02
-0.025
-0.015
-0.03
-0.045
-0.045
-0.065
-0.055
-0.06
-0.055
-0.07
-0.085
-0.075
-0.08
-0.07
-0.08
-0.065
-0.08
-0.085
-0.09
-0.095
-0.1
-0.075
-0.03
-0.015
0.005
0.02
0.06
0.085
0.065
-0.005
-0.02
-0.09
-0.1
-0.125
-0.13
-0.135
-0.15
-0.13
-0.135
0.01
0.58
1.155
0.725
-0.075
-0.45
-0.45
-0.335
-0.215
-0.12
-0.125
-0.12
-0.11
-0.11
-0.1
-0.1
-0.095
-0.08
-0.075
-0.055
-0.055
-0.025
0.0
0.01
0.035
0.07
0.12
0.15
0.195
0.24
0.265
0.33
0.345
0.35
0.34
0.29
0.22
0.165
0.105
0.035
0.0
-0.005
-0.005
-0.02
-0.015
-0.035
-0.04
-0.015
-0.02
-0.015
-0.01
-0.015
-0.015
-0.02
-0.03
-0.045
-0.05
-0.06
-0.04
-0.05
-0.065
-0.065
-0.07
-0.075
-0.08
-0.085
-0.08
-0.075
-0.075
-0.08
-0.08
-0.085
-0.08
-0.03
-0.01
0.005
0.005
0.05
0.09
0.065
-0.005
-0.025
-0.09
-0.105
-0.13
-0.14
-0.15
-0.14
-0.145
-0.14
0.01
0.585
1.16
0.74
-0.065
-0.445
-0.44
-0.335
-0.205
-0.135
-0.13
-0.13
-0.12
-0.11
-0.105
-0.1
-0.095
-0.09
-0.075
-0.06
-0.06
-0.035
-0.01
0.005
0.03
0.065
0.095
0.135
0.175
0.22
0.265
0.295
0.325
0.325
0.315
0.275
0.21
0.145
0.09
0.035
0.005
-0.015
-0.02
-0.02
-0.015
-0.025
-0.025
-0.02
-0.02
-0.02
-0.015
-0.02
-0.02
-0.025
-0.035
-0.035
-0.045
-0.055
-0.06
-0.065
-0.08
-0.075
-0.08
-0.08
-0.08
-0.09
-0.085
-0.085
-0.09
-0.1
-0.095
-0.095
-0.08
-0.03
-0.015
0.005
0.005
0.04
0.075
0.05
-0.02
-0.035
-0.09
-0.11
-0.135
-0.15
-0.145
-0.145
-0.15
-0.14
-0.025
0.56
1.195
0.725
-0.09
-0.47
-0.465
-0.34
-0.195
-0.13
-0.135
-0.125
-0.12
-0.115
-0.11
-0.1
-0.095
-0.085
-0.075
-0.065
-0.055
-0.025
-0.015
0.0
0.025
0.07
0.1
0.145
0.185
0.23
0.27
0.295
0.33
0.355
0.335
0.285
0.225
0.15
0.09
0.055
0.015
0.0
-0.015
-0.03
-0.02
-0.015
-0.015
-0.01
-0.015
-0.005
-0.005
-0.01
0.0
-0.015
-0.03
-0.04
-0.04
-0.045
-0.05
-0.045
-0.055
-0.075
-0.06
-0.07
-0.07
-0.08
-0.075
-0.065
-0.075
-0.08
-0.085
-0.09
-0.07
-0.02
-0.015
0.01
0.02
0.055
0.09
0.075
-0.01
-0.01
-0.075
-0.09
-0.13
-0.13
-0.145
-0.135
-0.14
-0.125
-0.05
0.505
1.19
0.72
-0.02
-0.44
-0.455
-0.35
-0.245
-0.13
-0.14
-0.14
-0.135
-0.125
-0.12
-0.12
-0.11
-0.11
-0.095
-0.085
-0.06
-0.04
-0.035
-0.005
0.01
0.06
0.085
0.12
0.165
0.2
0.255
0.29
0.33
0.33
0.315
0.285
0.22
0.14
0.07
0.04
0.015
-0.015
-0.025
-0.04
-0.045
-0.02
-0.02
-0.035
-0.035
-0.025
-0.03
-0.025
-0.03
-0.03
-0.04
-0.04
-0.065
-0.075
-0.08
-0.07
-0.065
-0.075
-0.08
-0.085
-0.09
-0.09
-0.095
-0.09
-0.095
-0.08
-0.1
-0.085
-0.035
-0.01
0.0
0.005
0.05
0.075
0.035
-0.015
-0.04
-0.095
-0.125
-0.145
-0.155
-0.145
-0.155
-0.145
-0.145
0.1
0.725
1.055
0.655
-0.135
-0.445
-0.42
-0.32
-0.165
-0.14
-0.13
-0.13
-0.125
-0.12
-0.105
-0.105
-0.1
-0.1
-0.08
-0.065
-0.06
-0.03
-0.025
-0.005
0.02
0.065
0.11
0.14
0.19
0.225
0.255
0.3
0.33
0.33
0.31
0.26
0.195
0.11
0.055
0.025
-0.005
-0.015
-0.025
-0.03
-0.035
-0.03
-0.035
-0.035
-0.025
-0.02
-0.02
-0.02
-0.02
-0.035
-0.05
-0.045
-0.055
-0.06
-0.065
-0.065
-0.07
-0.085
-0.08
-0.085
-0.085
-0.09
-0.09
-0.095
-0.09
-0.095
-0.095
-0.095
-0.04
-0.025
0.005
0.01
0.045
0.07
0.06
-0.015
-0.02
-0.07
-0.095
-0.135
-0.14
-0.145
-0.14
-0.15
-0.135
-0.09
0.44
1.19
0.74
0.065
-0.41
-0.465
-0.36
-0.235
-0.12
-0.12
-0.11
-0.115
-0.12
-0.11
-0.09
-0.105
-0.085
-0.085
-0.06
-0.04
-0.03
-0.015
0.0
0.01
0.05
0.085
0.13
0.17
0.21
0.245
0.285
0.31
0.335
0.34
0.285
0.225
0.16
0.075
0.04
0.015
-0.01
-0.045
-0.035
-0.03
-0.035
-0.035
-0.03
-0.035
-0.03
-0.025
-0.035
-0.025
-0.03
-0.05
-0.045
-0.065
-0.055
-0.07
-0.06
-0.065
-0.075
-0.08
-0.08
-0.075
-0.085
-0.105
-0.09
-0.085
-0.08
-0.09
-0.05
-0.04
0.0
0.005
0.03
0.085
0.07
0.0
-0.005
-0.06
-0.075
-0.135
-0.15
-0.16
-0.125
-0.13
-0.135
-0.1
0.37
1.165
0.795
0.205
-0.315
-0.425
-0.375
-0.285
-0.12
-0.135
-0.13
-0.12
-0.11
-0.11
-0.095
-0.1
-0.09
-0.08
-0.065
-0.045
-0.03
-0.03
0.01
0.0
0.06
0.095
0.13
0.18
0.215
0.265
0.305
0.33
0.345
0.35
0.3
0.225
0.165
0.08
0.04
0.0
-0.01
-0.025
-0.02
-0.06
-0.02
-0.01
-0.035
-0.015
-0.045
-0.03
-0.045
-0.03
-0.03
-0.02
-0.05
-0.075
-0.075
-0.06
-0.06
-0.07
-0.06
-0.085
-0.09
-0.1
-0.095
-0.085
-0.1
-0.1
-0.1
-0.11
-0.075
-0.05
-0.015
-0.005
0.05
0.055
0.015
-0.055
-0.045
-0.075
-0.135
-0.16
-0.18
-0.17
-0.145
-0.165
-0.17
-0.005
0.61
1.235
0.795
-0.07
-0.47
-0.445
-0.34
-0.21
-0.125
-0.145
-0.13
-0.12
-0.12
-0.125
-0.11
-0.09
-0.085
-0.075
-0.08
-0.05
-0.03
0.0
0.01
0.04
0.075
0.11
0.15
0.19
0.24
0.27
0.325
0.355
0.35
0.325
0.275
0.21
0.135
0.065
0.035
0.005
-0.015
-0.025
-0.03
-0.035
-0.045
-0.035
-0.035
-0.04
-0.025
-0.03
-0.04
-0.035
-0.045
-0.03
-0.055
-0.05
-0.065
-0.07
-0.07
-0.065
-0.075
-0.075
-0.095
-0.075
-0.085
-0.085
-0.1
-0.085
-0.095
-0.08
-0.03
-0.01
-0.005
0.005
0.05
0.06
0.03
-0.02
-0.045
-0.09
-0.13
-0.155
-0.155
-0.155
-0.15
-0.155
-0.16
0.095
0.75
1.09
0.65
-0.205
-0.505
-0.455
-0.325
-0.165
-0.155
-0.135
-0.13
-0.12
-0.125
-0.11
-0.11
-0.095
-0.1
-0.085
-0.08
-0.06
-0.055
-0.025
-0.005
0.015
0.05
0.09
0.13
0.175
0.21
0.245
0.28
0.3
0.295
0.27
0.215
0.145
0.085
0.015
-0.025
-0.055
-0.065
-0.08
-0.075
-0.08
-0.08
-0.085
-0.075
-0.09
-0.085
-0.09
-0.07
-0.105
-0.105
-0.135
-0.165
-0.145
-0.12
-0.15
-0.165
-0.125
-0.115
-0.145
-0.125
-0.15
-0.135
-0.105
0.43
1.18
0.73
-0.015
-0.455
-0.47
-0.32
-0.155
-0.09
-0.08
-0.065
-0.065
-0.06
-0.06
-0.04
-0.04
-0.03
-0.02
0.0
-0.005
0.02
0.04
0.06
0.085
0.13
0.145
0.2
0.245
0.295
0.34
0.355
0.38
0.365
0.33
0.25
0.17
0.095
0.05
0.035
0.0
-0.025
-0.005
-0.025
-0.025
-0.015
-0.025
-0.03
-0.025
-0.03
-0.03
-0.015
-0.01
-0.025
-0.035
-0.04
-0.045
-0.035
-0.045
-0.04
-0.045
-0.045
-0.04
-0.035
-0.05
-0.055
-0.055
-0.035
-0.05
-0.05
-0.045
-0.045
-0.055
-0.04
-0.04
-0.05
-0.055
-0.055
-0.045
-0.05
-0.055
-0.065
-0.065
-0.065
-0.075
-0.065
-0.075
-0.09
-0.08
-0.07
-0.09
-0.09
-0.08
-0.02
-0.01
0.01
0.015
0.05
0.085
0.05
-0.015
-0.015
-0.075
-0.115
-0.11
-0.14
-0.125
-0.14
-0.145
-0.15
0.06
0.65
1.23
0.82
-0.09
-0.45
-0.42
-0.345
-0.215
-0.15
-0.145
-0.13
-0.135
-0.12
-0.12
-0.105
-0.11
-0.1
-0.1
-0.07
-0.06
-0.055
-0.02
0.0
0.015
0.035
0.085
0.1
0.14
0.185
0.215
0.26
0.295
0.325
0.33
0.305
0.235
0.175
0.12
0.07
0.04
0.02
0.0
0.0
0.0
-0.01
0.0
0.0
0.0
0.005
0.01
0.01
-0.01
-0.015
-0.015
-0.03
-0.04
-0.055
-0.065
-0.075
-0.06
-0.08
-0.08
-0.09
-0.085
-0.085
-0.095
-0.1
-0.11
-0.115
-0.11
-0.1
-0.065
-0.04
-0.015
-0.015
0.02
0.06
0.04
-0.01
-0.025
-0.065
-0.095
-0.14
-0.16
-0.16
-0.14
-0.15
-0.155
-0.15
0.315
1.125
0.865
0.28
-0.32
-0.46
-0.39
-0.28
-0.13
-0.13
-0.12
-0.12
-0.095
-0.105
-0.09
-0.075
-0.07
-0.09
-0.05
-0.045
-0.02
-0.035
0.015
0.025
0.08
0.1
0.12
0.19
0.22
0.255
0.29
0.315
0.335
0.34
0.315
0.25
0.2
0.1
0.04
0.01
0.005
-0.005
-0.02
-0.035
-0.04
-0.04
-0.035
-0.035
-0.015
-0.02
-0.03
-0.01
-0.045
-0.04
-0.065
-0.06
-0.07
-0.075
-0.055
-0.07
-0.105
-0.085
-0.09
-0.08
-0.085
-0.095
-0.095
-0.08
-0.09
-0.09
-0.105
-0.055
-0.045
-0.025
0.02
0.01
0.04
0.09
0.045
-0.015
-0.045
-0.095
-0.08
-0.155
-0.155
-0.13
-0.07
-0.13
-0.195
0.025
0.665
1.245
0.855
-0.055
-0.465
-0.43
-0.335
-0.195
-0.14
-0.17
-0.115
-0.125
-0.1
-0.09
-0.135
-0.08
-0.085
-0.085
-0.07
-0.055
-0.02
-0.01
0.005
0.055
0.105
0.14
0.14
0.185
0.275
0.31
0.345
0.42
0.38
0.365
0.3
0.215
0.165
0.04
0.015
0.045
-0.025
-0.045
-0.01
-0.05
-0.045
-0.065
-0.015
-0.03
-0.035
-0.065
-0.005
-0.01
-0.02
-0.045
-0.08
-0.025
-0.065
-0.04
-0.07
-0.025
-0.075
-0.09
-0.1
-0.115
-0.075
-0.1
-0.11
-0.095
-0.14
-0.06
-0.02
0.005
0.005
-0.04
0.05
0.07
-0.055
-0.02
-0.01
-0.07
-0.07
-0.185
-0.15
-0.165
-0.155
-0.16
-0.145
0.365
1.27
1.185
0.285
-0.46
-0.535
-0.43
-0.34
-0.145
-0.16
-0.09
-0.13
-0.135
-0.18
-0.11
-0.045
-0.09
-0.095
-0.08
-0.03
-0.015
-0.055
0.0
0.1
0.04
0.12
0.16
0.215
0.22
0.35
0.36
0.375
0.4
0.43
0.33
0.23
0.17
0.1
0.075
-0.025
0.015
-0.055
0.005
-0.08
-0.03
-0.065
-0.05
0.045
-0.06
0.01
0.025
-0.09
0.0
-0.01
-0.03
-0.02
-0.06
-0.05
-0.06
-0.02
-0.06
-0.085
-0.12
-0.13
0.01
-0.1
-0.16
-0.05
-0.045
-0.025
-0.005
-0.05
0.05
0.06
0.005
0.01
-0.045
-0.04
-0.135
-0.115
-0.145
-0.125
-0.15
-0.1
-0.145
-0.19
0.565
1.69
1.03
-0.345
-0.765
-0.61
-0.45
-0.305
-0.13
-0.16
-0.165
-0.185
-0.095
-0.135
-0.115
-0.105
-0.115
-0.065
-0.13
-0.065
-0.01
0.03
-0.025
0.005
0.13
0.135
0.12
0.245
0.32
0.3
0.38
0.405
0.42
0.365
0.3
0.19
0.185
0.03
0.01
-0.03
-0.05
-0.04
-0.065
-0.035
-0.065
-0.04
-0.06
-0.035
-0.015
-0.065
-0.03
-0.02
-0.025
-0.045
-0.035
-0.045
-0.1
-0.03
-0.08
-0.1
-0.075
-0.07
-0.105
-0.095
-0.115
-0.09
-0.09
-0.13
-0.115
-0.03
-0.025
-0.02
-0.035
0.005
0.025
0.02
-0.035
-0.06
-0.11
-0.12
-0.135
-0.195
-0.145
-0.185
-0.16
-0.165
0.1
0.975
1.39
0.435
-0.555
-0.655
-0.535
-0.365
-0.19
-0.16
-0.17
-0.14
-0.125
-0.115
-0.14
-0.125
-0.08
-0.09
-0.09
-0.09
-0.07
-0.025
-0.025
0.01
0.04
0.095
0.11
0.145
0.19
0.25
0.28
0.335
0.35
0.355
0.32
0.265
0.2
0.12
0.075
0.005
0.0
-0.01
-0.02
-0.045
-0.025
-0.025
-0.01
-0.04
-0.02
-0.015
-0.035
-0.02
-0.03
-0.03
-0.04
-0.04
-0.065
-0.05
-0.06
-0.085
-0.06
-0.07
-0.08
-0.095
-0.08
-0.085
-0.09
-0.085
-0.1
-0.095
-0.1
-0.12
-0.065
-0.035
-0.005
0.0
0.0
0.05
0.03
-0.025
-0.03
-0.065
-0.105
-0.135
-0.135
-0.18
-0.17
-0.15
-0.135
-0.165
0.5
1.445
0.905
-0.13
-0.61
-0.53
-0.395
-0.26
-0.145
-0.15
-0.135
-0.14
-0.115
-0.11
-0.125
-0.115
-0.095
-0.1
-0.075
-0.055
-0.03
-0.02
-0.01
0.005
0.04
0.09
0.11
0.155
0.195
0.235
0.28
0.31
0.33
0.32
0.29
0.235
0.165
0.11
0.05
0.02
0.01
-0.01
-0.01
-0.02
-0.02
-0.015
-0.005
-0.015
-0.015
-0.015
-0.03
-0.02
-0.02
-0.04
-0.05
-0.06
-0.06
-0.06
-0.07
-0.065
-0.08
-0.085
-0.085
-0.08
-0.09
-0.09
-0.1
-0.08
-0.1
-0.105
-0.1
-0.085
-0.035
0.0
0.005
0.015
0.05
0.07
0.045
-0.015
-0.03
-0.065
-0.11
-0.135
-0.155
-0.14
-0.15
-0.135
-0.15
0.13
0.865
1.11
0.57
-0.28
-0.53
-0.47
-0.325
-0.14
-0.15
-0.14
-0.135
-0.12
-0.12
-0.115
-0.12
-0.1
-0.095
-0.08
-0.07
-0.06
-0.045
-0.03
0.0
0.015
0.06
0.095
0.12
0.16
0.195
0.235
0.265
0.3
0.305
0.28
0.235
0.18
0.125
0.07
0.015
0.0
-0.01
-0.015
-0.025
-0.02
-0.02
-0.02
-0.01
-0.03
-0.025
-0.03
-0.015
-0.03
-0.04
-0.045
-0.06
-0.065
-0.055
-0.07
-0.07
-0.08
-0.075
-0.065
-0.075
-0.09
-0.08
-0.08
-0.08
-0.08
-0.09
-0.105
-0.08
-0.025
0.0
0.015
0.045
0.075
0.09
0.06
0.015
-0.025
-0.085
-0.095
-0.11
-0.125
-0.115
-0.13
-0.115
-0.115
0.2
0.885
0.955
0.49
-0.25
-0.49
-0.415
-0.265
-0.135
-0.13
-0.11
-0.115
-0.09
-0.09
-0.085
-0.105
-0.08
-0.07
-0.05
-0.05
-0.045
0.0
-0.005
0.035
0.045
0.075
0.135
0.135
0.2
0.225
0.26
0.29
0.335
0.335
0.32
0.255
0.19
0.14
0.07
0.04
0.035
0.01
-0.015
-0.005
0.0
0.0
-0.005
-0.015
0.0
0.005
0.005
-0.03
-0.01
-0.03
-0.03
-0.045
-0.02
-0.04
-0.05
-0.05
-0.075
-0.075
-0.055
-0.07
-0.055
-0.08
-0.06
-0.09
-0.105
-0.09
-0.05
0.025
0.01
-0.01
0.005
0.06
0.07
0.04
0.01
-0.06
-0.06
-0.125
-0.155
-0.12
-0.145
-0.155
-0.14
-0.13
0.365
1.205
0.92
0.195
-0.405
-0.505
-0.43
-0.3
-0.135
-0.15
-0.13
-0.115
-0.13
-0.12
-0.09
-0.11
-0.11
-0.07
-0.03
-0.08
-0.06
0.02
-0.005
0.0
0.045
0.12
0.14
0.175
0.225
0.275
0.32
0.36
0.365
0.375
0.305
0.26
0.2
0.1
0.065
0.025
0.025
-0.035
0.01
-0.045
-0.03
-0.015
-0.03
0.0
-0.01
-0.01
0.0
-0.045
-0.035
-0.03
-0.055
0.0
-0.065
-0.075
-0.075
-0.09
-0.015
-0.065
-0.115
-0.115
-0.065
-0.08
-0.08
-0.125
-0.065
-0.12
-0.05
0.01
-0.03
0.005
0.005
0.08
0.04
-0.045
-0.04
-0.03
-0.105
-0.175
-0.155
-0.075
-0.155
-0.14
-0.185
0.165
1.045
1.35
0.45
-0.485
-0.63
-0.48
-0.365
-0.16
-0.15
-0.155
-0.125
-0.09
-0.1
-0.15
-0.07
-0.095
-0.11
-0.075
-0.035
-0.04
-0.045
-0.05
0.085
0.055
0.09
0.14
0.175
0.19
0.295
0.295
0.325
0.38
0.32
0.36
0.25
0.225
0.09
0.035
0.0
0.015
-0.055
-0.07
0.01
-0.105
-0.04
-0.06
-0.025
-0.05
-0.02
0.005
-0.065
0.0
-0.05
-0.045
-0.03
-0.04
-0.095
-0.05
-0.085
-0.045
-0.09
-0.09
-0.085
-0.115
-0.08
-0.12
-0.105
-0.105
-0.115
-0.06
-0.03
-0.005
0.0
-0.02
0.045
0.045
-0.045
-0.055
-0.07
-0.105
-0.145
-0.155
-0.17
-0.155
-0.16
-0.165
-0.035
0.765
1.5
0.775
-0.39
-0.68
-0.54
-0.375
-0.18
-0.18
-0.165
-0.135
-0.15
-0.135
-0.105
-0.115
-0.115
-0.11
-0.085
-0.085
-0.025
-0.055
-0.02
0.015
0.02
0.04
0.1
0.165
0.185
0.24
0.255
0.3
0.345
0.36
0.32
0.275
0.205
0.115
0.055
0.035
-0.01
-0.025
-0.045
-0.025
-0.04
-0.04
-0.045
-0.03
-0.01
-0.025
-0.02
-0.02
-0.03
-0.045
-0.04
-0.055
-0.05
-0.055
-0.08
-0.055
-0.065
-0.08
-0.08
-0.07
-0.085
-0.06
-0.09
-0.085
-0.11
-0.09
-0.08
-0.065
-0.05
-0.01
0.0
0.0
0.055
0.055
0.015
-0.025
-0.07
-0.095
-0.125
-0.145
-0.145
-0.15
-0.16
-0.135
-0.165
0.385
1.31
0.98
0.12
-0.5
-0.54
-0.395
-0.26
-0.135
-0.145
-0.14
-0.115
-0.12
-0.125
-0.115
-0.115
-0.09
-0.105
-0.08
-0.07
-0.035
-0.04
-0.01
0.015
0.04
0.075
0.12
0.155
0.2
0.235
0.255
0.3
0.325
0.325
0.29
0.24
0.17
0.1
0.065
0.015
-0.01
-0.015
-0.02
-0.03
-0.025
-0.025
-0.02
-0.015
-0.02
-0.03
-0.03
-0.04
-0.04
-0.04
-0.055
-0.055
-0.045
-0.07
-0.065
-0.07
-0.08
-0.085
-0.08
-0.08
-0.095
-0.085
-0.095
-0.08
-0.095
-0.085
-0.095
-0.06
-0.005
0.025
0.015
0.035
0.09
0.08
0.005
-0.005
-0.04
-0.07
-0.115
-0.13
-0.135
-0.13
-0.14
-0.115
-0.115
0.44
1.27
0.795
0.0
-0.51
-0.515
-0.38
-0.245
-0.115
-0.135
-0.12
-0.125
-0.1
-0.11
-0.095
-0.1
-0.09
-0.09
-0.07
-0.06
-0.04
-0.02
0.0
0.015
0.055
0.085
0.12
0.155
0.19
0.235
0.26
0.295
0.31
0.315
0.28
0.225
0.165
0.1
0.055
0.03
0.01
-0.005
0.0
-0.005
0.0
-0.005
0.0
-0.005
0.0
-0.015
-0.015
-0.01
-0.01
-0.025
-0.025
-0.035
-0.06
-0.06
-0.045
-0.035
-0.045
-0.05
-0.075
-0.06
-0.07
-0.065
-0.07
-0.065
-0.09
-0.075
-0.065
-0.045
-0.005
0.035
0.025
0.045
0.12
0.09
0.025
0.0
-0.035
-0.075
-0.105
-0.1
-0.13
-0.12
-0.125
-0.15
-0.085
0.49
1.25
0.805
0.05
-0.455
-0.485
-0.365
-0.235
-0.115
-0.095
-0.115
-0.115
-0.085
-0.11
-0.1
-0.065
-0.07
-0.1
-0.06
-0.035
-0.035
-0.01
0.005
0.015
0.055
0.11
0.13
0.18
0.205
0.245
0.29
0.34
0.35
0.32
0.32
0.24
0.185
0.12
0.06
0.04
0.005
0.005
0.005
-0.025
0.01
-0.01
-0.02
0.03
-0.005
-0.005
0.01
-0.005
-0.015
-0.025
-0.045
-0.025
-0.05
-0.055
-0.035
-0.075
-0.05
-0.075
-0.085
-0.07
-0.08
-0.05
-0.08
-0.09
-0.07
-0.095
-0.085
-0.01
-0.015
-0.005
0.01
0.055
0.07
0.025
-0.005
-0.005
-0.07
-0.1
-0.14
-0.13
-0.115
-0.135
-0.16
-0.15
0.165
0.835
1.245
0.585
-0.305
-0.62
-0.445
-0.35
-0.19
-0.18
-0.13
-0.12
-0.11
-0.11
-0.14
-0.09
-0.09
-0.06
-0.09
-0.05
-0.035
-0.01
-0.025
0.03
0.04
0.075
0.155
0.15
0.215
0.245
0.27
0.32
0.35
0.36
0.315
0.255
0.225
0.13
0.07
0.025
0.0
0.01
-0.05
0.0
-0.035
-0.02
-0.04
-0.025
0.015
-0.025
-0.015
-0.015
-0.04
0.0
-0.05
-0.065
0.0
-0.06
-0.015
-0.135
-0.06
-0.04
-0.08
-0.14
-0.085
-0.075
-0.09
-0.055
-0.095
-0.13
-0.11
0.035
0.01
-0.055
0.0
0.015
0.075
-0.02
-0.03
-0.005
-0.055
-0.17
-0.155
-0.105
-0.18
-0.115
-0.17
-0.12
0.455
1.505
1.015
-0.205
-0.655
-0.565
-0.45
-0.28
-0.175
-0.13
-0.135
-0.16
-0.105
-0.125
-0.07
-0.06
-0.1
-0.145
-0.05
-0.045
-0.055
0.015
0.04
0.06
0.035
0.115
0.16
0.215
0.345
0.255
0.245
0.38
0.37
0.345
0.3
0.21
0.165
0.1
0.01
-0.02
-0.005
-0.025
-0.03
-0.1
-0.045
-0.035
-0.025
-0.02
-0.015
-0.04
-0.045
0.0
-0.025
-0.045
-0.055
-0.045
-0.08
-0.07
-0.045
-0.075
-0.07
-0.09
-0.095
-0.09
-0.065
-0.09
-0.105
-0.1
-0.115
-0.085
-0.025
-0.025
-0.015
-0.03
0.025
0.065
0.035
-0.03
-0.06
-0.075
-0.15
-0.15
-0.16
-0.175
-0.17
-0.135
-0.205
0.17
1.09
1.275
0.385
-0.525
-0.625
-0.49
-0.345
-0.14
-0.14
-0.16
-0.14
-0.14
-0.13
-0.125
-0.11
-0.09
-0.105
-0.09
-0.07
-0.055
-0.04
0.0
0.005
0.03
0.085
0.11
0.16
0.2
0.24
0.28
0.3
0.335
0.34
0.31
0.225
0.185
0.115
0.04
0.015
-0.015
-0.035
-0.03
-0.045
-0.04
-0.03
-0.045
-0.02
-0.01
-0.02
-0.025
-0.03
-0.04
-0.035
-0.05
-0.04
-0.06
-0.04
-0.095
-0.07
-0.08
-0.095
-0.085
-0.08
-0.105
-0.075
-0.07
-0.1
-0.09
-0.11
-0.1
-0.075
-0.015
-0.01
0.005
0.02
0.025
0.055
0.015
-0.03
-0.045
-0.085
-0.135
-0.13
-0.16
-0.155
-0.155
-0.15
-0.195
0.31
1.215
1.025
0.18
-0.525
-0.58
-0.44
-0.305
-0.155
-0.165
-0.145
-0.125
-0.115
-0.145
-0.12
-0.11
-0.1
-0.1
-0.08
-0.08
-0.05
-0.03
0.0
0.02
0.05
0.075
0.105
0.15
0.185
0.24
0.275
0.305
0.33
0.32
0.3
0.25
0.17
0.105
0.05
0.02
0.0
-0.015
-0.02
-0.02
-0.01
-0.03
-0.015
-0.02
-0.01
-0.01
-0.03
-0.02
-0.04
-0.04
-0.045
-0.045
-0.06
-0.075
-0.07
-0.085
-0.09
-0.095
-0.095
-0.085
-0.1
-0.1
-0.09
-0.11
-0.105
-0.105
-0.105
-0.065
-0.02
0.0
-0.005
0.02
0.075
0.035
-0.02
-0.025
-0.06
-0.105
-0.135
-0.155
-0.155
-0.145
-0.16
-0.155
-0.07
0.595
1.335
0.785
-0.19
-0.58
-0.53
-0.36
-0.195
-0.15
-0.14
-0.125
-0.125
-0.12
-0.12
-0.115
-0.115
-0.1
-0.08
-0.075
-0.07
-0.045
-0.025
0.0
0.025
0.045
0.08
0.12
0.15
0.18
0.215
0.245
0.28
0.295
0.285
0.265
0.19
0.13
0.075
0.035
0.01
-0.005
-0.01
-0.02
-0.03
-0.025
-0.02
-0.01
-0.01
-0.02
-0.015
-0.03
-0.025
-0.035
-0.045
-0.055
-0.05
-0.055
-0.06
-0.07
-0.07
-0.07
-0.075
-0.09
-0.085
-0.085
-0.08
-0.08
-0.08
-0.09
-0.085
-0.085
-0.045
0.0
0.01
0.015
0.055
0.065
0.055
0.0
0.0
-0.05
-0.085
-0.12
-0.13
-0.13
-0.125
-0.13
-0.12
-0.1
0.43
1.215
0.745
-0.005
-0.49
-0.5
-0.37
-0.24
-0.115
-0.125
-0.11
-0.12
-0.09
-0.095
-0.09
-0.09
-0.075
-0.075
-0.055
-0.055
-0.035
-0.025
0.0
0.02
0.045
0.065
0.095
0.13
0.165
0.195
0.225
0.26
0.29
0.285
0.26
0.215
0.16
0.09
0.045
0.015
0.0
-0.005
0.0
-0.01
-0.015
-0.01
-0.01
-0.01
-0.005
0.0
-0.005
-0.01
-0.03
-0.035
-0.045
-0.05
-0.05
-0.045
-0.06
-0.065
-0.05
-0.065
-0.08
-0.065
-0.07
-0.07
-0.085
-0.075
-0.085
-0.07
-0.07
-0.065
-0.005
0.015
0.05
0.055
0.05
0.03
0.0
-0.045
-0.055
-0.09
-0.115
-0.145
-0.15
-0.11
-0.135
-0.12
0.035
0.635
1.095
0.635
-0.19
-0.52
-0.47
-0.345
-0.17
-0.125
-0.14
-0.13
-0.12
-0.105
-0.11
-0.1
-0.095
-0.095
-0.08
-0.065
-0.045
-0.035
-0.01
0.0
0.035
0.055
0.075
0.11
0.155
0.185
0.21
0.25
0.28
0.3
0.29
0.245
0.18
0.12
0.055
0.03
0.01
-0.005
-0.01
0.0
-0.03
-0.02
-0.01
-0.01
-0.015
-0.02
-0.02
-0.025
-0.01
-0.045
-0.035
-0.035
-0.06
-0.065
-0.065
-0.05
-0.055
-0.085
-0.08
-0.075
-0.08
-0.065
-0.08
-0.08
-0.1
-0.08
-0.095
-0.075
-0.045
-0.005
0.02
0.035
0.06
0.045
-0.01
-0.05
-0.06
-0.085
-0.125
-0.15
-0.135
-0.125
-0.12
-0.155
-0.045
0.56
1.255
0.72
-0.155
-0.52
-0.47
-0.35
-0.225
-0.115
-0.135
-0.12
-0.11
-0.105
-0.105
-0.08
-0.085
-0.075
-0.065
-0.055
-0.06
-0.025
-0.005
0.025
0.0
0.055
0.09
0.135
0.14
0.195
0.24
0.25
0.295
0.315
0.295
0.245
0.2
0.13
0.07
0.035
0.015
-0.025
-0.01
-0.03
-0.03
-0.03
-0.015
-0.025
-0.025
-0.03
-0.025
-0.03
-0.05
-0.055
-0.065
-0.07
-0.05
-0.085
-0.08
-0.07
-0.095
-0.095
-0.1
-0.09
-0.105
-0.1
-0.105
-0.085
-0.115
-0.105
-0.105
-0.105
-0.085
-0.04
-0.005
0.025
0.035
0.03
-0.01
-0.05
-0.06
-0.095
-0.125
-0.15
-0.145
-0.135
-0.14
-0.14
-0.125
0.465
1.305
0.825
-0.03
-0.525
-0.505
-0.37
-0.235
-0.125
-0.135
-0.115
-0.125
-0.105
-0.105
-0.07
-0.09
-0.08
-0.08
-0.065
-0.055
-0.04
-0.02
0.005
0.025
0.065
0.085
0.125
0.145
0.2
0.225
0.255
0.285
0.305
0.295
0.25
0.215
0.145
0.08
0.03
0.005
0.005
-0.005
-0.03
-0.02
-0.01
-0.02
-0.025
-0.01
-0.01
-0.02
-0.025
-0.03
-0.03
-0.04
-0.05
-0.055
-0.065
-0.07
-0.065
-0.075
-0.08
-0.07
-0.08
-0.09
-0.09
-0.075
-0.08
-0.085
-0.09
-0.095
-0.085
-0.075
-0.06
-0.005
0.005
0.045
0.06
0.03
-0.01
-0.045
-0.055
-0.095
-0.125
-0.145
-0.14
-0.135
-0.14
-0.135
-0.04
0.61
1.26
0.725
-0.225
-0.565
-0.505
-0.345
-0.175
-0.125
-0.12
-0.12
-0.11
-0.105
-0.105
-0.1
-0.085
-0.075
-0.07
-0.055
-0.045
-0.025
-0.005
0.01
0.035
0.06
0.1
0.135
0.16
0.195
0.225
0.275
0.29
0.3
0.295
0.255
0.19
0.135
0.08
0.035
0.005
-0.015
-0.025
-0.01
-0.015
-0.01
-0.01
-0.005
-0.015
-0.005
0.0
0.0
-0.01
-0.025
-0.04
-0.045
-0.03
-0.045
-0.045
-0.05
-0.06
-0.075
-0.08
-0.065
-0.06
-0.065
-0.07
-0.095
-0.08
-0.095
-0.07
-0.09
-0.075
-0.045
-0.01
0.005
0.04
0.06
0.045
0.0
-0.04
-0.02
-0.1
-0.135
-0.135
-0.145
-0.14
-0.155
-0.135
-0.085
0.48
1.235
0.76
-0.055
-0.505
-0.5
-0.36
-0.23
-0.11
-0.145
-0.14
-0.12
-0.095
-0.09
-0.075
-0.085
-0.075
-0.065
-0.04
-0.035
-0.01
0.005
0.035
0.065
0.085
0.1
0.14
0.175
0.215
0.245
0.275
0.295
0.325
0.32
0.285
0.23
0.175
0.11
0.065
0.04
0.035
0.025
0.025
0.01
0.005
0.0
0.0
0.0
0.025
0.02
0.03
0.025
0.035
-0.025
-0.025
-0.05
-0.09
-0.005
0.03
-0.045
-0.2
-0.05
0.02
-0.065
-0.155
-0.19
-0.085
-0.04
-0.015
0.0
-0.02
-0.045
-0.035
0.01
0.04
0.075
0.065
0.05
-0.005
-0.03
-0.06
-0.095
-0.13
-0.15
-0.16
-0.19
-0.435
-0.36
-0.13
0.45
1.335
0.94
0.035
-0.445
-0.51
-0.345
-0.195
-0.125
-0.125
-0.125
-0.13
-0.125
-0.12
-0.095
-0.1
-0.065
-0.085
-0.08
-0.06
-0.025
-0.03
-0.02
0.0
0.07
0.085
0.085
0.125
0.16
0.21
0.28
0.295
0.27
0.31
0.285
0.225
0.15
0.135
0.06
0.05
0.01
-0.005
0.0
-0.025
-0.025
-0.025
-0.015
-0.04
0.0
0.0
-0.01
-0.005
-0.035
-0.04
-0.04
-0.055
-0.055
-0.085
-0.075
-0.095
-0.095
-0.085
-0.1
-0.1
-0.11
-0.105
-0.11
-0.125
-0.12
-0.1
-0.075
-0.03
0.005
0.03
0.075
0.005
-0.025
-0.05
-0.085
-0.09
-0.14
-0.155
-0.15
-0.16
-0.15
-0.185
0.155
0.955
1.025
0.37
-0.33
-0.525
-0.45
-0.325
-0.15
-0.13
-0.11
-0.115
-0.11
-0.11
-0.1
-0.09
-0.08
-0.07
-0.05
-0.045
-0.015
-0.02
0.005
0.0
0.05
0.07
0.08
0.125
0.165
0.205
0.215
0.25
0.285
0.295
0.28
0.25
0.18
0.13
0.075
0.04
0.01
0.0
0.0
0.0
0.0
0.0
0.005
0.005
0.0
-0.01
-0.025
-0.025
-0.025
-0.04
-0.045
-0.05
-0.055
-0.06
-0.055
-0.055
-0.065
-0.075
-0.075
-0.07
-0.08
-0.085
-0.09
-0.08
-0.08
-0.08
-0.07
-0.035
0.005
0.04
0.05
0.095
0.03
0.0
-0.05
-0.065
-0.1
-0.12
-0.125
-0.12
-0.12
-0.125
-0.125
0.35
1.105
0.81
0.18
-0.41
-0.515
-0.4
-0.27
-0.105
-0.13
-0.115
-0.12
-0.08
-0.08
-0.08
-0.06
-0.045
-0.05
-0.05
-0.04
-0.015
0.0
0.025
0.05
0.11
0.085
0.155
0.16
0.19
0.22
0.27
0.3
0.32
0.325
0.295
0.26
0.165
0.14
0.065
0.06
0.02
0.02
0.025
0.02
0.02
0.0
-0.02
-0.02
0.005
0.025
0.0
-0.03
-0.005
-0.035
0.03
-0.05
-0.07
-0.055
-0.065
-0.06
-0.04
-0.07
-0.07
-0.075
-0.035
-0.125
-0.1
-0.095
-0.125
-0.07
-0.01
0.025
0.1
0.02
0.03
-0.04
0.01
-0.06
-0.08
-0.105
-0.13
-0.11
-0.125
-0.145
-0.17
-0.01
0.6
1.345
0.695
-0.2
-0.67
-0.475
-0.43
-0.26
-0.145
-0.14
-0.2
-0.115
-0.11
-0.115
-0.095
-0.115
-0.055
-0.11
0.0
-0.035
-0.07
-0.015
0.03
0.015
0.075
0.11
0.18
0.185
0.225
0.22
0.25
0.32
0.3
0.3
0.245
0.205
0.125
0.09
0.04
-0.02
-0.025
-0.025
-0.03
-0.02
-0.045
-0.03
-0.04
-0.05
-0.005
-0.04
-0.055
-0.035
-0.06
-0.09
-0.075
-0.07
-0.075
-0.085
-0.1
-0.095
-0.09
-0.105
-0.1
-0.08
-0.1
-0.115
-0.13
-0.11
-0.105
-0.11
-0.075
-0.01
-0.01
0.0
0.035
-0.02
-0.045
-0.055
-0.105
-0.125
-0.15
-0.14
-0.16
-0.145
-0.155
-0.165
0.36
1.355
1.075
0.1
-0.48
-0.52
-0.42
-0.315
-0.14
-0.145
-0.12
-0.13
-0.105
-0.12
-0.105
-0.105
-0.085
-0.085
-0.065
-0.05
-0.05
-0.02
0.0
0.03
0.045
0.07
0.11
0.14
0.175
0.2
0.235
0.265
0.295
0.29
0.25
0.205
0.135
0.085
0.045
0.01
0.0
-0.015
-0.02
-0.025
-0.02
-0.025
-0.025
-0.025
-0.025
-0.03
-0.02
-0.035
-0.035
-0.05
-0.055
-0.06
-0.055
-0.06
-0.07
-0.07
-0.07
-0.075
-0.07
-0.075
-0.075
-0.095
-0.085
-0.09
-0.09
-0.06
-0.02
0.01
0.045
0.05
0.065
-0.005
-0.025
-0.045
-0.075
-0.11
-0.135
-0.14
-0.115
-0.13
-0.12
-0.13
0.39
1.265
0.9
0.08
-0.46
-0.535
-0.365
-0.195
-0.07
-0.1
-0.08
-0.08
-0.06
-0.055
-0.03
-0.045
-0.075
-0.05
0.0
-0.025
0.025
0.0
0.03
0.05
0.105
0.095
0.135
0.18
0.205
0.24
0.315
0.28
0.31
0.345
0.25
0.23
0.15
0.115
0.08
0.0
-0.02
-0.005
-0.01
0.02
-0.015
-0.025
-0.005
-0.005
-0.01
-0.045
0.025
-0.065
-0.04
-0.04
-0.055
-0.02
-0.025
-0.03
-0.11
-0.075
-0.11
-0.075
-0.095
-0.035
-0.09
-0.085
-0.1
-0.11
0.0
0.02
0.02
0.025
0.045
-0.02
0.0
-0.02
-0.135
-0.095
-0.16
-0.13
-0.12
-0.19
-0.155
-0.11
0.45
1.385
0.865
-0.07
-0.56
-0.6
-0.425
-0.315
-0.155
-0.13
-0.145
-0.14
-0.11
-0.11
-0.08
-0.08
-0.08
-0.09
-0.045
-0.08
0.0
-0.01
-0.015
0.01
0.065
0.105
0.13
0.165
0.2
0.23
0.275
0.31
0.33
0.33
0.265
0.19
0.115
0.095
0.005
-0.01
-0.035
-0.025
-0.04
-0.03
-0.045
-0.03
-0.04
-0.04
-0.03
-0.025
-0.02
-0.03
-0.035
-0.055
-0.055
-0.085
-0.08
-0.075
-0.075
-0.085
-0.1
-0.105
-0.1
-0.095
-0.105
-0.105
-0.12
-0.11
-0.08
-0.02
-0.01
0.03
0.05
0.01
-0.04
-0.055
-0.075
-0.085
-0.155
-0.15
-0.165
-0.155
-0.16
-0.16
0.02
0.83
1.375
0.665
-0.36
-0.63
-0.51
-0.365
-0.17
-0.14
-0.135
-0.13
-0.12
-0.125
-0.1
-0.1
-0.09
-0.08
-0.06
-0.07
-0.04
-0.04
-0.005
0.02
0.055
0.075
0.105
0.15
0.175
0.22
0.25
0.28
0.3
0.31
0.295
0.25
0.185
0.115
0.06
0.025
0.0
-0.005
-0.015
-0.015
-0.025
-0.015
-0.015
-0.025
-0.02
-0.02
-0.025
-0.04
-0.04
-0.05
-0.06
-0.07
-0.065
-0.065
-0.075
-0.075
-0.08
-0.09
-0.085
-0.08
-0.09
-0.095
-0.095
-0.075
-0.03
0.01
0.03
0.055
0.07
0.02
-0.015
-0.065
-0.065
-0.1
-0.125
-0.14
-0.135
-0.13
-0.135
-0.145
0.095
0.825
1.17
0.55
-0.335
-0.605
-0.485
-0.325
-0.115
-0.115
-0.105
-0.105
-0.095
-0.085
-0.07
-0.075
-0.06
-0.035
-0.04
-0.04
-0.025
0.01
0.02
0.03
0.085
0.075
0.115
0.18
0.21
0.205
0.265
0.295
0.345
0.32
0.315
0.26
0.19
0.12
0.095
0.025
0.03
0.02
-0.02
-0.015
-0.025
0.0
-0.035
0.0
-0.035
-0.02
0.0
-0.06
0.0
-0.06
-0.11
-0.08
-0.08
-0.05
-0.09
-0.075
-0.09
-0.125
-0.09
-0.035
-0.165
-0.11
-0.045
-0.03
-0.025
0.055
0.125
0.01
-0.045
-0.065
-0.115
-0.09
-0.12
-0.165
-0.15
-0.21
-0.16
-0.15
0.225
1.04
1.045
0.35
-0.475
-0.65
-0.525
-0.375
-0.13
-0.165
-0.14
-0.13
-0.105
-0.105
-0.105
-0.075
-0.045
-0.06
-0.075
-0.055
-0.04
-0.03
0.025
0.015
0.075
0.12
0.125
0.165
0.19
0.25
0.29
0.305
0.335
0.34
0.29
0.255
0.12
0.07
0.05
-0.005
-0.02
0.0
-0.025
-0.035
-0.035
-0.03
-0.045
-0.03
-0.05
-0.045
-0.06
-0.06
-0.06
-0.07
-0.085
-0.095
-0.1
-0.08
-0.105
-0.115
-0.125
-0.09
-0.14
-0.12
-0.125
-0.12
-0.12
-0.065
-0.035
-0.005
0.0
0.0
-0.04
-0.07
-0.105
-0.11
-0.145
-0.195
-0.195
-0.205
-0.2
-0.215
-0.24
0.225
1.13
0.915
0.09
-0.56
-0.65
-0.555
-0.425
-0.24
-0.26
-0.25
-0.245
-0.24
-0.26
-0.25
-0.225
-0.23
-0.235
-0.225
-0.215
-0.2
-0.185
-0.17
-0.155
-0.125
-0.09
-0.065
-0.04
0.0
0.035
0.075
0.1
0.13
0.115
0.095
0.045
-0.025
-0.07
-0.105
-0.145
-0.15
-0.155
-0.14
-0.15
-0.145
-0.14
-0.08
0.01
0.305
0.74
1.1
1.295
1.59
1.99
2.41
2.63
2.485
2.33
1.43
0.52
-0.005
-0.255
-0.4
-0.495
-0.52
-0.53
-0.49
-0.435
-0.445
-0.475
-0.485
-0.545
-0.585
-0.645
-0.68
-0.74
-0.78
-0.805
-0.8
-0.75
-0.67
-0.56
-0.41
-0.255
-0.11
-0.005
0.09
0.13
0.145
0.15
0.14
0.125
0.105
0.105
0.1
0.09
0.08
0.075
0.075
0.06
0.05
0.04
0.03
0.04
0.03
0.025
0.02
0.015
0.01
0.0
0.0
-0.005
0.0
-0.02
-0.015
-0.015
-0.02
-0.025
-0.03
-0.025
-0.035
-0.04
-0.04
-0.045
-0.05
-0.065
-0.055
-0.055
-0.06
-0.06
-0.065
-0.065
-0.065
-0.08
-0.075
-0.075
-0.075
-0.075
-0.075
-0.085
-0.09
-0.095
-0.085
-0.085
-0.09
-0.11
-0.09
-0.065
-0.015
-0.01
0.025
0.05
0.035
0.0
-0.035
-0.055
-0.095
-0.115
-0.155
-0.15
-0.145
-0.155
-0.155
-0.095
0.48
1.305
0.895
-0.02
-0.45
-0.48
-0.38
-0.265
-0.145
-0.155
-0.15
-0.15
-0.135
-0.13
-0.125
-0.12
-0.12
-0.11
-0.1
-0.08
-0.07
-0.045
-0.035
-0.025
0.005
0.045
0.06
0.1
0.135
0.17
0.225
0.26
0.3
0.32
0.315
0.265
0.195
0.15
0.13
0.06
0.02
0.0
0.005
0.01
0.0
0.015
0.0
0.0
0.01
0.005
-0.005
0.0
-0.025
-0.04
-0.065
-0.065
-0.07
-0.07
-0.085
-0.085
-0.085
-0.095
-0.065
-0.01
0.0
0.045
0.045
0.035
-0.015
-0.04
-0.065
-0.11
-0.13
-0.16
-0.165
-0.16
-0.155
-0.155
-0.12
0.42
1.235
0.75
0.0
-0.43
-0.47
-0.37
-0.28
-0.12
-0.135
-0.105
-0.1
-0.095
-0.085
-0.08
-0.095
-0.085
-0.05
-0.04
-0.05
-0.01
0.0
0.03
0.04
0.07
0.105
0.135
0.16
0.2
0.23
0.25
0.28
0.285
0.275
0.235
0.17
0.105
0.05
0.01
-0.005
-0.02
-0.02
-0.025
-0.025
-0.025
-0.03
-0.03
-0.04
-0.035
-0.05
-0.05
-0.055
-0.065
-0.07
-0.065
-0.09
-0.09
-0.095
-0.1
-0.1
-0.09
-0.045
-0.025
0.0
0.04
0.075
0.02
-0.02
-0.06
-0.075
-0.1
-0.13
-0.15
-0.155
-0.15
-0.15
-0.14
0.065
0.69
1.065
0.57
-0.195
-0.5
-0.46
-0.34
-0.185
-0.105
-0.11
-0.105
-0.1
-0.085
-0.09
-0.085
-0.075
-0.075
-0.055
-0.06
-0.04
-0.01
0.015
0.035
0.06
0.075
0.105
0.15
0.185
0.21
0.255
0.285
0.31
0.315
0.28
0.215
0.14
0.08
0.02
0.0
-0.01
-0.03
-0.04
-0.04
-0.04
-0.035
-0.03
-0.015
-0.035
-0.035
-0.04
-0.035
-0.055
-0.055
-0.07
-0.08
-0.09
-0.08
-0.09
-0.09
-0.085
-0.025
-0.01
0.04
0.03
0.045
0.0
-0.035
-0.07
-0.11
-0.125
-0.145
-0.17
-0.155
-0.175
-0.135
-0.115
0.355
1.11
0.695
0.13
-0.38
-0.475
-0.39
-0.28
-0.125
-0.145
-0.125
-0.14
-0.1
-0.105
-0.095
-0.095
-0.075
-0.075
-0.06
-0.05
-0.025
-0.01
0.015
0.03
0.065
0.105
0.135
0.19
0.215
0.26
0.26
0.3
0.31
0.28
0.23
0.17
0.095
0.03
0.0
-0.035
-0.055
-0.065
-0.06
-0.06
-0.05
-0.045
-0.05
-0.045
-0.065
-0.055
-0.04
-0.06
-0.07
-0.09
-0.08
-0.085
-0.095
-0.095
-0.095
-0.085
-0.055
-0.025
0.0
0.02
0.06
0.005
-0.025
-0.08
-0.095
-0.12
-0.15
-0.15
-0.15
-0.16
-0.165
-0.185
0.095
0.795
1.085
0.555
-0.255
-0.515
-0.465
-0.33
-0.15
-0.14
-0.13
-0.115
-0.12
-0.115
-0.105
-0.095
-0.095
-0.085
-0.065
-0.055
-0.045
-0.015
0.005
0.04
0.065
0.095
0.12
0.175
0.205
0.24
0.295
0.32
0.325
0.3
0.255
0.19
0.12
0.06
0.02
0.0
-0.015
-0.03
-0.035
-0.03
-0.04
-0.04
-0.03
-0.02
-0.04
-0.035
-0.04
-0.055
-0.055
-0.055
-0.075
-0.06
-0.075
-0.07
-0.085
-0.095
-0.095
-0.095
-0.055
0.0
0.02
0.065
0.08
0.035
-0.01
-0.04
-0.05
-0.095
-0.105
-0.14
-0.11
-0.11
-0.13
-0.12
-0.005
0.605
1.24
0.695
-0.145
-0.515
-0.475
-0.34
-0.14
-0.125
-0.11
-0.09
-0.09
-0.07
-0.085
-0.08
-0.05
-0.04
-0.015
-0.06
-0.01
0.01
0.025
0.08
0.075
0.125
0.115
0.185
0.215
0.255
0.26
0.32
0.315
0.32
0.29
0.215
0.155
0.06
0.01
-0.005
-0.025
-0.03
-0.02
-0.065
-0.055
-0.045
-0.015
-0.01
-0.09
-0.025
-0.035
-0.065
-0.03
-0.08
-0.06
-0.085
-0.125
-0.075
-0.09
-0.09
-0.095
-0.095
-0.12
-0.085
-0.025
0.005
-0.03
0.02
0.085
0.0
-0.1
-0.105
-0.06
-0.19
-0.19
-0.205
-0.185
-0.19
-0.17
-0.145
0.39
1.29
0.9
0.03
-0.48
-0.535
-0.42
-0.32
-0.135
-0.155
-0.155
-0.15
-0.16
-0.14
-0.135
-0.115
-0.1
-0.07
-0.065
-0.04
-0.035
-0.015
0.015
0.025
0.07
0.12
0.15
0.18
0.25
0.28
0.315
0.345
0.35
0.315
0.25
0.165
0.085
0.04
0.005
-0.025
-0.05
-0.045
-0.05
-0.045
-0.045
-0.04
-0.045
-0.04
-0.055
-0.05
-0.06
-0.05
-0.06
-0.065
-0.065
-0.07
-0.09
-0.09
-0.09
-0.105
-0.11
-0.105
-0.115
-0.1
-0.115
-0.1
-0.09
-0.045
0.0
0.015
0.015
0.035
-0.02
-0.04
-0.07
-0.095
-0.135
-0.155
-0.155
-0.135
-0.16
-0.14
-0.16
0.31
1.175
0.93
0.2
-0.415
-0.54
-0.41
-0.27
-0.11
-0.125
-0.1
-0.12
-0.105
-0.11
-0.1
-0.095
-0.085
-0.075
-0.045
-0.04
-0.035
0.0
0.01
0.05
0.08
0.145
0.17
0.235
0.25
0.3
0.32
0.37
0.375
0.375
0.275
0.21
0.145
0.11
0.03
0.015
-0.005
-0.02
-0.015
-0.02
0.01
-0.025
0.0
-0.01
-0.015
0.0
0.0
0.01
-0.03
-0.07
-0.035
-0.07
-0.06
-0.025
-0.06
-0.1
-0.05
-0.085
-0.085
-0.085
-0.08
-0.06
-0.11
-0.095
-0.085
-0.085
-0.03
0.02
0.035
0.075
0.03
0.0
-0.055
-0.055
-0.07
-0.165
-0.155
-0.165
-0.11
-0.15
-0.17
-0.015
0.61
1.275
0.76
-0.205
-0.585
-0.505
-0.35
-0.23
-0.11
-0.16
-0.14
-0.14
-0.125
-0.085
-0.07
-0.085
-0.085
-0.065
-0.075
-0.06
-0.015
0.005
0.0
0.045
0.085
0.165
0.165
0.225
0.28
0.32
0.33
0.37
0.37
0.345
0.26
0.165
0.13
-0.01
-0.005
-0.025
-0.01
-0.045
-0.08
-0.065
-0.06
-0.025
-0.04
-0.035
-0.02
-0.01
-0.01
-0.03
-0.02
-0.07
-0.045
-0.06
-0.055
-0.07
-0.095
-0.095
-0.09
-0.105
-0.105
-0.095
-0.105
-0.105
-0.1
-0.105
-0.105
-0.125
-0.115
-0.095
-0.03
-0.01
0.0
0.025
0.005
-0.04
-0.065
-0.08
-0.095
-0.135
-0.18
-0.16
-0.165
-0.165
-0.17
-0.04
0.65
1.41
0.9
-0.18
-0.56
-0.49
-0.34
-0.195
-0.125
-0.12
-0.135
-0.12
-0.125
-0.13
-0.095
-0.09
-0.07
-0.08
-0.06
-0.055
-0.025
-0.005
0.02
0.045
0.07
0.115
0.155
0.21
0.23
0.27
0.305
0.345
0.335
0.295
0.245
0.185
0.12
0.05
0.025
0.0
-0.02
-0.01
-0.01
-0.025
-0.02
-0.025
-0.02
-0.005
0.0
0.0
-0.015
-0.025
-0.025
-0.045
-0.04
-0.06
-0.045
-0.055
-0.05
-0.06
-0.065
-0.065
-0.08
-0.06
-0.075
-0.085
-0.07
-0.075
-0.08
-0.09
-0.085
-0.08
-0.075
-0.065
-0.045
0.005
0.02
0.045
0.085
0.025
-0.005
-0.025
-0.045
-0.06
-0.125
-0.135
-0.12
-0.115
-0.11
-0.105
0.155
0.92
1.11
0.58
-0.33
-0.535
-0.42
-0.25
-0.11
-0.12
-0.125
-0.1
-0.065
-0.085
-0.075
-0.115
-0.085
-0.095
-0.03
-0.035
-0.035
-0.025
0.0
0.02
0.06
0.07
0.12
0.17
0.23
0.3
0.265
0.31
0.355
0.375
0.32
0.23
0.2
0.065
0.075
0.005
-0.03
-0.005
-0.025
-0.035
-0.045
0.005
-0.015
-0.02
-0.03
0.03
-0.035
-0.045
0.015
-0.035
-0.075
0.0
-0.045
-0.07
-0.065
-0.07
-0.065
-0.11
-0.065
-0.065
-0.105
-0.115
-0.03
-0.11
-0.17
-0.105
-0.055
-0.095
-0.1
-0.145
-0.115
-0.025
-0.025
-0.06
0.01
0.025
-0.02
-0.035
-0.065
-0.14
-0.155
-0.16
-0.185
-0.175
-0.18
-0.165
-0.165
0.4
1.35
0.975
-0.02
-0.595
-0.575
-0.46
-0.34
-0.145
-0.15
-0.125
-0.12
-0.125
-0.14
-0.11
-0.09
-0.09
-0.07
-0.09
-0.085
-0.05
-0.005
0.015
0.035
0.045
0.08
0.14
0.175
0.225
0.26
0.31
0.335
0.36
0.34
0.285
0.22
0.16
0.065
0.025
0.0
-0.01
-0.02
-0.035
-0.05
-0.035
-0.005
-0.035
-0.02
-0.015
-0.03
-0.035
-0.035
-0.02
-0.035
-0.05
-0.075
-0.065
-0.06
-0.085
-0.065
-0.075
-0.075
-0.095
-0.09
-0.095
-0.1
-0.095
-0.1
-0.085
-0.095
-0.095
-0.11
-0.115
-0.1
-0.105
-0.095
-0.07
-0.005
0.015
0.025
0.045
-0.01
-0.015
-0.07
-0.11
-0.125
-0.15
-0.155
-0.155
-0.135
-0.145
-0.13
0.49
1.35
0.895
-0.075
-0.525
-0.51
-0.38
-0.22
-0.125
-0.135
-0.125
-0.105
-0.11
-0.11
-0.105
-0.1
-0.08
-0.075
-0.065
-0.055
-0.03
-0.025
0.005
0.02
0.06
0.09
0.13
0.17
0.2
0.245
0.265
0.305
0.32
0.315
0.275
0.205
0.145
0.075
0.045
0.01
-0.005
-0.015
-0.02
-0.02
-0.025
-0.005
-0.005
-0.015
-0.02
-0.02
-0.025
-0.025
-0.035
-0.03
-0.045
-0.05
-0.065
-0.075
-0.065
-0.075
-0.075
-0.09
-0.085
-0.09
-0.085
-0.085
-0.085
-0.08
-0.085
-0.09
-0.09
-0.1
-0.09
-0.1
-0.09
-0.085
-0.055
-0.005
0.015
0.04
0.07
0.0
-0.03
-0.055
-0.08
-0.115
-0.135
-0.145
-0.135
-0.13
-0.125
-0.135
0.395
1.225
0.87
0.105
-0.435
-0.49
-0.375
-0.235
-0.11
-0.12
-0.11
-0.11
-0.085
-0.09
-0.08
-0.065
-0.075
-0.075
-0.055
-0.035
-0.025
-0.005
0.005
0.025
0.055
0.095
0.13
0.17
0.195
0.23
0.275
0.3
0.33
0.33
0.28
0.22
0.15
0.08
0.07
0.015
0.005
-0.015
0.0
0.005
-0.02
-0.005
0.0
0.0
0.0
-0.005
-0.01
-0.02
-0.02
-0.025
-0.03
-0.04
-0.055
-0.065
-0.065
-0.065
-0.065
-0.065
-0.07
-0.045
-0.065
-0.09
-0.095
-0.09
-0.085
-0.08
-0.065
-0.09
-0.1
-0.095
-0.075
-0.025
0.01
0.055
0.06
0.055
-0.005
-0.03
-0.06
-0.105
-0.085
-0.11
-0.14
-0.14
-0.14
-0.12
-0.065
0.565
1.29
0.785
-0.08
-0.495
-0.47
-0.335
-0.235
-0.12
-0.105
-0.11
-0.1
-0.115
-0.085
-0.105
-0.085
-0.06
-0.075
-0.055
-0.025
-0.02
-0.005
0.015
0.03
0.07
0.095
0.145
0.16
0.19
0.24
0.275
0.3
0.34
0.305
0.27
0.195
0.14
0.08
0.045
0.01
0.0
0.0
-0.015
-0.005
-0.015
-0.02
-0.005
-0.005
-0.02
-0.02
-0.01
-0.03
-0.02
-0.045
-0.04
-0.055
-0.075
-0.075
-0.07
-0.06
-0.09
-0.08
-0.09
-0.08
-0.085
-0.095
-0.085
-0.085
-0.095
-0.09
-0.1
-0.105
-0.07
-0.025
-0.01
0.005
0.025
0.055
0.045
-0.005
-0.03
-0.04
-0.085
-0.135
-0.15
-0.15
-0.125
-0.15
-0.135
-0.115
0.49
1.3
0.815
-0.06
-0.495
-0.49
-0.37
-0.235
-0.12
-0.13
-0.125
-0.115
-0.105
-0.105
-0.095
-0.09
-0.08
-0.07
-0.06
-0.045
-0.035
-0.02
0.01
0.025
0.055
0.085
0.12
0.16
0.19
0.22
0.265
0.29
0.31
0.295
0.26
0.2
0.145
0.085
0.04
0.02
0.0
0.0
-0.01
-0.02
-0.01
-0.01
-0.02
-0.015
-0.015
-0.02
-0.02
-0.03
-0.05
-0.045
-0.055
-0.055
-0.07
-0.075
-0.08
-0.085
-0.085
-0.085
-0.095
-0.09
-0.09
-0.09
-0.095
-0.095
-0.095
-0.075
-0.02
0.0
0.005
0.05
0.065
0.05
-0.005
-0.035
-0.04
-0.09
-0.135
-0.145
-0.15
-0.135
-0.14
-0.13
-0.055
0.54
1.235
0.7
-0.17
-0.525
-0.5
-0.35
-0.205
-0.135
-0.125
-0.11
-0.115
-0.1
-0.095
-0.095
-0.1
-0.07
-0.06
-0.045
-0.045
-0.025
-0.005
0.025
0.06
0.075
0.11
0.14
0.165
0.2
0.225
0.27
0.31
0.32
0.29
0.25
0.18
0.12
0.065
0.02
0.0
0.0
-0.01
-0.02
-0.02
-0.025
-0.01
-0.02
-0.02
-0.01
-0.025
-0.035
-0.03
-0.035
-0.05
-0.06
-0.06
-0.06
-0.075
-0.075
-0.075
-0.075
-0.075
-0.08
-0.085
-0.08
-0.09
-0.105
-0.095
-0.03
0.0
0.005
0.015
0.045
0.08
0.06
-0.005
-0.04
-0.055
-0.095
-0.12
-0.145
-0.155
-0.155
-0.14
-0.14
0.035
0.655
1.06
0.565
-0.225
-0.515
-0.475
-0.34
-0.185
-0.13
-0.125
-0.125
-0.125
-0.115
-0.105
-0.095
-0.09
-0.08
-0.07
-0.055
-0.05
-0.03
0.0
0.005
0.03
0.055
0.095
0.125
0.165
0.2
0.24
0.265
0.31
0.31
0.275
0.24
0.17
0.115
0.06
0.02
0.0
-0.01
-0.015
-0.035
-0.03
-0.02
-0.015
-0.015
-0.025
-0.025
-0.035
-0.035
-0.04
-0.05
-0.055
-0.065
-0.07
-0.06
-0.07
-0.075
-0.07
-0.08
-0.085
-0.095
-0.09
-0.095
-0.085
-0.08
-0.05
0.0
0.0
0.01
0.05
0.085
0.065
-0.01
-0.035
-0.07
-0.095
-0.12
-0.155
-0.15
-0.145
-0.15
-0.14
0.0
0.59
1.095
0.615
-0.15
-0.48
-0.465
-0.355
-0.215
-0.13
-0.13
-0.12
-0.12
-0.1
-0.105
-0.095
-0.09
-0.08
-0.065
-0.055
-0.035
-0.02
-0.005
0.015
0.04
0.06
0.1
0.13
0.16
0.2
0.24
0.275
0.3
0.3
0.3
0.24
0.175
0.115
0.075
0.035
0.02
0.0
0.0
0.015
-0.005
0.0
-0.005
-0.005
-0.015
0.0
0.005
-0.025
-0.03
-0.035
-0.035
-0.025
-0.045
-0.035
-0.065
-0.06
-0.06
-0.05
-0.055
-0.065
-0.065
-0.075
-0.07
-0.07
-0.02
0.01
0.03
0.06
0.08
0.085
0.05
-0.015
-0.01
-0.085
-0.11
-0.115
-0.14
-0.14
-0.15
-0.105
-0.14
0.31
1.08
0.765
0.25
-0.28
-0.44
-0.39
-0.31
-0.11
-0.135
-0.1
-0.105
-0.095
-0.105
-0.045
-0.095
-0.065
-0.055
-0.04
-0.07
0.02
0.015
0.0
0.02
0.07
0.18
0.22
0.24
0.185
0.205
0.25
0.3
0.33
0.32
0.285
0.215
0.12
0.085
0.05
-0.025
0.0
-0.01
-0.015
-0.055
-0.02
-0.05
-0.02
0.05
-0.055
-0.035
-0.065
-0.005
-0.04
-0.045
-0.06
-0.07
-0.115
-0.08
-0.075
-0.055
-0.06
-0.135
-0.09
-0.105
-0.1
-0.08
-0.075
-0.065
-0.01
-0.02
0.065
0.06
0.03
-0.045
-0.065
-0.065
-0.1
-0.14
-0.165
-0.14
-0.12
-0.19
-0.135
0.015
0.765
1.385
0.66
-0.31
-0.66
-0.535
-0.375
-0.165
-0.135
-0.155
-0.14
-0.11
-0.06
-0.14
-0.11
-0.07
-0.095
-0.035
-0.04
-0.005
0.02
-0.055
0.09
0.065
0.095
0.18
0.225
0.21
0.32
0.335
0.315
0.4
0.41
0.355
0.23
0.2
0.1
0.04
0.035
-0.03
-0.025
-0.025
-0.035
-0.02
-0.03
-0.005
-0.065
-0.025
-0.06
0.02
0.005
-0.065
-0.04
-0.03
-0.01
-0.1
-0.025
-0.095
-0.075
-0.06
-0.085
-0.055
-0.115
-0.12
-0.09
-0.055
-0.01
-0.08
0.035
0.055
0.01
0.02
0.01
-0.1
-0.06
-0.04
-0.21
-0.18
-0.15
-0.15
-0.165
-0.18
0.02
1.035
1.545
0.425
-0.535
-0.7
-0.565
-0.335
-0.22
-0.15
-0.14
-0.115
-0.135
-0.11
-0.06
-0.03
-0.195
-0.025
-0.07
-0.095
0.025
-0.04
0.025
0.045
0.02
0.16
0.145
0.19
0.26
0.265
0.325
0.31
0.355
0.27
0.275
0.25
0.15
0.11
-0.11
0.035
-0.08
-0.05
0.0
-0.085
0.015
-0.09
-0.07
-0.03
-0.035
-0.055
-0.025
-0.02
-0.01
-0.065
0.02
-0.145
-0.09
-0.03
-0.045
-0.065
-0.145
-0.04
-0.055
-0.11
-0.115
-0.07
-0.03
0.04
0.03
-0.02
0.04
0.11
-0.005
-0.045
-0.03
-0.145
-0.055
-0.16
-0.195
-0.07
-0.145
-0.16
-0.1
0.66
1.665
0.845
-0.52
-0.715
-0.53
-0.39
-0.22
-0.15
-0.15
-0.16
-0.1
-0.11
-0.085
-0.075
-0.075
-0.045
-0.08
-0.05
-0.06
0.065
-0.02
0.04
0.1
0.125
0.105
0.185
0.27
0.225
0.295
0.36
0.33
0.32
0.3
0.21
0.205
0.06
0.1
0.025
-0.025
0.01
-0.04
-0.055
-0.015
0.0
-0.015
-0.02
0.015
0.01
-0.075
0.035
-0.03
-0.025
-0.02
-0.02
0.0
-0.1
-0.03
-0.09
-0.09
-0.045
-0.05
-0.1
-0.055
-0.09
-0.11
-0.085
-0.065
-0.02
0.005
0.005
0.005
0.07
0.03
-0.035
-0.035
-0.025
-0.09
-0.19
-0.14
-0.14
-0.15
-0.145
-0.185
-0.095
0.76
1.645
0.8
-0.49
-0.685
-0.5
-0.365
-0.17
-0.145
-0.125
-0.13
-0.125
-0.1
-0.15
-0.075
-0.055
-0.085
-0.065
-0.07
-0.02
-0.05
0.01
0.005
0.05
0.06
0.08
0.185
0.115
0.19
0.215
0.24
0.27
0.28
0.265
0.19
0.135
0.085
0.03
0.015
-0.005
-0.05
-0.03
-0.02
0.0
-0.015
0.03
0.015
0.0
0.025
0.025
-0.01
0.0
0.0
-0.06
-0.005
-0.035
-0.045
-0.07
-0.08
-0.065
-0.065
-0.07
-0.075
-0.105
-0.075
-0.075
-0.125
-0.08
-0.1
-0.085
-0.05
-0.015
0.045
-0.01
0.0
0.05
0.02
0.0
-0.035
-0.03
-0.1
-0.165
-0.135
-0.145
-0.135
-0.12
-0.195
0.1
1.045
1.455
0.46
-0.595
-0.62
-0.435
-0.265
-0.105
-0.155
-0.115
-0.1
-0.1
-0.085
-0.105
-0.095
-0.08
-0.065
-0.06
-0.035
0.005
-0.005
-0.02
0.05
0.035
0.075
0.115
0.155
0.135
0.18
0.21
0.2
0.28
0.28
0.285
0.195
0.165
0.08
0.045
0.03
0.02
0.015
0.02
0.0
-0.005
0.01
-0.015
0.03
0.005
-0.015
-0.015
-0.005
0.0
-0.01
-0.045
-0.02
-0.04
-0.085
-0.07
-0.055
-0.055
-0.07
-0.085
-0.085
-0.085
-0.085
-0.09
-0.08
-0.06
-0.075
-0.11
-0.09
-0.075
-0.055
-0.015
0.01
0.01
0.0
0.045
0.045
0.01
-0.025
0.0
-0.115
-0.115
-0.16
-0.135
-0.135
-0.145
-0.145
-0.125
0.685
1.645
0.945
-0.435
-0.69
-0.495
-0.275
-0.13
-0.135
-0.145
-0.1
-0.105
-0.105
-0.055
-0.12
-0.08
-0.08
-0.065
-0.065
-0.03
-0.005
0.015
0.04
0.015
0.05
0.08
0.1
0.135
0.15
0.18
0.23
0.23
0.275
0.265
0.23
0.15
0.12
0.075
0.06
0.025
0.015
0.0
0.0
0.005
0.005
-0.005
0.015
0.005
-0.005
0.0
0.0
-0.015
-0.015
-0.065
-0.045
-0.045
-0.05
-0.045
-0.065
-0.085
-0.065
-0.08
-0.075
-0.085
-0.07
-0.09
-0.08
-0.06
-0.1
-0.095
-0.09
-0.065
-0.105
-0.09
-0.095
0.015
0.0
0.005
0.01
0.055
0.045
0.025
-0.015
-0.035
-0.075
-0.125
-0.165
-0.145
-0.135
-0.135
-0.155
-0.055
0.855
1.585
0.735
-0.51
-0.645
-0.44
-0.26
-0.115
-0.14
-0.145
-0.115
-0.105
-0.105
-0.085
-0.09
-0.08
-0.08
-0.06
-0.04
-0.05
-0.015
0.0
0.035
0.02
0.045
0.09
0.11
0.12
0.16
0.205
0.245
0.265
0.31
0.275
0.215
0.17
0.12
0.09
0.045
0.03
0.025
-0.01
0.0
0.0
0.0
0.01
0.01
0.0
-0.015
0.0
-0.015
-0.01
-0.04
-0.04
-0.035
-0.035
-0.065
-0.06
-0.045
-0.065
-0.08
-0.075
-0.085
-0.07
-0.08
-0.095
-0.07
-0.085
-0.095
-0.09
-0.09
-0.08
-0.095
-0.1
-0.08
-0.005
0.015
0.02
0.025
0.04
0.03
0.0
-0.025
-0.035
-0.1
-0.125
-0.145
-0.135
-0.145
-0.155
-0.18
0.015
1.01
1.49
0.54
-0.555
-0.62
-0.425
-0.22
-0.11
-0.16
-0.145
-0.13
-0.125
-0.115
-0.115
-0.115
-0.075
-0.08
-0.065
-0.045
-0.045
-0.035
-0.02
0.005
0.02
0.05
0.1
0.125
0.165
0.195
0.225
0.265
0.305
0.305
0.29
0.22
0.16
0.12
0.07
0.03
0.02
0.005
0.0
0.0
0.01
-0.005
0.01
0.01
-0.01
-0.005
-0.015
-0.015
-0.015
-0.03
-0.06
-0.035
-0.065
-0.065
-0.035
-0.07
-0.065
-0.07
-0.065
-0.08
-0.095
-0.09
-0.08
-0.095
-0.09
-0.09
-0.115
-0.105
-0.11
-0.1
-0.105
-0.095
-0.05
-0.005
0.015
-0.015
0.005
0.025
0.015
-0.03
-0.035
-0.105
-0.125
-0.145
-0.165
-0.14
-0.165
-0.15
-0.195
0.55
1.59
1.005
-0.31
-0.67
-0.5
-0.285
-0.15
-0.145
-0.14
-0.14
-0.14
-0.105
-0.135
-0.105
-0.1
-0.085
-0.065
-0.07
-0.045
-0.02
-0.01
0.025
0.035
0.04
0.085
0.11
0.16
0.2
0.25
0.275
0.335
0.35
0.31
0.26
0.215
0.14
0.065
0.045
0.02
0.005
0.005
0.01
0.005
-0.015
0.0
-0.005
-0.005
0.0
0.0
-0.02
-0.025
-0.03
-0.04
-0.055
-0.05
-0.055
-0.065
-0.055
-0.085
-0.08
-0.075
-0.1
-0.09
-0.085
-0.1
-0.08
-0.115
-0.085
-0.105
-0.11
-0.1
-0.1
-0.1
-0.1
-0.07
0.0
-0.005
0.01
0.01
0.03
0.015
-0.04
-0.04
-0.065
-0.125
-0.15
-0.155
-0.155
-0.155
-0.145
-0.215
0.305
1.405
1.22
0.035
-0.64
-0.53
-0.345
-0.16
-0.13
-0.14
-0.135
-0.12
-0.11
-0.115
-0.095
-0.105
-0.075
-0.07
-0.055
-0.055
-0.01
-0.005
0.0
0.035
0.06
0.09
0.13
0.15
0.21
0.235
0.31
0.34
0.365
0.365
0.295
0.235
0.155
0.09
0.045
0.025
0.01
-0.01
0.0
0.005
0.005
0.01
-0.015
0.0
-0.01
-0.025
-0.01
-0.02
-0.035
-0.045
-0.06
-0.05
-0.04
-0.065
-0.07
-0.09
-0.08
-0.09
-0.075
-0.065
-0.09
-0.1
-0.105
-0.105
-0.085
-0.11
-0.095
-0.105
-0.115
-0.1
-0.075
0.01
-0.005
0.005
0.02
0.025
0.0
-0.065
-0.055
-0.085
-0.13
-0.17
-0.14
-0.155
-0.15
-0.175
-0.095
0.775
1.58
0.87
-0.435
-0.655
-0.45
-0.235
-0.115
-0.13
-0.115
-0.13
-0.12
-0.115
-0.1
-0.1
-0.065
-0.075
-0.065
-0.05
-0.025
-0.005
0.005
0.015
0.045
0.065
0.125
0.135
0.18
0.215
0.28
0.345
0.36
0.38
0.315
0.265
0.18
0.115
0.04
0.015
0.01
-0.005
-0.005
0.0
-0.025
-0.015
-0.005
-0.02
-0.03
-0.015
-0.03
-0.035
-0.035
-0.055
-0.055
-0.07
-0.055
-0.07
-0.09
-0.085
-0.07
-0.085
-0.095
-0.1
-0.095
-0.09
-0.095
-0.105
-0.105
-0.125
-0.12
-0.105
-0.115
-0.11
-0.04
0.0
0.005
0.025
0.0
-0.005
-0.06
-0.085
-0.06
-0.14
-0.165
-0.16
-0.15
-0.165
-0.165
-0.24
0.35
1.46
1.2
-0.045
-0.665
-0.535
-0.325
-0.15
-0.135
-0.14
-0.13
-0.12
-0.115
-0.1
-0.1
-0.12
-0.07
-0.06
-0.05
-0.035
-0.015
0.0
0.02
0.05
0.06
0.095
0.16
0.205
0.235
0.29
0.34
0.39
0.39
0.36
0.295
0.22
0.15
0.07
0.005
-0.015
-0.005
-0.03
-0.01
-0.03
-0.02
-0.025
-0.025
-0.025
-0.04
-0.045
-0.04
-0.05
-0.065
-0.065
-0.075
-0.07
-0.085
-0.085
-0.095
-0.095
-0.095
-0.115
-0.11
-0.1
-0.11
-0.115
-0.13
-0.115
-0.11
-0.14
-0.12
-0.13
-0.11
-0.02
-0.015
0.0
0.03
-0.015
-0.045
-0.075
-0.07
-0.14
-0.165
-0.18
-0.175
-0.18
-0.16
-0.27
0.205
1.31
1.255
0.155
-0.635
-0.58
-0.34
-0.185
-0.145
-0.15
-0.15
-0.145
-0.135
-0.135
-0.1
-0.09
-0.1
-0.07
-0.065
-0.05
-0.035
0.0
-0.005
0.03
0.075
0.105
0.13
0.19
0.24
0.285
0.36
0.38
0.4
0.37
0.32
0.21
0.145
0.08
0.025
0.015
-0.025
-0.02
-0.015
-0.01
-0.005
-0.01
-0.02
-0.03
-0.025
-0.025
-0.025
-0.035
-0.035
-0.07
-0.06
-0.075
-0.07
-0.075
-0.085
-0.095
-0.09
-0.095
-0.095
-0.115
-0.12
-0.1
-0.095
-0.1
-0.13
-0.105
-0.115
-0.115
-0.07
0.005
-0.005
0.03
0.015
-0.03
-0.075
-0.065
-0.12
-0.155
-0.195
-0.15
-0.17
-0.18
-0.23
0.19
1.255
1.265
0.225
-0.63
-0.59
-0.35
-0.2
-0.145
-0.155
-0.155
-0.145
-0.135
-0.135
-0.115
-0.11
-0.08
-0.085
-0.09
-0.055
-0.035
-0.025
0.005
0.03
0.055
0.11
0.14
0.18
0.24
0.29
0.355
0.4
0.395
0.345
0.29
0.21
0.135
0.065
0.01
-0.01
-0.015
-0.03
-0.03
-0.015
-0.02
-0.02
-0.01
-0.03
-0.04
-0.03
-0.04
-0.045
-0.045
-0.06
-0.065
-0.08
-0.075
-0.075
-0.09
-0.08
-0.085
-0.11
-0.1
-0.105
-0.11
-0.11
-0.11
-0.12
-0.12
-0.12
-0.115
-0.105
-0.075
0.0
0.0
0.015
0.025
-0.04
-0.08
-0.055
-0.13
-0.165
-0.17
-0.16
-0.165
-0.165
-0.235
0.37
1.45
1.155
-0.07
-0.665
-0.545
-0.3
-0.155
-0.145
-0.145
-0.14
-0.135
-0.135
-0.105
-0.13
-0.11
-0.09
-0.07
-0.065
-0.04
-0.015
0.005
0.015
0.035
0.08
0.12
0.155
0.195
0.27
0.315
0.37
0.39
0.41
0.37
0.28
0.195
0.105
0.055
0.02
-0.005
-0.03
-0.04
-0.02
-0.035
-0.03
-0.04
-0.025
-0.025
-0.045
-0.05
-0.06
-0.055
-0.06
-0.045
-0.075
-0.095
-0.085
-0.105
-0.09
-0.095
-0.115
-0.115
-0.1
-0.1
-0.115
-0.125
-0.12
-0.115
-0.13
-0.12
-0.085
0.01
0.0
0.0
0.005
-0.045
-0.06
-0.07
-0.13
-0.16
-0.17
-0.16
-0.155
-0.155
-0.25
0.28
1.375
1.215
0.055
-0.635
-0.54
-0.315
-0.145
-0.14
-0.13
-0.135
-0.13
-0.13
-0.125
-0.085
-0.11
-0.075
-0.08
-0.06
-0.035
0.0
-0.015
0.015
0.035
0.08
0.12
0.16
0.21
0.255
0.31
0.355
0.405
0.41
0.365
0.295
0.19
0.105
0.055
0.0
0.0
-0.005
-0.025
-0.04
-0.035
-0.025
-0.025
-0.025
-0.04
-0.03
-0.04
-0.035
-0.055
-0.065
-0.07
-0.065
-0.08
-0.085
-0.1
-0.095
-0.1
-0.105
-0.095
-0.1
-0.115
-0.115
-0.11
-0.115
-0.12
-0.12
-0.1
-0.065
0.015
0.0
0.02
0.025
-0.065
-0.075
