signal
0.13
0.19
0.225
0.255
0.295
0.325
0.31
0.26
0.22
0.16
0.08
0.015
-0.005
-0.01
-0.045
-0.06
-0.07
-0.04
-0.055
-0.05
-0.045
-0.06
-0.02
-0.01
-0.02
-0.04
-0.035
-0.06
-0.05
-0.045
-0.055
-0.07
-0.08
-0.055
-0.075
-0.07
-0.075
-0.065
-0.065
-0.065
-0.11
-0.09
-0.09
-0.095
-0.075
-0.085
-0.1
-0.06
-0.045
-0.035
-0.025
0.035
0.05
0.01
-0.015
-0.04
-0.07
-0.095
-0.16
-0.14
-0.115
-0.135
-0.13
-0.12
0.025
0.67
1.19
0.7
-0.085
-0.4
-0.35
-0.275
-0.15
-0.11
-0.1
-0.09
-0.115
-0.105
-0.085
-0.065
-0.08
-0.06
-0.065
-0.06
-0.03
-0.01
0.0
0.02
0.065
0.105
0.115
0.17
0.22
0.25
0.28
0.325
0.315
0.29
0.22
0.14
0.085
0.045
0.005
-0.02
-0.025
-0.025
-0.03
-0.05
-0.045
-0.035
-0.045
-0.02
-0.045
-0.035
-0.02
-0.03
-0.04
-0.045
-0.045
-0.03
-0.055
-0.055
-0.065
-0.055
-0.06
-0.085
-0.085
-0.07
-0.085
-0.085
-0.09
-0.075
-0.07
-0.065
-0.09
-0.09
-0.085
-0.065
-0.065
-0.02
-0.015
0.015
0.05
0.025
0.005
-0.03
-0.05
-0.08
-0.125
-0.12
-0.13
-0.125
-0.14
-0.135
-0.155
0.43
1.305
0.89
0.055
-0.33
-0.34
-0.275
-0.205
-0.1
-0.115
-0.09
-0.095
-0.1
-0.08
-0.075
-0.085
-0.08
-0.07
-0.045
-0.04
-0.015
0.0
0.015
0.04
0.09
0.105
0.165
0.195
0.24
0.265
0.285
0.31
0.29
0.235
0.17
0.115
0.055
0.01
0.0
-0.04
-0.04
-0.045
-0.06
-0.055
-0.045
-0.055
-0.03
-0.04
-0.035
-0.02
-0.02
-0.035
-0.03
-0.04
-0.045
-0.06
-0.07
-0.06
-0.065
-0.075
-0.065
-0.075
-0.07
-0.085
-0.085
-0.075
-0.085
-0.085
-0.065
-0.09
-0.08
-0.075
-0.09
-0.095
-0.06
-0.05
-0.02
-0.01
0.04
0.055
0.03
-0.01
-0.015
-0.055
-0.095
-0.125
-0.13
-0.145
-0.125
-0.125
-0.11
-0.09
0.485
1.25
0.835
0.0
-0.385
-0.34
-0.235
-0.12
-0.095
-0.1
-0.095
-0.1
-0.09
-0.07
-0.055
-0.085
-0.04
-0.035
-0.025
-0.035
-0.02
0.01
0.045
0.04
0.095
0.13
0.145
0.2
0.245
0.25
0.305
0.31
0.29
0.245
0.18
0.125
0.065
0.01
-0.01
-0.035
-0.05
-0.045
-0.045
-0.06
-0.04
-0.025
-0.035
-0.03
-0.03
-0.025
-0.025
-0.015
-0.015
-0.03
-0.04
-0.065
-0.05
-0.075
-0.055
-0.055
-0.045
-0.065
-0.085
-0.075
-0.06
-0.065
-0.08
-0.08
-0.1
-0.08
-0.08
-0.08
-0.105
-0.09
-0.085
-0.04
-0.01
0.035
0.065
0.02
-0.01
-0.015
-0.05
-0.07
-0.115
-0.13
-0.145
-0.125
-0.13
-0.135
-0.145
0.355
1.21
0.845
0.145
-0.305
-0.35
-0.305
-0.225
-0.12
-0.13
-0.115
-0.11
-0.105
-0.105
-0.07
-0.05
-0.075
-0.06
-0.055
-0.03
-0.01
-0.015
0.01
0.06
0.085
0.11
0.15
0.185
0.225
0.255
0.295
0.315
0.32
0.265
0.19
0.13
0.05
0.025
-0.015
-0.03
-0.07
-0.035
-0.02
-0.05
-0.05
-0.07
-0.045
-0.015
-0.04
-0.045
-0.04
-0.025
-0.03
-0.055
-0.05
-0.055
-0.055
-0.055
-0.055
-0.07
-0.08
-0.08
-0.07
-0.07
-0.09
-0.095
-0.1
-0.105
-0.1
-0.095
-0.09
-0.085
-0.075
-0.075
-0.035
-0.025
0.02
0.055
0.035
0.02
-0.035
-0.04
-0.065
-0.11
-0.13
-0.11
-0.135
-0.12
-0.13
-0.165
0.22
1.06
0.995
0.385
-0.18
-0.355
-0.325
-0.275
-0.095
-0.12
-0.105
-0.095
-0.1
-0.09
-0.085
-0.07
-0.055
-0.04
-0.045
-0.05
-0.035
0.0
0.015
0.035
0.075
0.105
0.145
0.17
0.205
0.25
0.28
0.315
0.31
0.265
0.21
0.14
0.07
0.02
-0.005
-0.03
-0.04
-0.035
-0.04
-0.025
-0.03
-0.04
-0.04
-0.025
-0.025
-0.02
-0.03
-0.025
-0.035
-0.045
-0.045
-0.045
-0.045
-0.05
-0.06
-0.06
-0.05
-0.07
-0.075
-0.07
-0.095
-0.095
-0.09
-0.075
-0.075
-0.09
-0.095
-0.09
-0.095
-0.09
-0.075
-0.055
-0.02
-0.025
0.015
0.05
0.035
-0.025
-0.045
-0.06
-0.09
-0.13
-0.14
-0.14
-0.155
-0.15
-0.145
-0.165
0.355
1.22
0.875
0.11
-0.345
-0.355
-0.305
-0.195
-0.11
-0.115
-0.115
-0.11
-0.095
-0.105
-0.09
-0.08
-0.075
-0.06
-0.05
-0.03
-0.025
-0.015
0.0
0.025
0.07
0.1
0.15
0.175
0.21
0.25
0.265
0.285
0.285
0.245
0.19
0.12
0.065
0.02
-0.015
-0.03
-0.03
-0.035
-0.035
-0.06
-0.05
-0.045
-0.04
-0.025
-0.04
-0.025
-0.025
-0.025
-0.035
-0.03
-0.05
-0.07
-0.06
-0.055
-0.06
-0.05
-0.065
-0.07
-0.08
-0.08
-0.08
-0.085
-0.09
-0.09
-0.08
-0.075
-0.08
-0.08
-0.09
-0.09
-0.085
-0.05
-0.005
-0.015
0.005
0.055
0.045
0.0
-0.025
-0.045
-0.075
-0.135
-0.125
-0.13
-0.12
-0.125
-0.13
-0.16
0.315
1.145
0.87
0.225
-0.295
-0.35
-0.3
-0.225
-0.095
-0.105
-0.08
-0.09
-0.085
-0.075
-0.075
-0.08
-0.07
-0.065
-0.05
-0.02
-0.015
-0.015
0.025
0.055
0.09
0.105
0.135
0.185
0.24
0.285
0.305
0.305
0.305
0.275
0.19
0.155
0.075
0.04
-0.01
-0.02
-0.05
-0.04
-0.025
-0.03
-0.03
-0.03
-0.045
-0.025
-0.01
-0.045
-0.035
-0.035
-0.01
-0.005
-0.05
-0.055
-0.06
-0.05
-0.045
-0.045
-0.075
-0.07
-0.07
-0.06
-0.05
-0.055
-0.07
-0.09
-0.095
-0.08
-0.06
-0.06
-0.085
-0.05
-0.055
-0.02
-0.035
0.03
0.085
0.045
-0.005
-0.01
-0.06
-0.08
-0.125
-0.13
-0.13
-0.105
-0.12
-0.145
-0.13
0.455
1.305
0.815
-0.01
-0.35
-0.35
-0.28
-0.195
-0.11
-0.13
-0.105
-0.095
-0.08
-0.075
-0.09
-0.11
-0.065
-0.045
-0.045
-0.02
-0.01
0.005
0.025
0.055
0.105
0.14
0.15
0.17
0.215
0.265
0.285
0.325
0.31
0.23
0.185
0.12
0.06
0.0
0.005
-0.025
-0.05
-0.06
-0.055
-0.05
-0.055
-0.06
-0.035
-0.03
-0.035
-0.045
-0.03
-0.03
-0.035
-0.03
-0.04
-0.05
-0.055
-0.055
-0.065
-0.06
-0.06
-0.07
-0.075
-0.085
-0.08
-0.07
-0.075
-0.08
-0.075
-0.08
-0.09
-0.1
-0.09
-0.045
-0.025
0.015
0.06
0.045
0.0
-0.025
-0.055
-0.08
-0.115
-0.13
-0.125
-0.135
-0.13
-0.12
-0.17
0.35
1.275
0.94
0.165
-0.26
-0.33
-0.265
-0.195
-0.1
-0.11
-0.105
-0.09
-0.1
-0.085
-0.085
-0.07
-0.065
-0.06
-0.035
-0.035
-0.01
0.0
0.03
0.02
0.05
0.105
0.145
0.185
0.205
0.25
0.305
0.305
0.275
0.245
0.195
0.115
0.07
0.025
-0.01
-0.035
-0.04
-0.04
-0.055
-0.05
-0.045
-0.045
-0.05
-0.025
-0.025
-0.02
-0.025
-0.03
-0.02
-0.03
-0.05
-0.045
-0.055
-0.06
-0.055
-0.05
-0.05
-0.07
-0.075
-0.075
-0.065
-0.09
-0.08
-0.08
-0.095
-0.085
-0.085
-0.075
-0.095
-0.08
-0.055
-0.015
0.0
0.045
0.06
0.015
-0.035
-0.05
-0.08
-0.105
-0.135
-0.14
-0.135
-0.135
-0.13
-0.165
0.055
0.785
1.14
0.66
-0.115
-0.36
-0.315
-0.275
-0.11
-0.105
-0.105
-0.08
-0.08
-0.085
-0.09
-0.085
-0.065
-0.065
-0.045
-0.035
-0.01
-0.01
0.0
0.035
0.065
0.1
0.115
0.17
0.21
0.245
0.26
0.285
0.295
0.255
0.21
0.16
0.105
0.035
-0.005
-0.025
-0.04
-0.045
-0.04
-0.04
-0.05
-0.03
-0.03
-0.02
-0.02
-0.03
-0.045
-0.035
-0.03
-0.025
-0.04
-0.05
-0.04
-0.04
-0.045
-0.055
-0.07
-0.065
-0.06
-0.075
-0.06
-0.055
-0.075
-0.09
-0.09
-0.07
-0.085
-0.09
-0.095
-0.055
-0.03
-0.005
0.0
0.04
0.07
0.045
-0.01
-0.045
-0.075
-0.095
-0.13
-0.115
-0.12
-0.11
-0.135
-0.135
-0.015
0.645
1.19
0.74
-0.055
-0.41
-0.315
-0.265
-0.105
-0.09
-0.1
-0.085
-0.085
-0.065
-0.065
-0.08
-0.07
-0.035
-0.03
-0.035
-0.025
0.005
0.015
0.05
0.06
0.105
0.135
0.18
0.205
0.25
0.285
0.305
0.32
0.3
0.245
0.17
0.1
0.035
0.01
-0.01
-0.03
-0.045
-0.06
-0.06
-0.05
-0.035
-0.025
-0.03
-0.055
-0.03
-0.035
-0.02
-0.03
-0.03
-0.045
-0.055
-0.025
-0.055
-0.065
-0.075
-0.065
-0.075
-0.06
-0.06
-0.075
-0.08
-0.1
-0.08
-0.085
-0.085
-0.105
-0.1
-0.06
-0.06
-0.035
-0.005
0.035
0.07
0.04
-0.025
-0.045
-0.05
-0.085
-0.11
-0.13
-0.13
-0.125
-0.125
-0.13
-0.135
0.405
1.265
0.845
0.06
-0.325
-0.355
-0.325
-0.235
-0.115
-0.11
-0.1
-0.1
-0.085
-0.095
-0.09
-0.085
-0.065
-0.065
-0.035
-0.045
-0.02
0.0
0.015
0.055
0.085
0.13
0.17
0.19
0.23
0.285
0.29
0.325
0.315
0.265
0.175
0.1
0.06
0.005
-0.02
-0.03
-0.04
-0.04
-0.025
-0.045
-0.055
-0.055
-0.05
-0.04
-0.035
-0.025
-0.035
-0.05
-0.055
-0.05
-0.045
-0.06
-0.06
-0.065
-0.065
-0.08
-0.075
-0.07
-0.08
-0.09
-0.095
-0.09
-0.08
-0.085
-0.095
-0.105
-0.1
-0.085
-0.085
-0.06
-0.035
-0.02
0.015
0.045
0.02
-0.025
-0.04
-0.075
-0.11
-0.145
-0.135
-0.13
-0.135
-0.145
-0.145
-0.09
0.54
1.28
0.81
-0.015
-0.39
-0.37
-0.29
-0.17
-0.12
-0.11
-0.11
-0.105
-0.095
-0.09
-0.07
-0.07
-0.09
-0.075
-0.055
-0.045
-0.02
-0.01
0.03
0.045
0.085
0.125
0.16
0.18
0.215
0.25
0.295
0.3
0.285
0.24
0.16
0.115
0.055
0.01
-0.025
-0.04
-0.045
-0.04
-0.04
-0.04
-0.055
-0.045
-0.04
-0.05
-0.05
-0.035
-0.04
-0.04
-0.04
-0.035
-0.04
-0.05
-0.06
-0.06
-0.055
-0.065
-0.065
-0.07
-0.085
-0.07
-0.075
-0.075
-0.08
-0.075
-0.09
-0.065
-0.09
-0.075
-0.09
-0.07
-0.035
-0.02
-0.02
0.03
0.055
0.03
-0.01
-0.04
-0.06
-0.11
-0.125
-0.115
-0.135
-0.115
-0.125
-0.13
-0.08
0.525
1.255
0.815
-0.035
-0.39
-0.36
-0.27
-0.135
-0.09
-0.095
-0.085
-0.1
-0.09
-0.09
-0.08
-0.07
-0.065
-0.04
-0.03
-0.035
-0.02
0.0
0.035
0.06
0.09
0.115
0.15
0.195
0.235
0.255
0.315
0.31
0.295
0.245
0.19
0.125
0.06
0.025
-0.005
-0.02
-0.03
-0.03
-0.025
-0.025
-0.035
-0.02
-0.015
-0.035
-0.015
-0.015
-0.005
-0.005
-0.02
-0.04
-0.035
-0.03
-0.045
-0.06
-0.055
-0.04
-0.07
-0.06
-0.06
-0.065
-0.065
-0.065
-0.06
-0.075
-0.075
-0.085
-0.07
-0.065
-0.075
-0.07
-0.045
-0.01
-0.005
0.05
0.07
0.035
-0.005
-0.015
-0.055
-0.095
-0.11
-0.115
-0.12
-0.13
-0.135
-0.14
-0.08
0.515
1.255
0.79
-0.025
-0.39
-0.34
-0.295
-0.17
-0.115
-0.11
-0.1
-0.11
-0.11
-0.085
-0.08
-0.08
-0.065
-0.06
-0.04
-0.025
-0.005
0.005
0.035
0.045
0.085
0.135
0.18
0.205
0.255
0.28
0.32
0.31
0.305
0.26
0.2
0.125
0.07
0.005
0.0
-0.005
-0.035
-0.05
-0.045
-0.035
-0.05
-0.035
-0.045
-0.02
-0.03
-0.01
-0.025
-0.03
-0.05
-0.035
-0.05
-0.045
-0.065
-0.075
-0.055
-0.07
-0.075
-0.07
-0.075
-0.075
-0.07
-0.08
-0.07
-0.08
-0.085
-0.07
-0.085
-0.085
-0.105
-0.11
-0.085
-0.065
-0.035
0.0
0.03
0.05
0.04
-0.015
-0.05
-0.08
-0.11
-0.14
-0.145
-0.145
-0.14
-0.14
-0.145
-0.05
0.615
1.245
0.77
-0.05
-0.395
-0.345
-0.295
-0.155
-0.1
-0.1
-0.095
-0.095
-0.085
-0.09
-0.07
-0.08
-0.07
-0.045
-0.04
-0.02
-0.005
0.015
0.015
0.055
0.085
0.12
0.165
0.19
0.245
0.27
0.315
0.315
0.305
0.255
0.175
0.12
0.055
0.01
-0.025
-0.025
-0.02
-0.015
-0.04
-0.025
-0.02
-0.035
-0.03
-0.04
-0.015
-0.015
-0.005
-0.025
-0.03
-0.025
-0.025
-0.03
-0.035
-0.05
-0.06
-0.05
-0.055
-0.045
-0.05
-0.055
-0.07
-0.06
-0.075
-0.075
-0.085
-0.085
-0.095
-0.08
-0.08
-0.075
-0.075
-0.05
-0.03
0.0
0.0
0.035
0.04
0.01
-0.015
-0.035
-0.055
-0.115
-0.13
-0.13
-0.13
-0.135
-0.13
-0.14
0.09
0.785
1.12
0.62
-0.165
-0.42
-0.34
-0.275
-0.11
-0.115
-0.1
-0.105
-0.08
-0.07
-0.075
-0.06
-0.055
-0.06
-0.075
-0.05
-0.03
-0.005
0.0
0.03
0.065
0.09
0.13
0.18
0.205
0.245
0.285
0.305
0.295
0.275
0.23
0.165
0.075
0.06
0.02
0.0
-0.015
-0.05
-0.045
-0.04
-0.04
-0.03
-0.015
-0.02
-0.025
-0.005
-0.015
-0.02
-0.035
-0.04
-0.035
-0.035
-0.035
-0.045
-0.05
-0.03
-0.055
-0.055
-0.07
-0.07
-0.055
-0.065
-0.06
-0.07
-0.06
-0.08
-0.075
-0.04
-0.07
-0.085
-0.08
-0.075
-0.05
0.0
-0.01
0.02
0.055
0.055
0.015
-0.02
-0.03
-0.06
-0.105
-0.115
-0.11
-0.135
-0.125
-0.125
-0.175
0.15
0.93
1.005
0.45
-0.165
-0.375
-0.35
-0.28
-0.105
-0.105
-0.1
-0.11
-0.1
-0.1
-0.085
-0.07
-0.055
-0.06
-0.05
-0.055
-0.03
-0.01
0.005
0.055
0.07
0.1
0.14
0.18
0.205
0.24
0.3
0.305
0.315
0.275
0.225
0.17
0.1
0.05
0.01
-0.01
-0.03
-0.03
-0.03
-0.035
-0.045
-0.035
-0.045
-0.025
-0.035
-0.04
-0.025
-0.02
-0.03
-0.045
-0.045
-0.04
-0.05
-0.07
-0.055
-0.06
-0.065
-0.08
-0.07
-0.07
-0.065
-0.065
-0.08
-0.08
-0.07
-0.075
-0.105
-0.075
-0.065
-0.1
-0.095
-0.065
-0.07
-0.02
-0.01
0.025
0.055
0.025
-0.01
-0.03
-0.055
-0.075
-0.125
-0.12
-0.145
-0.125
-0.12
-0.145
-0.09
0.56
1.315
0.825
-0.025
-0.375
-0.345
-0.3
-0.155
-0.11
-0.12
-0.105
-0.095
-0.085
-0.095
-0.09
-0.055
-0.055
-0.055
-0.045
-0.015
0.0
0.005
0.04
0.045
0.085
0.125
0.16
0.19
0.225
0.265
0.295
0.325
0.3
0.24
0.205
0.11
0.045
0.03
-0.025
-0.045
-0.03
-0.03
-0.05
-0.075
-0.035
-0.015
-0.04
-0.03
-0.02
-0.02
-0.02
-0.02
-0.045
-0.06
-0.07
-0.04
-0.04
-0.045
-0.06
-0.05
-0.055
-0.075
-0.065
-0.09
-0.08
-0.08
-0.09
-0.085
-0.085
-0.08
-0.085
-0.1
-0.1
-0.095
-0.095
-0.08
-0.1
-0.025
-0.01
0.045
0.055
0.035
-0.03
-0.06
-0.035
-0.07
-0.105
-0.11
-0.135
-0.115
-0.135
-0.125
-0.16
0.32
1.23
0.97
0.215
-0.255
-0.33
-0.31
-0.225
-0.1
-0.115
-0.075
-0.085
-0.08
-0.09
-0.09
-0.05
-0.05
-0.05
-0.045
-0.04
-0.015
-0.01
0.015
0.06
0.065
0.1
0.15
0.175
0.22
0.255
0.29
0.305
0.295
0.265
0.21
0.145
0.08
0.02
0.0
-0.015
-0.035
-0.04
-0.045
-0.05
-0.035
-0.055
-0.045
-0.05
-0.03
-0.03
-0.045
-0.045
-0.04
-0.045
-0.05
-0.035
-0.055
-0.07
-0.065
-0.065
-0.065
-0.08
-0.055
-0.075
-0.1
-0.075
-0.065
-0.09
-0.085
-0.085
-0.09
-0.085
-0.08
-0.085
-0.09
-0.11
-0.095
-0.08
-0.03
-0.03
0.02
0.055
0.04
-0.015
-0.045
-0.06
-0.09
-0.155
-0.14
-0.14
-0.135
-0.155
-0.15
-0.19
0.32
1.245
0.92
0.14
-0.325
-0.38
-0.305
-0.215
-0.095
-0.105
-0.105
-0.115
-0.105
-0.09
-0.09
-0.09
-0.065
-0.055
-0.05
-0.045
-0.03
0.0
0.015
0.04
0.06
0.1
0.155
0.18
0.205
0.245
0.275
0.29
0.3
0.275
0.21
0.14
0.08
0.03
0.015
-0.02
-0.035
-0.045
-0.04
-0.045
-0.035
-0.045
-0.025
0.0
-0.02
-0.02
-0.02
-0.03
-0.03
-0.02
-0.045
-0.04
-0.045
-0.05
-0.06
-0.07
-0.085
-0.085
-0.06
-0.07
-0.065
-0.07
-0.065
-0.06
-0.08
-0.075
-0.085
-0.09
-0.095
-0.095
-0.095
-0.105
-0.055
-0.04
0.0
-0.01
0.04
0.075
0.04
0.0
-0.025
-0.065
-0.08
-0.135
-0.12
-0.12
-0.12
-0.13
-0.12
-0.04
0.585
1.285
0.79
-0.065
-0.405
-0.365
-0.295
-0.155
-0.095
-0.11
-0.11
-0.095
-0.085
-0.07
-0.065
-0.055
-0.06
-0.04
-0.04
-0.035
-0.01
0.025
0.03
0.05
0.075
0.11
0.185
0.185
0.245
0.265
0.28
0.305
0.31
0.265
0.195
0.11
0.065
0.025
-0.01
-0.02
-0.05
-0.035
-0.02
-0.045
-0.04
-0.055
-0.03
-0.035
-0.04
-0.01
-0.025
-0.05
-0.045
-0.045
-0.045
-0.065
-0.06
-0.045
-0.055
-0.06
-0.08
-0.07
-0.1
-0.075
-0.06
-0.075
-0.075
-0.085
-0.085
-0.105
-0.09
-0.095
-0.08
-0.095
-0.06
-0.055
-0.02
-0.02
0.02
0.075
0.05
0.005
-0.025
-0.045
-0.075
-0.12
-0.125
-0.125
-0.13
-0.115
-0.125
-0.16
0.36
1.255
0.915
0.12
-0.32
-0.365
-0.305
-0.235
-0.12
-0.125
-0.09
-0.085
-0.095
-0.095
-0.07
-0.08
-0.075
-0.07
-0.05
-0.035
-0.02
-0.005
0.02
0.035
0.065
0.105
0.145
0.18
0.21
0.26
0.29
0.305
0.295
0.25
0.195
0.14
0.08
0.03
0.0
-0.03
-0.03
-0.03
-0.03
-0.04
-0.03
-0.025
-0.03
-0.025
-0.03
-0.035
-0.045
-0.045
-0.03
-0.035
-0.045
-0.055
-0.08
-0.075
-0.07
-0.055
-0.07
-0.08
-0.075
-0.08
-0.08
-0.08
-0.075
-0.075
-0.1
-0.09
-0.085
-0.08
-0.095
-0.09
-0.075
-0.075
-0.06
-0.03
-0.01
0.015
0.06
0.025
-0.015
-0.025
-0.055
-0.07
-0.12
-0.13
-0.14
-0.135
-0.135
-0.15
-0.1
0.51
1.315
0.845
-0.045
-0.42
-0.385
-0.31
-0.165
-0.1
-0.11
-0.085
-0.095
-0.09
-0.105
-0.085
-0.065
-0.065
-0.065
-0.04
-0.025
-0.01
-0.02
0.02
0.045
0.085
0.11
0.135
0.18
0.22
0.255
0.285
0.295
0.285
0.245
0.175
0.14
0.075
0.015
-0.01
-0.04
-0.035
-0.06
-0.045
-0.02
-0.03
-0.06
-0.055
-0.045
-0.035
-0.04
-0.045
-0.035
-0.015
-0.025
-0.055
-0.04
-0.06
-0.08
-0.07
-0.09
-0.075
-0.085
-0.085
-0.065
-0.065
-0.075
-0.095
-0.085
-0.08
-0.08
-0.085
-0.08
-0.1
-0.085
-0.075
-0.065
-0.02
-0.025
0.015
0.045
0.045
0.02
-0.005
-0.025
-0.08
-0.12
-0.125
-0.12
-0.14
-0.125
-0.12
-0.165
0.17
0.975
1.035
0.415
-0.19
-0.41
-0.355
-0.275
-0.105
-0.135
-0.12
-0.1
-0.09
-0.08
-0.075
-0.045
-0.075
-0.065
-0.025
-0.035
-0.035
0.0
0.01
0.035
0.07
0.085
0.13
0.16
0.195
0.25
0.265
0.29
0.3
0.275
0.22
0.15
0.095
0.025
-0.03
-0.02
-0.035
-0.065
-0.06
-0.04
-0.05
-0.05
-0.055
-0.04
-0.045
-0.05
-0.045
-0.055
-0.06
-0.055
-0.055
-0.07
-0.07
-0.06
-0.07
-0.075
-0.08
-0.07
-0.055
-0.065
-0.07
-0.09
-0.075
-0.085
-0.085
-0.065
-0.085
-0.1
-0.09
-0.08
-0.095
-0.09
-0.025
0.0
0.02
0.04
0.06
0.015
-0.02
-0.03
-0.095
-0.09
-0.135
-0.125
-0.14
-0.125
-0.13
-0.18
0.11
0.92
1.105
0.495
-0.155
-0.425
-0.355
-0.305
-0.115
-0.12
-0.095
-0.09
-0.105
-0.095
-0.075
-0.075
-0.07
-0.07
-0.05
-0.04
-0.03
-0.005
0.0
0.035
0.06
0.095
0.12
0.17
0.2
0.235
0.28
0.3
0.29
0.26
0.2
0.17
0.08
0.03
0.01
-0.04
-0.045
-0.05
-0.065
-0.06
-0.035
-0.055
-0.04
-0.055
-0.035
-0.045
-0.04
-0.03
-0.035
-0.045
-0.065
-0.04
-0.045
-0.055
-0.065
-0.06
-0.07
-0.07
-0.08
-0.06
-0.085
-0.09
-0.06
-0.075
-0.08
-0.08
-0.085
-0.09
-0.09
-0.095
-0.085
-0.07
-0.05
-0.025
-0.015
0.035
0.05
0.025
-0.015
-0.045
-0.075
-0.12
-0.145
-0.14
-0.14
-0.125
-0.13
-0.165
-0.055
0.605
1.26
0.75
-0.13
-0.435
-0.385
-0.305
-0.14
-0.105
-0.12
-0.11
-0.1
-0.085
-0.09
-0.08
-0.085
-0.07
-0.07
-0.05
-0.025
-0.005
-0.01
0.02
0.05
0.07
0.13
0.145
0.21
0.245
0.235
0.285
0.31
0.305
0.245
0.19
0.105
0.05
0.025
0.0
-0.025
-0.035
-0.025
-0.035
-0.045
-0.05
-0.045
-0.04
-0.02
-0.02
-0.035
-0.02
-0.03
-0.05
-0.035
-0.055
-0.045
-0.065
-0.06
-0.055
-0.06
-0.055
-0.08
-0.065
-0.07
-0.075
-0.075
-0.08
-0.085
-0.075
-0.08
-0.09
-0.075
-0.085
-0.06
-0.075
-0.015
-0.02
0.03
0.07
0.06
0.01
-0.025
-0.04
-0.07
-0.095
-0.115
-0.12
-0.14
-0.135
-0.13
-0.185
0.26
1.14
0.95
0.235
-0.265
-0.39
-0.34
-0.275
-0.095
-0.09
-0.11
-0.1
-0.09
-0.095
-0.09
-0.085
-0.06
-0.065
-0.04
-0.03
-0.015
-0.005
0.04
0.07
0.075
0.125
0.155
0.175
0.22
0.275
0.29
0.315
0.32
0.285
0.24
0.17
0.085
0.035
0.0
-0.01
0.0
-0.02
-0.08
-0.045
-0.05
-0.04
-0.015
-0.025
-0.055
-0.03
-0.03
-0.035
-0.03
-0.045
-0.035
-0.055
-0.05
-0.07
-0.055
-0.055
-0.065
-0.075
-0.09
-0.085
-0.04
-0.06
-0.07
-0.09
-0.085
-0.09
-0.095
-0.1
-0.09
-0.085
-0.085
-0.025
-0.02
0.02
0.05
0.045
0.01
-0.035
-0.045
-0.085
-0.12
-0.155
-0.14
-0.11
-0.145
-0.125
-0.17
0.23
1.105
0.995
0.305
-0.205
-0.385
-0.37
-0.29
-0.095
-0.11
-0.11
-0.09
-0.095
-0.08
-0.08
-0.07
-0.055
-0.055
-0.035
-0.02
-0.005
0.01
0.015
0.04
0.07
0.11
0.17
0.2
0.225
0.27
0.3
0.325
0.31
0.295
0.235
0.145
0.1
0.02
-0.005
-0.005
-0.01
-0.03
-0.05
-0.045
-0.045
-0.04
-0.045
-0.025
-0.035
-0.035
-0.025
-0.015
-0.04
-0.05
-0.06
-0.045
-0.05
-0.065
-0.05
-0.06
-0.06
-0.06
-0.065
-0.075
-0.095
-0.075
-0.065
-0.08
-0.1
-0.065
-0.08
-0.085
-0.085
-0.095
-0.05
-0.035
-0.015
0.04
0.05
0.04
0.005
-0.025
-0.055
-0.08
-0.125
-0.13
-0.14
-0.14
-0.13
-0.115
-0.18
0.255
1.18
1.01
0.27
-0.27
-0.4
-0.335
-0.255
-0.105
-0.12
-0.115
-0.115
-0.08
-0.1
-0.08
-0.075
-0.07
-0.065
-0.045
-0.035
-0.02
-0.005
0.02
0.03
0.055
0.09
0.12
0.195
0.235
0.24
0.295
0.305
0.31
0.255
0.2
0.14
0.075
0.04
-0.01
-0.02
-0.025
-0.045
-0.05
-0.06
-0.055
-0.05
-0.04
-0.015
-0.005
-0.035
-0.045
-0.02
-0.045
-0.035
-0.025
-0.04
-0.035
-0.06
-0.065
-0.055
-0.075
-0.055
-0.06
-0.06
-0.08
-0.085
-0.08
-0.08
-0.085
-0.115
-0.08
-0.08
-0.065
-0.08
-0.075
-0.04
0.025
0.03
0.055
0.045
0.0
-0.015
-0.035
-0.065
-0.135
-0.125
-0.13
-0.135
-0.12
-0.115
-0.175
0.155
0.915
1.08
0.535
-0.23
-0.445
-0.37
-0.285
-0.12
-0.125
-0.09
-0.09
-0.075
-0.075
-0.09
-0.07
-0.065
-0.055
-0.065
-0.04
-0.03
0.0
0.02
0.04
0.08
0.125
0.16
0.185
0.245
0.285
0.305
0.325
0.335
0.305
0.225
0.155
0.105
0.05
0.0
-0.025
-0.03
-0.07
-0.06
-0.025
-0.055
-0.04
-0.07
-0.065
-0.035
-0.005
-0.035
-0.02
-0.055
-0.05
-0.03
-0.03
-0.05
-0.06
-0.06
-0.06
-0.065
-0.07
-0.095
-0.09
-0.06
-0.085
-0.08
-0.1
-0.08
-0.095
-0.075
-0.08
-0.08
-0.08
-0.08
-0.01
-0.045
0.03
0.045
0.045
-0.02
-0.04
-0.07
-0.1
-0.125
-0.16
-0.14
-0.14
-0.15
-0.125
-0.175
0.345
1.275
0.885
0.11
-0.34
-0.395
-0.36
-0.29
-0.1
-0.075
-0.085
-0.145
-0.125
-0.105
-0.075
-0.075
-0.075
-0.08
-0.05
-0.04
-0.015
0.0
0.02
0.045
0.085
0.125
0.18
0.21
0.25
0.295
0.325
0.345
0.325
0.285
0.215
0.145
0.07
0.005
-0.03
-0.05
-0.055
-0.05
-0.07
-0.06
-0.045
-0.07
-0.055
-0.05
-0.05
-0.035
-0.035
-0.04
-0.045
-0.05
-0.065
-0.075
-0.06
-0.055
-0.065
-0.05
-0.09
-0.09
-0.07
-0.065
-0.065
-0.09
-0.09
-0.08
-0.1
-0.08
-0.08
-0.09
-0.09
-0.085
-0.045
-0.015
-0.015
0.05
0.05
0.02
-0.01
-0.05
-0.05
-0.08
-0.13
-0.125
-0.15
-0.14
-0.14
-0.105
-0.1
0.51
1.44
0.935
0.025
-0.4
-0.415
-0.31
-0.175
-0.12
-0.125
-0.105
-0.095
-0.07
-0.075
-0.08
-0.075
-0.08
-0.07
-0.05
-0.035
0.0
0.0
0.025
0.05
0.08
0.11
0.175
0.21
0.25
0.295
0.295
0.315
0.325
0.26
0.18
0.1
0.045
0.02
-0.02
-0.03
-0.05
-0.065
-0.075
-0.06
-0.04
-0.055
-0.06
-0.055
-0.06
-0.04
-0.035
-0.06
-0.045
-0.045
-0.05
-0.045
-0.06
-0.05
-0.05
-0.06
-0.07
-0.095
-0.08
-0.08
-0.085
-0.085
-0.085
-0.08
-0.085
-0.09
-0.08
-0.09
-0.095
-0.08
-0.06
-0.055
-0.025
-0.01
0.04
0.07
0.045
0.005
-0.025
-0.035
-0.06
-0.13
-0.13
-0.11
-0.13
-0.125
-0.115
-0.16
0.33
1.185
0.94
0.24
-0.29
-0.375
-0.305
-0.185
-0.08
-0.125
-0.095
-0.08
-0.065
-0.085
-0.07
-0.045
-0.065
-0.06
-0.035
-0.03
-0.025
0.0
0.03
0.05
0.085
0.12
0.18
0.19
0.23
0.28
0.305
0.35
0.33
0.285
0.23
0.165
0.095
0.035
0.0
-0.01
-0.06
-0.05
-0.045
-0.02
-0.035
-0.06
-0.02
-0.03
-0.035
-0.055
-0.035
-0.035
-0.045
-0.03
-0.045
-0.085
-0.06
-0.06
-0.075
-0.045
-0.065
-0.07
-0.07
-0.045
-0.07
-0.07
-0.085
-0.08
-0.055
-0.08
-0.1
-0.08
-0.095
-0.08
-0.05
-0.045
-0.01
0.0
0.055
0.085
0.03
-0.005
-0.025
-0.08
-0.085
-0.105
-0.14
-0.125
-0.1
-0.13
-0.14
0.02
0.78
1.225
0.6
-0.105
-0.435
-0.39
-0.32
-0.135
-0.125
-0.11
-0.095
-0.09
-0.08
-0.07
-0.095
-0.045
-0.06
-0.055
-0.01
-0.02
-0.01
0.01
0.04
0.06
0.11
0.15
0.225
0.23
0.25
0.295
0.355
0.345
0.31
0.235
0.15
0.105
0.05
0.005
-0.045
-0.035
-0.04
-0.06
-0.065
-0.04
-0.045
-0.075
-0.06
-0.025
-0.05
-0.07
-0.035
-0.015
-0.015
-0.04
-0.065
-0.06
-0.055
-0.045
-0.05
-0.07
-0.07
-0.1
-0.09
-0.075
-0.07
-0.075
-0.08
-0.09
-0.1
-0.1
-0.07
-0.085
-0.065
-0.07
-0.03
-0.02
0.035
0.06
0.02
-0.005
-0.04
-0.055
-0.115
-0.125
-0.12
-0.14
-0.115
-0.125
-0.15
-0.07
0.655
1.395
0.755
-0.11
-0.425
-0.38
-0.325
-0.165
-0.11
-0.1
-0.08
-0.09
-0.085
-0.09
-0.085
-0.065
-0.075
-0.06
-0.04
-0.045
-0.025
-0.005
0.035
0.07
0.095
0.115
0.15
0.175
0.24
0.29
0.335
0.315
0.305
0.275
0.175
0.115
0.05
0.015
-0.015
-0.015
-0.025
-0.045
-0.07
-0.045
-0.055
-0.015
-0.06
-0.055
-0.025
-0.03
-0.015
-0.045
-0.045
-0.04
-0.055
-0.05
-0.04
-0.055
-0.075
-0.075
-0.065
-0.085
-0.08
-0.09
-0.075
-0.085
-0.08
-0.065
-0.095
-0.08
-0.08
-0.095
-0.1
-0.085
-0.1
-0.08
-0.055
-0.005
-0.01
0.04
0.065
0.05
-0.015
-0.05
-0.045
-0.085
-0.13
-0.125
-0.13
-0.13
-0.13
-0.11
-0.175
0.345
1.28
0.955
0.11
-0.365
-0.445
-0.37
-0.25
-0.09
-0.11
-0.09
-0.085
-0.065
-0.09
-0.08
-0.085
-0.065
-0.045
-0.02
-0.02
-0.015
0.005
0.01
0.04
0.085
0.11
0.165
0.2
0.245
0.27
0.3
0.325
0.33
0.315
0.24
0.17
0.105
0.035
-0.01
-0.015
-0.03
-0.045
-0.045
-0.015
-0.035
-0.05
-0.055
-0.04
-0.015
-0.02
-0.03
-0.05
-0.02
-0.02
-0.045
-0.04
-0.04
-0.07
-0.06
-0.05
-0.04
-0.065
-0.075
-0.045
-0.08
-0.095
-0.065
-0.09
-0.075
-0.065
-0.095
-0.095
-0.11
-0.105
-0.07
-0.075
-0.055
-0.01
-0.015
0.015
0.06
0.05
0.02
-0.025
-0.04
-0.09
-0.115
-0.13
-0.12
-0.13
-0.115
-0.11
-0.175
0.365
1.32
0.925
0.075
-0.34
-0.435
-0.35
-0.22
-0.075
-0.1
-0.12
-0.09
-0.09
-0.095
-0.09
-0.085
-0.08
-0.075
-0.035
-0.04
-0.025
0.0
0.0
0.025
0.095
0.12
0.16
0.165
0.2
0.27
0.29
0.31
0.295
0.3
0.2
0.145
0.09
0.035
0.0
-0.005
-0.025
-0.045
-0.075
-0.05
-0.05
-0.065
-0.07
-0.045
-0.03
-0.035
-0.03
-0.05
-0.065
-0.06
-0.065
-0.045
-0.045
-0.06
-0.06
-0.095
-0.095
-0.07
-0.085
-0.075
-0.08
-0.08
-0.09
-0.09
-0.07
-0.075
-0.085
-0.105
-0.095
-0.095
-0.105
-0.07
-0.005
-0.025
0.0
0.05
0.045
0.0
-0.025
-0.045
-0.08
-0.125
-0.155
-0.14
-0.145
-0.125
-0.12
-0.165
0.315
1.275
1.005
0.19
-0.315
-0.415
-0.365
-0.265
-0.105
-0.13
-0.095
-0.1
-0.1
-0.09
-0.085
-0.065
-0.065
-0.085
-0.03
-0.01
-0.025
-0.01
0.015
0.04
0.075
0.11
0.13
0.2
0.22
0.24
0.295
0.31
0.315
0.295
0.23
0.17
0.095
0.025
0.0
-0.01
-0.03
-0.035
-0.055
-0.04
-0.03
-0.05
-0.065
-0.015
-0.035
-0.03
-0.06
-0.035
-0.03
-0.04
-0.045
-0.05
-0.04
-0.06
-0.06
-0.055
-0.06
-0.06
-0.065
-0.065
-0.08
-0.065
-0.075
-0.08
-0.085
-0.085
-0.09
-0.08
-0.1
-0.08
-0.085
-0.055
-0.035
-0.01
-0.005
0.04
0.05
0.025
0.01
-0.015
-0.05
-0.11
-0.125
-0.135
-0.155
-0.115
-0.145
-0.125
-0.125
0.51
1.39
0.835
-0.12
-0.47
-0.43
-0.35
-0.185
-0.105
-0.125
-0.1
-0.07
-0.085
-0.08
-0.085
-0.075
-0.055
-0.065
-0.04
-0.035
-0.02
0.0
0.03
0.045
0.09
0.125
0.185
0.195
0.23
0.265
0.315
0.305
0.315
0.285
0.225
0.155
0.08
0.015
-0.015
-0.015
-0.05
-0.025
-0.025
-0.05
-0.035
-0.045
-0.05
-0.045
-0.02
-0.02
-0.03
-0.015
-0.025
-0.045
-0.035
-0.04
-0.04
-0.065
-0.07
-0.04
-0.085
-0.07
-0.05
-0.07
-0.075
-0.08
-0.055
-0.08
-0.09
-0.08
-0.095
-0.065
-0.095
-0.06
-0.06
-0.025
0.0
0.055
0.075
0.06
-0.015
-0.03
-0.04
-0.08
-0.12
-0.12
-0.115
-0.12
-0.125
-0.12
-0.13
0.455
1.42
0.87
-0.035
-0.42
-0.415
-0.35
-0.21
-0.115
-0.1
-0.065
-0.095
-0.09
-0.075
-0.09
-0.075
-0.035
-0.035
-0.045
-0.01
0.01
0.005
0.02
0.08
0.105
0.115
0.16
0.21
0.245
0.3
0.32
0.335
0.325
0.28
0.24
0.14
0.09
0.07
0.03
-0.03
-0.06
-0.035
-0.03
-0.03
-0.05
-0.035
-0.05
-0.01
-0.045
-0.045
-0.03
-0.02
-0.03
-0.04
-0.03
-0.06
-0.06
-0.07
-0.065
-0.055
-0.08
-0.065
-0.07
-0.08
-0.07
-0.105
-0.075
-0.075
-0.08
-0.09
-0.105
-0.095
-0.095
-0.085
-0.025
-0.025
0.035
0.065
0.01
-0.015
-0.035
-0.06
-0.095
-0.105
-0.145
-0.155
-0.14
-0.145
-0.11
-0.165
0.415
1.375
0.88
-0.03
-0.39
-0.385
-0.365
-0.26
-0.14
-0.13
-0.125
-0.105
-0.105
-0.08
-0.09
-0.09
-0.055
-0.065
-0.05
-0.04
-0.005
0.0
0.015
0.04
0.07
0.11
0.175
0.205
0.245
0.28
0.305
0.33
0.33
0.275
0.21
0.15
0.085
0.035
-0.01
-0.035
-0.05
-0.04
-0.045
-0.03
-0.04
-0.055
-0.06
-0.03
-0.02
0.0
-0.035
-0.055
-0.045
-0.05
-0.04
-0.06
-0.04
-0.05
-0.065
-0.08
-0.06
-0.075
-0.08
-0.075
-0.075
-0.06
-0.09
-0.09
-0.105
-0.075
-0.09
-0.1
-0.1
-0.06
-0.035
0.0
0.04
0.055
0.045
0.0
-0.03
-0.04
-0.085
-0.13
-0.125
-0.125
-0.135
-0.13
-0.115
-0.155
0.205
1.11
1.11
0.305
-0.29
-0.465
-0.41
-0.3
-0.105
-0.12
-0.1
-0.1
-0.11
-0.095
-0.08
-0.09
-0.085
-0.055
-0.075
-0.065
-0.05
0.0
0.005
0.015
0.05
0.12
0.16
0.195
0.24
0.29
0.32
0.315
0.335
0.29
0.23
0.19
0.1
0.055
0.015
-0.02
-0.02
-0.035
-0.02
-0.04
-0.065
-0.04
-0.045
-0.035
-0.05
-0.03
-0.03
-0.035
-0.05
-0.02
-0.055
-0.045
-0.06
-0.065
-0.05
-0.065
-0.07
-0.095
-0.085
-0.07
-0.08
-0.085
-0.07
-0.085
-0.075
-0.08
-0.07
-0.095
-0.075
-0.09
-0.065
-0.015
-0.03
0.03
0.045
0.05
-0.01
-0.035
-0.03
-0.08
-0.13
-0.135
-0.13
-0.145
-0.15
-0.135
-0.185
0.23
1.13
1.035
0.26
-0.34
-0.495
-0.39
-0.295
-0.1
-0.11
-0.09
-0.085
-0.095
-0.09
-0.09
-0.07
-0.07
-0.085
-0.04
-0.045
-0.04
-0.01
0.015
0.06
0.07
0.105
0.14
0.215
0.225
0.265
0.325
0.32
0.33
0.29
0.24
0.16
0.09
0.045
-0.005
-0.025
-0.01
-0.035
-0.055
-0.06
-0.06
-0.07
-0.045
-0.04
-0.035
-0.025
-0.03
-0.03
-0.045
-0.04
-0.05
-0.045
-0.025
-0.07
-0.075
-0.07
-0.065
-0.08
-0.07
-0.05
-0.075
-0.085
-0.095
-0.09
-0.075
-0.07
-0.085
-0.08
-0.09
-0.09
-0.05
-0.005
-0.005
0.04
0.07
0.05
0.005
-0.01
-0.035
-0.085
-0.12
-0.13
-0.13
-0.155
-0.13
-0.12
-0.16
0.345
1.295
0.955
0.105
-0.355
-0.425
-0.375
-0.255
-0.085
-0.09
-0.105
-0.115
-0.075
-0.075
-0.075
-0.07
-0.06
-0.025
-0.04
-0.02
-0.005
0.005
0.015
0.045
0.115
0.12
0.165
0.205
0.26
0.275
0.33
0.34
0.335
0.305
0.225
0.145
0.085
0.03
0.01
-0.005
-0.045
-0.04
-0.065
-0.045
-0.06
-0.04
-0.045
-0.045
-0.035
-0.045
-0.065
-0.045
-0.03
-0.04
-0.06
-0.07
-0.07
-0.055
-0.065
-0.07
-0.075
-0.075
-0.075
-0.065
-0.085
-0.08
-0.075
-0.07
-0.075
-0.095
-0.115
-0.085
-0.08
-0.075
-0.055
-0.02
-0.015
0.05
0.07
0.02
0.02
-0.02
-0.075
-0.1
-0.14
-0.125
-0.15
-0.13
-0.13
-0.145
-0.15
0.5
1.39
0.845
-0.09
-0.445
-0.425
-0.345
-0.23
-0.115
-0.125
-0.11
-0.105
-0.1
-0.1
-0.095
-0.09
-0.065
-0.065
-0.05
-0.02
-0.015
0.0
0.025
0.04
0.075
0.11
0.165
0.195
0.245
0.28
0.325
0.335
0.32
0.275
0.215
0.135
0.085
0.035
0.0
-0.01
-0.035
-0.05
-0.035
-0.03
-0.04
-0.05
-0.04
-0.05
-0.03
-0.025
-0.02
-0.035
-0.04
-0.05
-0.065
-0.06
-0.045
-0.07
-0.07
-0.065
-0.07
-0.07
-0.065
-0.085
-0.075
-0.08
-0.075
-0.08
-0.08
-0.105
-0.1
-0.105
-0.085
-0.09
-0.06
-0.04
-0.005
0.0
0.03
0.08
0.035
-0.01
-0.03
-0.06
-0.09
-0.14
-0.13
-0.135
-0.115
-0.125
-0.115
-0.09
0.545
1.4
0.83
-0.15
-0.485
-0.445
-0.335
-0.175
-0.12
-0.13
-0.1
-0.1
-0.09
-0.095
-0.085
-0.07
-0.065
-0.05
-0.005
-0.04
-0.035
-0.025
0.01
0.055
0.075
0.12
0.18
0.22
0.255
0.28
0.325
0.34
0.34
0.275
0.19
0.125
0.08
0.025
-0.015
-0.015
-0.02
-0.04
-0.045
-0.045
-0.055
-0.055
-0.05
-0.04
-0.045
-0.045
-0.05
-0.04
-0.05
-0.055
-0.05
-0.06
-0.07
-0.075
-0.075
-0.06
-0.055
-0.075
-0.07
-0.105
-0.085
-0.09
-0.085
-0.08
-0.085
-0.09
-0.07
-0.085
-0.08
-0.09
-0.09
-0.05
0.0
-0.02
0.035
0.055
0.035
-0.005
-0.04
-0.05
-0.085
-0.15
-0.145
-0.13
-0.12
-0.15
-0.145
-0.105
0.565
1.335
0.795
-0.13
-0.485
-0.395
-0.325
-0.16
-0.105
-0.115
-0.1
-0.105
-0.085
-0.1
-0.105
-0.09
-0.07
-0.06
-0.055
-0.055
-0.015
-0.015
0.02
0.035
0.08
0.115
0.155
0.185
0.2
0.23
0.285
0.29
0.3
0.25
0.205
0.145
0.065
0.03
-0.01
-0.03
-0.025
-0.01
-0.03
-0.055
-0.045
-0.045
-0.045
-0.03
-0.025
-0.015
-0.015
-0.025
-0.015
-0.02
-0.04
-0.05
-0.06
-0.06
-0.05
-0.04
-0.05
-0.05
-0.06
-0.055
-0.05
-0.09
-0.055
-0.075
-0.075
-0.08
-0.07
-0.07
-0.09
-0.085
-0.075
-0.045
-0.005
-0.015
0.025
0.065
0.08
0.0
0.0
-0.03
-0.09
-0.125
-0.11
-0.1
-0.135
-0.11
-0.125
-0.17
0.275
1.11
0.955
0.26
-0.285
-0.415
-0.345
-0.275
-0.095
-0.115
-0.095
-0.1
-0.085
-0.1
-0.085
-0.055
-0.055
-0.055
-0.07
-0.035
-0.015
-0.005
0.0
0.03
0.08
0.095
0.13
0.19
0.205
0.24
0.305
0.29
0.29
0.295
0.235
0.135
0.095
0.06
-0.005
-0.03
-0.02
-0.02
-0.055
-0.055
-0.05
-0.05
-0.04
-0.045
-0.03
-0.025
-0.005
-0.045
-0.05
-0.04
-0.035
-0.035
-0.055
-0.055
-0.065
-0.065
-0.075
-0.065
-0.07
-0.09
-0.06
-0.09
-0.08
-0.115
-0.11
-0.07
-0.08
-0.105
-0.1
-0.12
-0.095
-0.05
-0.02
0.02
0.05
0.03
0.01
-0.025
-0.045
-0.08
-0.08
-0.105
-0.145
-0.145
-0.13
-0.125
-0.17
0.095
0.935
1.14
0.445
-0.19
-0.44
-0.415
-0.325
-0.135
-0.11
-0.135
-0.1
-0.105
-0.11
-0.095
-0.09
-0.11
-0.055
-0.05
-0.055
-0.025
-0.015
0.0
0.02
0.05
0.105
0.125
0.16
0.2
0.22
0.25
0.29
0.29
0.28
0.235
0.18
0.095
0.04
0.01
-0.02
-0.04
-0.035
-0.06
-0.05
-0.05
-0.045
-0.045
-0.03
-0.045
-0.035
-0.025
-0.035
-0.03
-0.02
-0.025
-0.055
-0.07
-0.055
-0.06
-0.09
-0.08
-0.07
-0.075
-0.08
-0.085
-0.07
-0.07
-0.085
-0.09
-0.105
-0.105
-0.095
-0.1
-0.1
-0.095
-0.04
-0.03
-0.02
0.025
0.055
0.035
0.0
-0.045
-0.075
-0.09
-0.13
-0.155
-0.15
-0.11
-0.12
-0.13
-0.135
0.465
1.385
0.885
-0.025
-0.395
-0.395
-0.345
-0.21
-0.095
-0.1
-0.105
-0.105
-0.095
-0.07
-0.075
-0.06
-0.065
-0.06
-0.055
-0.045
-0.025
-0.005
0.025
0.035
0.07
0.11
0.15
0.175
0.19
0.25
0.28
0.305
0.285
0.25
0.185
0.135
0.06
0.005
-0.005
-0.03
-0.04
-0.05
-0.065
-0.05
-0.05
-0.045
-0.07
-0.04
-0.04
-0.035
-0.02
-0.035
-0.045
-0.065
-0.045
-0.05
-0.055
-0.06
-0.055
-0.06
-0.05
-0.075
-0.095
-0.085
-0.09
-0.09
-0.075
-0.065
-0.085
-0.08
-0.08
-0.07
-0.065
-0.09
-0.08
-0.05
-0.015
-0.01
0.01
0.06
0.04
0.01
-0.005
-0.03
-0.085
-0.105
-0.135
-0.125
-0.15
-0.125
-0.11
-0.16
0.125
0.925
1.12
0.515
-0.23
-0.455
-0.38
-0.3
-0.11
-0.1
-0.105
-0.105
-0.09
-0.07
-0.09
-0.085
-0.07
-0.045
-0.05
-0.04
-0.01
0.0
0.015
0.03
0.045
0.09
0.12
0.155
0.185
0.24
0.28
0.265
0.29
0.285
0.23
0.185
0.115
0.065
0.015
-0.01
-0.025
-0.025
-0.06
-0.055
-0.05
-0.025
0.0
-0.04
-0.025
-0.025
-0.03
-0.02
-0.015
-0.025
-0.03
-0.03
-0.045
-0.055
-0.075
-0.065
-0.06
-0.06
-0.065
-0.055
-0.075
-0.07
-0.06
-0.085
-0.095
-0.075
-0.08
-0.08
-0.085
-0.085
-0.06
-0.035
-0.01
0.0
0.05
0.075
0.06
-0.02
-0.01
-0.06
-0.105
-0.11
-0.15
-0.125
-0.125
-0.135
-0.125
-0.095
0.54
1.36
0.765
-0.08
-0.43
-0.4
-0.365
-0.215
-0.105
-0.11
-0.08
-0.11
-0.095
-0.095
-0.06
-0.08
-0.05
-0.06
-0.02
-0.03
-0.025
0.02
0.03
0.05
0.065
0.12
0.165
0.21
0.21
0.25
0.275
0.315
0.315
0.255
0.215
0.11
0.07
0.005
0.01
-0.005
-0.06
-0.06
-0.045
-0.05
-0.035
-0.04
-0.035
-0.01
-0.065
-0.055
-0.065
-0.04
-0.05
-0.035
-0.08
-0.06
-0.055
-0.055
-0.055
-0.06
-0.085
-0.095
-0.08
-0.07
-0.095
-0.11
-0.09
-0.07
-0.065
-0.1
-0.12
-0.11
-0.11
-0.03
0.01
-0.04
0.01
0.06
0.045
-0.025
-0.035
-0.045
-0.085
-0.135
-0.135
-0.12
-0.135
-0.105
-0.115
-0.14
0.425
1.35
0.855
0.0
-0.355
-0.39
-0.35
-0.24
-0.095
-0.13
-0.1
-0.09
-0.095
-0.095
-0.075
-0.07
-0.075
-0.075
-0.05
-0.025
-0.02
-0.01
0.02
0.025
0.06
0.095
0.14
0.185
0.19
0.225
0.235
0.27
0.285
0.26
0.185
0.12
0.085
0.025
-0.025
-0.035
-0.04
-0.03
-0.06
-0.06
-0.05
-0.045
-0.05
-0.035
-0.035
-0.02
-0.025
-0.04
-0.045
-0.045
-0.05
-0.045
-0.055
-0.065
-0.07
-0.08
-0.08
-0.08
-0.07
-0.09
-0.075
-0.08
-0.07
-0.1
-0.09
-0.07
-0.08
-0.08
-0.1
-0.06
-0.055
-0.02
0.01
0.06
0.065
0.03
-0.015
-0.03
-0.06
-0.105
-0.13
-0.13
-0.125
-0.125
-0.155
-0.155
0.03
0.81
1.26
0.6
-0.21
-0.48
-0.425
-0.315
-0.125
-0.1
-0.12
-0.085
-0.09
-0.085
-0.1
-0.07
-0.06
-0.05
-0.045
-0.035
-0.02
0.0
0.015
0.03
0.045
0.085
0.125
0.155
0.18
0.22
0.255
0.29
0.315
0.265
0.235
0.17
0.1
0.085
-0.005
-0.01
-0.025
-0.04
-0.05
-0.055
-0.04
-0.06
-0.05
-0.05
-0.03
-0.035
-0.015
-0.01
0.0
-0.04
-0.07
-0.055
-0.065
-0.04
-0.06
-0.03
-0.04
-0.06
-0.09
-0.06
-0.065
-0.055
-0.08
-0.08
-0.08
-0.08
-0.08
-0.085
-0.085
-0.075
-0.015
0.0
-0.01
0.05
0.085
0.065
0.015
0.0
-0.035
-0.085
-0.115
-0.15
-0.125
-0.12
-0.12
-0.13
-0.175
0.385
1.295
0.885
0.06
-0.38
-0.435
-0.365
-0.24
-0.09
-0.105
-0.095
-0.12
-0.09
-0.08
-0.06
-0.075
-0.045
-0.05
-0.045
-0.025
0.0
-0.005
0.015
0.045
0.1
0.115
0.125
0.175
0.21
0.265
0.305
0.305
0.31
0.26
0.23
0.15
0.09
0.02
-0.005
-0.03
-0.04
-0.055
-0.04
-0.045
-0.055
-0.04
-0.04
-0.035
-0.05
-0.03
-0.015
-0.025
-0.06
-0.055
-0.045
-0.06
-0.055
-0.055
-0.06
-0.07
-0.075
-0.08
-0.06
-0.055
-0.055
-0.085
-0.07
-0.105
-0.085
-0.085
-0.085
-0.09
-0.065
-0.035
-0.02
0.02
0.065
0.06
0.05
0.005
-0.025
-0.065
-0.095
-0.13
-0.125
-0.145
-0.13
-0.13
-0.145
-0.035
0.67
1.34
0.715
-0.17
-0.5
-0.43
-0.335
-0.17
-0.105
-0.12
-0.11
-0.11
-0.085
-0.08
-0.07
-0.07
-0.06
-0.05
-0.015
-0.01
-0.005
-0.005
0.03
0.065
0.095
0.115
0.175
0.205
0.24
0.275
0.305
0.31
0.3
0.24
0.18
0.135
0.065
0.01
0.0
-0.015
-0.035
-0.04
-0.055
-0.05
-0.025
-0.03
-0.035
-0.04
-0.04
-0.035
-0.035
-0.045
-0.045
-0.035
-0.05
-0.07
-0.055
-0.07
-0.06
-0.08
-0.07
-0.06
-0.065
-0.075
-0.085
-0.08
-0.09
-0.08
-0.095
-0.09
-0.095
-0.1
-0.065
-0.015
-0.02
-0.025
0.045
0.05
0.035
0.0
-0.035
-0.065
-0.085
-0.145
-0.14
-0.135
-0.135
-0.14
-0.14
-0.115
0.545
1.35
0.79
-0.12
-0.465
-0.425
-0.34
-0.185
-0.12
-0.11
-0.105
-0.105
-0.07
-0.085
-0.07
-0.08
-0.075
-0.07
-0.055
-0.045
-0.03
-0.01
0.03
0.06
0.095
0.115
0.165
0.175
0.24
0.27
0.28
0.28
0.285
0.245
0.205
0.13
0.055
0.0
-0.005
-0.015
-0.045
-0.045
-0.04
-0.04
-0.03
-0.03
-0.025
-0.05
-0.04
-0.01
-0.025
-0.02
-0.025
-0.02
-0.04
-0.045
-0.025
-0.035
-0.055
-0.05
-0.06
-0.075
-0.07
-0.065
-0.05
-0.06
-0.08
-0.085
-0.085
-0.07
-0.07
-0.085
-0.08
-0.055
-0.025
0.0
0.02
0.06
0.05
0.015
0.01
-0.015
-0.07
-0.09
-0.135
-0.105
-0.105
-0.1
-0.115
-0.17
-0.01
0.71
1.275
0.675
-0.165
-0.465
-0.405
-0.35
-0.14
-0.09
-0.11
-0.095
-0.095
-0.085
-0.07
-0.045
-0.065
-0.045
-0.045
-0.04
-0.02
-0.015
0.015
0.045
0.065
0.09
0.125
0.17
0.19
0.235
0.28
0.305
0.305
0.305
0.245
0.18
0.115
0.045
0.025
-0.005
-0.03
-0.025
-0.05
-0.055
-0.03
-0.06
-0.055
-0.03
-0.025
-0.03
-0.025
-0.035
-0.04
-0.03
-0.04
-0.03
-0.065
-0.055
-0.065
-0.08
-0.065
-0.055
-0.075
-0.09
-0.075
-0.065
-0.055
-0.065
-0.085
-0.085
-0.07
-0.075
-0.08
-0.055
-0.03
0.0
0.02
0.065
0.07
0.01
-0.02
-0.05
-0.055
-0.105
-0.125
-0.13
-0.145
-0.115
-0.11
-0.175
0.13
0.965
1.095
0.405
-0.195
-0.445
-0.4
-0.32
-0.115
-0.095
-0.09
-0.085
-0.1
-0.09
-0.095
-0.06
-0.055
-0.05
-0.025
-0.03
-0.03
-0.005
0.005
0.05
0.06
0.09
0.145
0.175
0.2
0.24
0.285
0.295
0.305
0.305
0.23
0.165
0.11
0.055
0.01
-0.02
-0.045
-0.03
-0.03
-0.045
-0.05
-0.04
-0.015
-0.03
-0.03
-0.01
-0.02
-0.015
-0.04
-0.05
-0.03
-0.04
-0.055
-0.065
-0.055
-0.07
-0.07
-0.08
-0.075
-0.075
-0.09
-0.075
-0.08
-0.09
-0.085
-0.11
-0.11
-0.095
-0.085
-0.07
-0.045
-0.015
0.005
0.03
0.055
0.02
0.0
-0.035
-0.06
-0.09
-0.155
-0.13
-0.115
-0.115
-0.125
-0.17
0.04
0.865
1.25
0.575
-0.175
-0.455
-0.395
-0.31
-0.125
-0.115
-0.12
-0.1
-0.09
-0.075
-0.065
-0.065
-0.055
-0.055
-0.05
-0.02
-0.02
-0.01
0.01
0.03
0.065
0.1
0.145
0.18
0.195
0.245
0.27
0.29
0.295
0.29
0.26
0.205
0.12
0.055
0.01
-0.015
-0.025
-0.045
-0.025
-0.035
-0.035
-0.035
-0.03
-0.025
-0.035
-0.025
-0.015
-0.015
-0.035
-0.04
-0.045
-0.055
-0.075
-0.06
-0.055
-0.065
-0.06
-0.05
-0.06
-0.055
-0.08
-0.07
-0.065
-0.08
-0.08
-0.09
-0.08
-0.075
-0.08
-0.085
-0.08
-0.045
-0.005
0.0
0.05
0.085
0.045
-0.025
-0.035
-0.055
-0.065
-0.115
-0.11
-0.125
-0.13
-0.14
-0.125
-0.125
0.49
1.385
0.855
-0.065
-0.44
-0.43
-0.35
-0.205
-0.095
-0.1
-0.1
-0.07
-0.075
-0.08
-0.065
-0.065
-0.05
-0.04
-0.02
-0.045
-0.025
-0.005
0.025
0.05
0.09
0.13
0.155
0.2
0.23
0.265
0.29
0.305
0.31
0.255
0.21
0.125
0.07
0.03
0.0
-0.025
-0.05
-0.02
-0.025
-0.06
-0.025
-0.025
-0.02
-0.005
-0.04
-0.015
-0.045
-0.03
-0.03
-0.03
-0.01
-0.045
-0.045
-0.045
-0.04
-0.055
-0.055
-0.045
-0.08
-0.075
-0.065
-0.08
-0.075
-0.07
-0.065
-0.08
-0.08
-0.07
-0.075
-0.075
-0.04
0.005
0.01
0.05
0.045
0.015
-0.015
-0.01
-0.06
-0.105
-0.14
-0.125
-0.135
-0.12
-0.13
-0.135
-0.025
0.67
1.29
0.675
-0.165
-0.48
-0.42
-0.35
-0.16
-0.105
-0.115
-0.095
-0.07
-0.07
-0.095
-0.07
-0.06
-0.05
-0.05
-0.045
-0.02
0.005
0.01
0.045
0.085
0.1
0.12
0.155
0.205
0.23
0.27
0.295
0.31
0.305
0.245
0.16
0.125
0.06
0.025
0.0
-0.04
-0.03
-0.04
-0.045
-0.04
-0.05
-0.04
-0.04
-0.04
-0.025
-0.025
-0.025
-0.03
-0.02
-0.02
-0.035
-0.06
-0.05
-0.035
-0.055
-0.075
-0.075
-0.065
-0.075
-0.06
-0.065
-0.06
-0.06
-0.07
-0.08
-0.09
-0.08
-0.085
-0.055
-0.05
-0.01
0.0
0.035
0.065
0.04
0.0
-0.025
-0.03
-0.055
-0.115
-0.125
-0.13
-0.12
-0.145
-0.125
-0.155
0.395
1.36
0.9
0.05
-0.37
-0.415
-0.355
-0.235
-0.105
-0.08
-0.085
-0.095
-0.065
-0.09
-0.08
-0.065
-0.045
-0.05
-0.035
-0.04
0.0
0.005
0.035
0.075
0.075
0.1
0.135
0.19
0.235
0.25
0.285
0.31
0.295
0.26
0.21
0.135
0.07
0.045
-0.01
-0.02
-0.015
-0.025
-0.03
-0.04
-0.06
-0.055
-0.05
-0.03
-0.025
-0.035
-0.01
-0.03
-0.025
-0.035
-0.045
-0.035
-0.045
-0.08
-0.07
-0.065
-0.075
-0.07
-0.075
-0.075
-0.07
-0.055
-0.08
-0.08
-0.08
-0.09
-0.08
-0.085
-0.095
-0.085
-0.07
-0.025
-0.03
0.04
0.07
0.04
-0.01
-0.04
-0.045
-0.075
-0.13
-0.155
-0.13
-0.14
-0.15
-0.14
-0.155
0.385
1.31
0.88
0.015
-0.4
-0.44
-0.36
-0.24
-0.095
-0.115
-0.115
-0.115
-0.095
-0.085
-0.055
-0.08
-0.08
-0.075
-0.045
-0.02
-0.005
-0.005
0.01
0.04
0.065
0.105
0.15
0.175
0.215
0.245
0.28
0.325
0.31
0.265
0.205
0.155
0.095
0.03
0.0
-0.02
-0.035
-0.045
-0.035
-0.03
-0.04
-0.045
-0.025
-0.04
-0.035
-0.035
-0.02
-0.015
-0.005
-0.05
-0.045
-0.075
-0.07
-0.06
-0.075
-0.055
-0.085
-0.055
-0.07
-0.085
-0.08
-0.095
-0.095
-0.09
-0.1
-0.095
-0.1
-0.08
-0.085
-0.085
0.0
-0.01
0.005
0.07
0.045
0.015
-0.025
-0.045
-0.075
-0.12
-0.14
-0.16
-0.135
-0.11
-0.125
-0.165
0.265
1.14
0.95
0.195
-0.285
-0.43
-0.385
-0.34
-0.13
-0.12
-0.105
-0.09
-0.105
-0.09
-0.08
-0.07
-0.07
-0.045
-0.04
-0.03
-0.03
0.0
0.015
0.03
0.075
0.105
0.15
0.2
0.2
0.265
0.27
0.305
0.32
0.275
0.225
0.175
0.11
0.02
0.0
-0.01
-0.01
-0.05
-0.045
-0.05
-0.035
-0.05
-0.035
-0.03
-0.035
-0.035
-0.015
-0.03
-0.045
-0.03
-0.05
-0.045
-0.075
-0.08
-0.08
-0.08
-0.06
-0.07
-0.065
-0.06
-0.075
-0.07
-0.085
-0.115
-0.095
-0.1
-0.085
-0.09
-0.06
-0.06
-0.04
-0.005
0.015
0.085
0.035
-0.025
-0.015
-0.065
-0.055
-0.11
-0.115
-0.15
-0.135
-0.12
-0.125
-0.16
0.45
1.36
0.845
0.0
-0.39
-0.39
-0.355
-0.24
-0.115
-0.125
-0.1
-0.095
-0.095
-0.085
-0.075
-0.09
-0.09
-0.055
-0.05
-0.04
-0.01
-0.025
0.0
0.015
0.055
0.105
0.155
0.16
0.225
0.265
0.27
0.305
0.295
0.245
0.195
0.125
0.06
0.02
-0.01
-0.035
-0.04
-0.045
-0.055
-0.035
-0.06
-0.055
-0.035
-0.045
-0.065
-0.05
-0.045
-0.03
-0.04
-0.035
-0.065
-0.055
-0.05
-0.065
-0.06
-0.075
-0.065
-0.065
-0.095
-0.105
-0.11
-0.085
-0.08
-0.09
-0.075
-0.095
-0.1
-0.1
-0.075
-0.025
-0.01
0.015
0.06
0.04
-0.025
-0.045
-0.04
-0.065
-0.135
-0.135
-0.13
-0.085
-0.12
-0.13
-0.155
0.375
1.33
0.955
0.09
-0.32
-0.38
-0.34
-0.24
-0.105
-0.11
-0.105
-0.075
-0.085
-0.095
-0.08
-0.095
-0.06
-0.05
-0.045
-0.03
0.005
-0.005
0.02
0.065
0.08
0.095
0.14
0.185
0.215
0.24
0.295
0.3
0.305
0.27
0.225
0.15
0.065
0.015
0.0
0.0
-0.035
-0.045
-0.045
-0.04
-0.06
-0.05
-0.025
-0.035
-0.03
-0.035
-0.035
-0.015
-0.045
-0.04
-0.05
-0.075
-0.06
-0.07
-0.08
-0.075
-0.08
-0.085
-0.075
-0.075
-0.095
-0.085
-0.09
-0.105
-0.1
-0.09
-0.08
-0.1
-0.1
-0.1
-0.07
-0.015
-0.005
0.04
0.06
0.015
-0.03
-0.045
-0.07
-0.11
-0.14
-0.13
-0.15
-0.15
-0.16
-0.15
-0.03
0.725
1.31
0.715
-0.165
-0.465
-0.39
-0.31
-0.125
-0.115
-0.105
-0.095
-0.09
-0.08
-0.065
-0.07
-0.075
-0.055
-0.045
-0.05
-0.015
0.0
0.01
0.035
0.045
0.085
0.13
0.16
0.195
0.215
0.26
0.305
0.315
0.29
0.24
0.165
0.1
0.055
0.015
-0.005
-0.03
-0.045
-0.04
-0.04
-0.045
-0.035
-0.055
-0.015
-0.04
-0.03
-0.045
-0.04
-0.035
-0.035
-0.04
-0.055
-0.045
-0.06
-0.055
-0.065
-0.06
-0.075
-0.06
-0.08
-0.085
-0.08
-0.08
-0.075
-0.1
-0.1
-0.09
-0.095
-0.075
-0.065
-0.065
-0.03
-0.02
0.0
0.06
0.05
0.015
-0.015
-0.05
-0.09
-0.125
-0.13
-0.13
-0.12
-0.145
-0.14
-0.145
0.12
0.88
1.105
0.51
-0.215
-0.455
-0.37
-0.3
-0.11
-0.115
-0.115
-0.085
-0.09
-0.085
-0.075
-0.07
-0.065
-0.065
-0.055
-0.025
-0.04
0.0
0.0
0.045
0.065
0.095
0.14
0.175
0.23
0.24
0.27
0.29
0.31
0.275
0.235
0.2
0.105
0.055
0.03
-0.03
-0.045
-0.04
-0.04
-0.05
-0.055
-0.055
-0.065
-0.05
-0.02
-0.01
-0.025
-0.025
-0.01
-0.015
-0.025
-0.065
-0.055
-0.04
-0.02
-0.055
-0.07
-0.065
-0.09
-0.04
-0.065
-0.075
-0.065
-0.065
-0.065
-0.095
-0.095
-0.065
-0.075
-0.06
-0.03
-0.02
0.02
0.065
0.06
0.025
-0.02
-0.05
-0.075
-0.095
-0.135
-0.115
-0.14
-0.145
-0.13
-0.175
0.21
1.075
1.04
0.33
-0.21
-0.42
-0.375
-0.305
-0.105
-0.125
-0.1
-0.085
-0.125
-0.075
-0.065
-0.09
-0.07
-0.06
-0.055
-0.015
-0.025
-0.005
0.01
0.035
0.09
0.11
0.12
0.165
0.185
0.26
0.305
0.29
0.325
0.295
0.245
0.145
0.105
0.065
0.005
0.0
-0.04
-0.045
-0.04
-0.035
-0.07
-0.015
-0.02
-0.045
-0.06
-0.025
-0.03
-0.04
-0.01
-0.055
-0.04
-0.07
-0.075
-0.06
-0.05
-0.045
-0.085
-0.09
-0.08
-0.08
-0.1
-0.105
-0.08
-0.095
-0.08
-0.095
-0.105
-0.095
-0.095
-0.075
0.0
-0.02
0.035
0.045
0.01
-0.01
-0.03
-0.035
-0.09
-0.14
-0.135
-0.13
-0.14
-0.125
-0.125
-0.085
0.625
1.41
0.755
-0.115
-0.42
-0.36
-0.285
-0.215
-0.1
-0.09
-0.085
-0.1
-0.07
-0.09
-0.09
-0.065
-0.045
-0.04
-0.025
-0.03
-0.025
0.005
0.005
0.04
0.09
0.11
0.15
0.19
0.22
0.235
0.285
0.305
0.29
0.24
0.17
0.125
0.08
0.025
-0.005
-0.03
-0.03
-0.03
-0.035
-0.025
-0.035
-0.035
-0.045
-0.035
-0.03
-0.05
-0.04
-0.03
-0.045
-0.04
-0.045
-0.055
-0.065
-0.08
-0.06
-0.095
-0.09
-0.105
-0.085
-0.07
-0.095
-0.09
-0.09
-0.085
-0.095
-0.09
-0.085
-0.095
-0.085
-0.07
-0.03
0.0
0.025
0.06
0.04
-0.005
-0.04
-0.065
-0.08
-0.125
-0.13
-0.14
-0.13
-0.13
-0.12
-0.165
0.42
1.37
0.89
-0.035
-0.42
-0.43
-0.35
-0.205
-0.09
-0.11
-0.105
-0.11
-0.1
-0.105
-0.085
-0.08
-0.07
-0.05
-0.045
-0.04
-0.03
0.005
0.015
0.02
0.07
0.105
0.135
0.165
0.225
0.235
0.285
0.29
0.3
0.27
0.2
0.135
0.06
0.015
-0.01
-0.035
-0.03
-0.045
-0.04
-0.03
-0.06
-0.055
-0.055
-0.035
-0.04
-0.045
-0.025
-0.025
-0.03
-0.035
-0.055
-0.065
-0.09
-0.08
-0.075
-0.065
-0.07
-0.07
-0.07
-0.08
-0.08
-0.08
-0.07
-0.09
-0.09
-0.09
-0.1
-0.085
-0.065
-0.04
-0.015
0.005
0.045
0.08
0.055
-0.015
-0.03
-0.055
-0.1
-0.125
-0.13
-0.145
-0.12
-0.145
-0.125
-0.07
0.615
1.315
0.77
-0.155
-0.475
-0.41
-0.33
-0.175
-0.115
-0.1
-0.1
-0.075
-0.09
-0.1
-0.075
-0.055
-0.06
-0.06
-0.03
-0.035
-0.01
0.005
0.035
0.06
0.095
0.105
0.165
0.2
0.22
0.26
0.31
0.335
0.32
0.265
0.175
0.115
0.055
0.02
-0.015
-0.04
-0.04
-0.03
-0.055
-0.055
-0.045
-0.04
-0.04
-0.04
-0.03
-0.03
-0.05
-0.025
-0.035
-0.04
-0.055
-0.045
-0.075
-0.06
-0.055
-0.07
-0.065
-0.075
-0.065
-0.095
-0.085
-0.075
-0.085
-0.065
-0.09
-0.11
-0.085
-0.07
-0.02
-0.015
0.015
0.07
0.055
0.005
-0.01
-0.04
-0.085
-0.1
-0.13
-0.135
-0.135
-0.125
-0.12
-0.185
0.245
1.09
0.985
0.265
-0.27
-0.445
-0.39
-0.295
-0.115
-0.115
-0.1
-0.12
-0.085
-0.075
-0.085
-0.065
-0.06
-0.06
-0.06
-0.04
-0.04
0.015
0.015
0.05
0.07
0.105
0.115
0.165
0.215
0.24
0.285
0.305
0.315
0.28
0.225
0.16
0.08
0.03
0.02
-0.01
-0.025
-0.035
-0.05
-0.06
-0.035
-0.02
-0.04
-0.04
-0.03
-0.03
-0.04
-0.05
-0.045
-0.055
-0.06
-0.045
-0.06
-0.07
-0.07
-0.06
-0.065
-0.07
-0.07
-0.09
-0.095
-0.085
-0.08
-0.085
-0.08
-0.08
-0.105
-0.095
-0.05
-0.03
-0.02
0.015
0.065
0.045
0.0
-0.01
-0.035
-0.07
-0.105
-0.12
-0.125
-0.135
-0.13
-0.125
-0.17
0.14
0.975
1.075
0.39
-0.255
-0.455
-0.39
-0.32
-0.12
-0.115
-0.105
-0.09
-0.12
-0.11
-0.075
-0.085
-0.085
-0.06
-0.055
-0.045
-0.035
-0.015
0.0
0.03
0.07
0.095
0.13
0.175
0.215
0.245
0.275
0.285
0.3
0.275
0.215
0.16
0.105
0.045
0.005
0.005
-0.03
-0.04
-0.06
-0.06
-0.065
-0.035
-0.035
-0.06
-0.03
-0.04
-0.035
-0.03
-0.03
-0.035
-0.04
-0.065
-0.07
-0.07
-0.07
-0.095
-0.08
-0.08
-0.1
-0.08
-0.085
-0.1
-0.095
-0.085
-0.09
-0.085
-0.085
-0.09
-0.11
-0.09
-0.08
-0.035
-0.025
0.03
0.065
0.025
-0.01
-0.035
-0.07
-0.085
-0.13
-0.14
-0.145
-0.13
-0.125
-0.125
-0.175
0.395
1.3
0.82
0.0
-0.415
-0.44
-0.35
-0.225
-0.095
-0.105
-0.095
-0.1
-0.105
-0.095
-0.08
-0.06
-0.07
-0.055
-0.025
-0.025
-0.005
0.0
0.035
0.045
0.095
0.12
0.155
0.2
0.225
0.27
0.3
0.315
0.31
0.29
0.215
0.165
0.095
0.045
0.0
-0.03
-0.02
-0.025
-0.055
-0.045
-0.05
-0.055
-0.045
-0.025
-0.005
-0.03
-0.025
-0.045
-0.03
-0.065
-0.055
-0.045
-0.04
-0.055
-0.06
-0.065
-0.075
-0.065
-0.06
-0.06
-0.07
-0.08
-0.085
-0.09
-0.07
-0.08
-0.115
-0.07
-0.085
-0.065
-0.015
-0.02
0.035
0.085
0.05
0.0
-0.005
-0.02
-0.085
-0.105
-0.135
-0.14
-0.12
-0.14
-0.11
-0.175
0.255
1.18
0.94
0.195
-0.3
-0.43
-0.365
-0.3
-0.1
-0.115
-0.095
-0.105
-0.105
-0.105
-0.085
-0.075
-0.055
-0.055
-0.06
-0.03
-0.035
-0.015
0.0
0.025
0.08
0.12
0.125
0.195
0.235
0.255
0.28
0.305
0.3
0.28
0.22
0.15
0.09
0.03
0.0
-0.03
-0.04
-0.04
-0.045
-0.055
-0.055
-0.05
-0.045
-0.05
-0.045
-0.03
-0.015
-0.025
-0.04
-0.04
-0.06
-0.075
-0.07
-0.065
-0.06
-0.075
-0.065
-0.065
-0.09
-0.085
-0.105
-0.085
-0.095
-0.095
-0.1
-0.105
-0.115
-0.095
-0.1
-0.1
-0.06
-0.03
-0.025
0.025
0.055
0.03
-0.02
-0.075
-0.075
-0.095
-0.16
-0.145
-0.155
-0.145
-0.155
-0.145
-0.145
0.485
1.35
0.815
-0.095
-0.465
-0.44
-0.365
-0.215
-0.115
-0.115
-0.105
-0.12
-0.1
-0.08
-0.1
-0.085
-0.06
-0.06
-0.05
-0.05
-0.045
-0.015
0.005
0.03
0.08
0.1
0.165
0.185
0.21
0.245
0.285
0.29
0.285
0.25
0.21
0.13
0.07
0.025
0.0
-0.02
-0.04
-0.015
-0.035
-0.045
-0.03
-0.015
-0.01
-0.035
-0.03
-0.035
-0.035
-0.03
-0.03
-0.03
-0.04
-0.06
-0.055
-0.05
-0.07
-0.065
-0.055
-0.08
-0.07
-0.055
-0.085
-0.095
-0.08
-0.07
-0.075
-0.075
-0.09
-0.08
-0.06
-0.06
-0.04
-0.025
0.0
0.06
0.08
0.025
-0.015
-0.05
-0.075
-0.095
-0.14
-0.125
-0.12
-0.115
-0.1
-0.16
0.055
0.795
1.135
0.575
-0.19
-0.465
-0.4
-0.31
-0.14
-0.1
-0.105
-0.065
-0.075
-0.085
-0.095
-0.08
-0.07
-0.06
-0.04
-0.035
-0.015
-0.005
-0.005
0.03
0.08
0.095
0.14
0.16
0.225
0.23
0.27
0.3
0.31
0.295
0.235
0.18
0.1
0.055
0.005
-0.015
-0.05
-0.045
-0.06
-0.06
-0.045
-0.06
-0.045
-0.035
-0.04
-0.03
-0.03
-0.035
-0.04
-0.035
-0.04
-0.055
-0.06
-0.07
-0.065
-0.075
-0.08
-0.075
-0.075
-0.07
-0.08
-0.085
-0.095
-0.075
-0.1
-0.085
-0.085
-0.1
-0.1
-0.09
-0.04
-0.015
0.0
0.03
0.04
0.015
0.0
-0.03
-0.07
-0.11
-0.145
-0.135
-0.14
-0.14
-0.13
-0.155
-0.005
0.695
1.27
0.66
-0.155
-0.46
-0.415
-0.31
-0.145
-0.115
-0.11
-0.09
-0.1
-0.09
-0.07
-0.07
-0.07
-0.045
-0.04
-0.04
-0.025
0.0
0.005
0.025
0.05
0.095
0.12
0.155
0.205
0.23
0.26
0.29
0.3
0.28
0.23
0.195
0.12
0.05
0.01
-0.01
-0.035
-0.045
-0.065
-0.05
-0.05
-0.04
-0.045
-0.035
-0.035
-0.035
-0.035
-0.035
-0.035
-0.045
-0.04
-0.05
-0.05
-0.06
-0.06
-0.065
-0.08
-0.085
-0.07
-0.065
-0.075
-0.08
-0.085
-0.105
-0.075
-0.09
-0.085
-0.095
-0.09
-0.1
-0.07
-0.065
-0.025
-0.025
0.03
0.06
0.025
0.005
-0.04
-0.055
-0.1
-0.14
-0.13
-0.13
-0.13
-0.14
-0.15
-0.145
0.46
1.335
0.82
-0.075
-0.435
-0.42
-0.34
-0.21
-0.1
-0.115
-0.115
-0.1
-0.08
-0.095
-0.08
-0.075
-0.055
-0.045
-0.05
-0.035
-0.015
-0.01
0.015
0.06
0.075
0.115
0.14
0.175
0.225
0.255
0.285
0.285
0.3
0.26
0.215
0.145
0.07
0.01
-0.005
-0.035
-0.04
-0.045
-0.055
-0.06
-0.055
-0.04
-0.03
-0.025
-0.015
-0.01
-0.005
-0.04
-0.045
-0.04
-0.055
-0.045
-0.05
-0.075
-0.06
-0.065
-0.07
-0.06
-0.08
-0.08
-0.075
-0.07
-0.085
-0.065
-0.095
-0.085
-0.085
-0.085
-0.07
-0.07
-0.035
0.0
-0.015
0.035
0.085
0.04
0.005
-0.015
-0.06
-0.055
-0.115
-0.125
-0.11
-0.11
-0.12
-0.125
-0.09
0.5
1.33
0.815
-0.05
-0.39
-0.385
-0.31
-0.19
-0.1
-0.12
-0.085
-0.08
-0.085
-0.07
-0.065
-0.06
-0.04
-0.05
-0.025
-0.015
-0.025
0.005
0.03
0.06
0.09
0.12
0.165
0.21
0.22
0.265
0.295
0.31
0.31
0.255
0.215
0.135
0.08
0.015
-0.015
-0.02
-0.03
-0.04
-0.04
-0.05
-0.06
-0.03
-0.035
-0.035
-0.03
-0.02
-0.035
-0.04
-0.04
-0.05
-0.035
-0.045
-0.055
-0.05
-0.055
-0.07
-0.065
-0.075
-0.085
-0.09
-0.075
-0.08
-0.095
-0.08
-0.08
-0.095
-0.095
-0.09
-0.105
-0.07
-0.04
-0.01
0.0
0.06
0.075
0.015
-0.005
-0.03
-0.075
-0.115
-0.14
-0.115
-0.13
-0.12
-0.13
-0.155
0.035
0.775
1.19
0.62
-0.165
-0.45
-0.39
-0.325
-0.145
-0.11
-0.105
-0.095
-0.08
-0.09
-0.07
-0.075
-0.08
-0.05
-0.045
-0.04
-0.02
0.005
0.01
0.045
0.07
0.085
0.12
0.17
0.205
0.235
0.27
0.29
0.295
0.3
0.24
0.19
0.12
0.045
0.0
-0.02
-0.035
-0.05
-0.055
-0.06
-0.05
-0.045
-0.04
-0.045
-0.035
-0.04
-0.05
-0.05
-0.035
-0.045
-0.055
-0.065
-0.07
-0.065
-0.065
-0.055
-0.085
-0.08
-0.09
-0.1
-0.075
-0.085
-0.08
-0.1
-0.085
-0.09
-0.095
-0.085
-0.08
-0.09
-0.08
-0.07
-0.015
-0.025
0.035
0.075
0.045
0.01
-0.02
-0.04
-0.09
-0.12
-0.13
-0.135
-0.125
-0.115
-0.13
-0.17
0.33
1.235
0.895
0.14
-0.345
-0.415
-0.345
-0.24
-0.08
-0.1
-0.09
-0.09
-0.095
-0.09
-0.055
-0.06
-0.07
-0.05
-0.03
-0.01
-0.005
0.0
0.04
0.05
0.09
0.115
0.15
0.19
0.23
0.25
0.295
0.295
0.31
0.265
0.22
0.145
0.095
0.05
-0.015
-0.025
-0.02
-0.045
-0.06
-0.04
-0.035
-0.04
-0.04
-0.035
-0.035
-0.01
-0.025
-0.025
-0.03
-0.035
-0.04
-0.065
-0.06
-0.06
-0.065
-0.055
-0.065
-0.08
-0.07
-0.07
-0.075
-0.08
-0.085
-0.08
-0.075
-0.07
-0.08
-0.085
-0.095
-0.065
-0.055
-0.02
-0.015
0.025
0.06
0.06
0.01
-0.02
-0.03
-0.08
-0.135
-0.145
-0.14
-0.12
-0.115
-0.11
-0.17
0.225
1.095
0.97
0.285
-0.265
-0.42
-0.375
-0.28
-0.12
-0.11
-0.11
-0.105
-0.08
-0.07
-0.085
-0.095
-0.06
-0.06
-0.03
-0.02
-0.02
-0.01
0.0
0.025
0.06
0.105
0.15
0.185
0.225
0.26
0.295
0.305
0.33
0.295
0.215
0.14
0.095
0.035
0.005
-0.02
-0.04
-0.04
-0.065
-0.06
-0.045
-0.03
-0.045
-0.025
-0.03
-0.025
-0.02
-0.04
-0.035
-0.04
-0.055
-0.07
-0.07
-0.07
-0.065
-0.07
-0.075
-0.05
-0.065
-0.075
-0.08
-0.08
-0.085
-0.095
-0.085
-0.075
-0.09
-0.085
-0.085
-0.085
-0.07
-0.025
-0.02
0.02
0.06
0.045
0.02
-0.025
-0.035
-0.08
-0.12
-0.14
-0.14
-0.125
-0.125
-0.125
-0.185
0.18
1.005
1.035
0.38
-0.245
-0.43
-0.38
-0.3
-0.115
-0.11
-0.125
-0.105
-0.105
-0.09
-0.085
-0.075
-0.075
-0.055
-0.04
-0.025
-0.01
-0.025
0.02
0.045
0.065
0.105
0.115
0.18
0.22
0.24
0.28
0.295
0.31
0.28
0.235
0.155
0.1
0.045
0.0
-0.02
-0.04
-0.05
-0.055
-0.05
-0.055
-0.05
-0.03
-0.035
-0.04
-0.03
-0.025
-0.03
-0.035
-0.055
-0.055
-0.05
-0.07
-0.05
-0.06
-0.065
-0.06
-0.07
-0.07
-0.08
-0.09
-0.08
-0.06
-0.085
-0.08
-0.085
-0.075
-0.075
-0.08
-0.095
-0.09
-0.06
-0.02
-0.02
0.025
0.065
0.055
0.02
-0.03
-0.035
-0.095
-0.11
-0.13
-0.13
-0.115
-0.135
-0.13
-0.16
0.215
1.04
0.985
0.395
-0.245
-0.44
-0.345
-0.28
-0.105
-0.115
-0.09
-0.1
-0.075
-0.08
-0.075
-0.06
-0.06
-0.045
-0.045
-0.03
-0.015
0.0
0.005
0.04
0.065
0.11
0.15
0.195
0.225
0.255
0.27
0.32
0.305
0.28
0.235
0.165
0.115
0.06
0.035
-0.015
-0.035
-0.02
-0.05
-0.025
-0.035
-0.04
-0.025
-0.01
-0.005
-0.025
-0.035
-0.025
-0.015
-0.035
-0.03
-0.07
-0.035
-0.03
-0.04
-0.04
-0.075
-0.075
-0.055
-0.075
-0.05
-0.055
-0.075
-0.065
-0.08
-0.085
-0.07
-0.07
-0.075
-0.085
-0.07
-0.045
-0.02
0.015
0.055
0.06
0.03
0.0
-0.015
-0.075
-0.095
-0.125
-0.135
-0.145
-0.11
-0.105
-0.14
-0.02
0.635
1.265
0.71
-0.115
-0.435
-0.395
-0.35
-0.175
-0.09
-0.125
-0.105
-0.1
-0.095
-0.08
-0.09
-0.085
-0.07
-0.055
-0.035
-0.025
0.0
-0.005
0.01
0.03
0.075
0.12
0.17
0.2
0.245
0.275
0.295
0.32
0.285
0.26
0.18
0.11
0.065
0.02
-0.005
-0.04
-0.05
-0.05
-0.05
-0.05
-0.045
-0.035
-0.035
-0.025
-0.03
-0.03
-0.05
-0.04
-0.025
-0.045
-0.05
-0.06
-0.075
-0.06
-0.065
-0.06
-0.07
-0.07
-0.08
-0.085
-0.075
-0.085
-0.08
-0.075
-0.07
-0.07
-0.08
-0.105
-0.1
-0.08
-0.07
-0.025
-0.025
0.025
0.06
0.035
-0.005
-0.025
-0.04
-0.09
-0.13
-0.135
-0.13
-0.13
-0.14
-0.125
-0.17
0.39
1.325
0.89
0.025
-0.375
-0.41
-0.355
-0.255
-0.11
-0.11
-0.11
-0.125
-0.1
-0.11
-0.075
-0.09
-0.075
-0.065
-0.05
-0.035
-0.015
-0.015
0.01
0.045
0.07
0.115
0.155
0.18
0.22
0.265
0.285
0.31
0.31
0.265
0.21
0.15
0.085
0.04
0.0
-0.015
-0.045
-0.06
-0.06
-0.05
-0.025
-0.015
-0.03
-0.035
-0.02
-0.025
-0.02
-0.04
-0.02
-0.03
-0.035
-0.04
-0.06
-0.055
-0.04
-0.075
-0.05
-0.055
-0.07
-0.07
-0.065
-0.05
-0.06
-0.075
-0.08
-0.105
-0.08
-0.075
-0.075
-0.07
-0.08
-0.055
0.0
0.005
0.035
0.095
0.035
0.0
-0.015
-0.08
-0.095
-0.12
-0.115
-0.12
-0.135
-0.12
-0.135
-0.065
0.575
1.29
0.79
-0.085
-0.44
-0.385
-0.305
-0.175
-0.105
-0.115
-0.105
-0.08
-0.09
-0.09
-0.08
-0.085
-0.06
-0.045
-0.035
-0.025
-0.005
0.0
0.03
0.05
0.115
0.125
0.165
0.21
0.24
0.295
0.335
0.345
0.315
0.27
0.21
0.13
0.075
0.03
0.0
-0.02
-0.045
-0.035
-0.03
-0.05
-0.035
-0.045
-0.04
-0.025
-0.03
-0.03
-0.02
-0.025
-0.03
-0.04
-0.05
-0.035
-0.055
-0.065
-0.05
-0.06
-0.065
-0.075
-0.06
-0.08
-0.095
-0.085
-0.095
-0.08
-0.105
-0.11
-0.105
-0.08
-0.075
-0.095
-0.04
-0.015
0.02
0.065
0.03
-0.03
-0.035
-0.07
-0.09
-0.14
-0.14
-0.155
-0.145
-0.135
-0.145
-0.185
0.3
1.26
0.94
0.12
-0.32
-0.405
-0.395
-0.31
-0.115
-0.135
-0.13
-0.13
-0.13
-0.12
-0.1
-0.09
-0.08
-0.075
-0.065
-0.05
-0.035
-0.015
0.01
0.02
0.085
0.11
0.16
0.215
0.25
0.27
0.33
0.33
0.325
0.3
0.215
0.15
0.08
0.03
0.02
-0.01
-0.035
-0.05
-0.06
-0.05
-0.035
-0.01
-0.04
-0.04
-0.035
-0.03
-0.025
-0.03
-0.025
-0.035
-0.04
-0.055
-0.05
-0.065
-0.07
-0.065
-0.07
-0.06
-0.065
-0.07
-0.06
-0.07
-0.07
-0.08
-0.07
-0.085
-0.085
-0.08
-0.065
-0.08
-0.065
-0.05
-0.01
0.025
0.04
0.065
0.02
0.0
-0.03
-0.05
-0.095
-0.125
-0.13
-0.135
-0.125
-0.15
-0.13
-0.065
0.59
1.335
0.805
-0.1
-0.445
-0.4
-0.34
-0.195
-0.115
-0.11
-0.12
-0.12
-0.09
-0.095
-0.08
-0.085
-0.065
-0.075
-0.055
-0.04
-0.02
0.005
0.015
0.055
0.1
0.14
0.195
0.22
0.26
0.28
0.325
0.32
0.29
0.27
0.195
0.135
0.07
0.015
-0.01
-0.025
-0.03
-0.035
-0.04
-0.045
-0.03
-0.04
-0.035
-0.02
-0.035
0.0
-0.025
-0.02
-0.01
-0.035
-0.02
-0.02
-0.045
-0.06
-0.045
-0.05
-0.07
-0.07
-0.055
-0.05
-0.05
-0.065
-0.07
-0.075
-0.085
-0.065
-0.07
-0.065
-0.06
-0.08
-0.095
-0.07
-0.02
-0.03
0.0
0.05
0.045
0.03
-0.03
-0.06
-0.085
-0.1
-0.145
-0.155
-0.115
-0.13
-0.115
-0.185
0.135
0.94
1.12
0.475
-0.19
-0.43
-0.375
-0.33
-0.115
-0.1
-0.15
-0.1
-0.075
-0.1
-0.075
-0.085
-0.085
-0.04
-0.04
-0.02
-0.025
-0.015
0.005
0.05
0.08
0.11
0.18
0.22
0.245
0.28
0.33
0.39
0.38
0.305
0.245
0.2
0.105
0.075
0.03
-0.03
-0.015
-0.03
-0.05
-0.04
-0.005
-0.03
-0.065
-0.06
-0.025
-0.025
-0.04
0.0
-0.04
0.0
-0.06
-0.03
-0.035
-0.05
-0.085
-0.045
-0.04
-0.055
-0.07
-0.08
-0.065
-0.07
-0.08
-0.11
-0.07
-0.085
-0.085
-0.075
-0.065
-0.08
-0.065
-0.09
-0.025
-0.03
0.04
0.05
0.025
-0.025
-0.02
-0.07
-0.095
-0.135
-0.13
-0.13
-0.14
-0.15
-0.15
-0.145
0.48
1.49
0.84
-0.07
-0.38
-0.405
-0.35
-0.27
-0.12
-0.12
-0.12
-0.09
-0.1
-0.11
-0.095
-0.095
-0.05
-0.055
-0.03
-0.045
0.0
0.035
0.03
0.06
0.09
0.115
0.2
0.23
0.275
0.305
0.325
0.36
0.34
0.28
0.205
0.15
0.065
0.025
0.0
-0.02
-0.04
-0.035
-0.07
-0.065
-0.065
-0.045
-0.05
-0.055
-0.06
-0.035
-0.04
-0.05
-0.03
-0.06
-0.045
-0.055
-0.04
-0.075
-0.065
-0.09
-0.095
-0.07
-0.06
-0.11
-0.08
-0.095
-0.095
-0.075
-0.09
-0.105
-0.11
-0.105
-0.12
-0.095
-0.1
-0.065
-0.03
-0.02
0.025
0.055
0.02
-0.025
-0.045
-0.045
-0.095
-0.13
-0.13
-0.155
-0.125
-0.15
-0.14
-0.075
0.605
1.44
0.855
-0.055
-0.41
-0.38
-0.33
-0.18
-0.105
-0.105
-0.1
-0.1
-0.095
-0.11
-0.09
-0.105
-0.06
-0.07
-0.04
-0.035
-0.025
-0.01
0.03
0.07
0.08
0.125
0.175
0.215
0.25
0.305
0.325
0.32
0.325
0.295
0.235
0.145
0.065
0.045
0.0
-0.03
-0.035
-0.02
-0.04
-0.04
-0.04
-0.04
-0.035
-0.035
-0.035
-0.025
-0.025
-0.035
-0.025
-0.035
-0.055
-0.035
-0.045
-0.045
-0.06
-0.07
-0.065
-0.055
-0.055
-0.065
-0.055
-0.075
-0.07
-0.09
-0.085
-0.085
-0.085
-0.095
-0.09
-0.09
-0.07
-0.085
-0.08
-0.07
-0.015
0.005
0.03
0.045
0.025
-0.015
-0.04
-0.04
-0.065
-0.12
-0.145
-0.135
-0.13
-0.135
-0.14
-0.18
0.255
1.18
1.04
0.32
-0.29
-0.43
-0.355
-0.245
-0.09
-0.11
-0.11
-0.115
-0.08
-0.095
-0.075
-0.085
-0.085
-0.07
-0.05
-0.04
-0.015
-0.005
0.015
0.045
0.065
0.115
0.15
0.21
0.235
0.29
0.32
0.315
0.335
0.32
0.255
0.17
0.1
0.06
0.01
-0.005
-0.02
-0.04
-0.025
-0.055
-0.035
-0.05
-0.065
-0.03
-0.03
-0.04
-0.02
-0.05
-0.04
-0.03
-0.025
-0.03
-0.055
-0.055
-0.075
-0.06
-0.045
-0.07
-0.065
-0.075
-0.075
-0.08
-0.085
-0.05
-0.095
-0.09
-0.1
-0.07
-0.08
-0.11
-0.085
-0.08
-0.105
-0.075
-0.045
-0.01
-0.01
0.035
0.065
0.015
-0.02
-0.04
-0.045
-0.09
-0.145
-0.11
-0.13
-0.12
-0.125
-0.145
-0.045
0.665
1.41
0.83
-0.12
-0.425
-0.4
-0.335
-0.16
-0.12
-0.11
-0.095
-0.08
-0.09
-0.105
-0.09
-0.07
-0.035
-0.05
-0.065
-0.04
-0.02
0.045
0.04
0.03
0.12
0.14
0.175
0.22
0.265
0.29
0.355
0.36
0.34
0.265
0.195
0.145
0.065
0.01
-0.005
-0.04
-0.025
-0.03
-0.05
-0.055
-0.055
-0.055
-0.045
-0.055
-0.07
-0.015
-0.025
-0.055
-0.05
-0.03
-0.035
-0.04
-0.085
-0.06
-0.055
-0.09
-0.085
-0.065
-0.08
-0.105
-0.085
-0.1
-0.11
-0.095
-0.095
-0.08
-0.095
-0.075
-0.105
-0.115
-0.11
-0.11
-0.08
-0.02
-0.025
0.035
0.05
0.02
-0.01
-0.06
-0.075
-0.125
-0.14
-0.145
-0.135
-0.135
-0.145
-0.15
-0.065
0.65
1.42
0.795
-0.11
-0.42
-0.395
-0.315
-0.195
-0.125
-0.115
-0.13
-0.105
-0.1
-0.105
-0.105
-0.09
-0.07
-0.055
-0.04
-0.04
-0.025
-0.02
0.015
0.055
0.075
0.095
0.16
0.205
0.24
0.275
0.33
0.32
0.31
0.27
0.225
0.125
0.04
0.03
-0.01
-0.015
-0.04
-0.065
-0.055
-0.035
-0.05
-0.06
-0.03
-0.025
-0.015
-0.045
-0.02
-0.04
-0.05
-0.005
-0.035
-0.03
-0.03
-0.055
-0.07
-0.045
-0.065
-0.065
-0.07
-0.085
-0.065
-0.07
-0.08
-0.095
-0.105
-0.085
-0.1
-0.085
-0.09
-0.105
-0.075
-0.08
-0.065
-0.045
-0.025
0.0
0.03
0.055
0.005
-0.03
-0.045
-0.09
-0.095
-0.12
-0.125
-0.15
-0.12
-0.135
-0.19
0.005
0.745
1.32
0.715
-0.21
-0.47
-0.43
-0.32
-0.135
-0.125
-0.1
-0.095
-0.1
-0.115
-0.085
-0.08
-0.075
-0.06
-0.07
-0.05
-0.045
-0.025
0.0
0.035
0.055
0.1
0.135
0.155
0.19
0.225
0.265
0.31
0.31
0.32
0.27
0.19
0.12
0.075
0.015
0.015
-0.03
-0.03
-0.05
-0.045
-0.065
-0.065
-0.025
-0.04
-0.045
-0.045
-0.04
-0.025
-0.02
-0.025
-0.055
-0.055
-0.06
-0.075
-0.065
-0.065
-0.05
-0.065
-0.085
-0.065
-0.075
-0.07
-0.04
-0.095
-0.1
-0.115
-0.1
-0.07
-0.085
-0.09
-0.095
-0.08
-0.02
-0.02
0.04
0.075
0.045
-0.02
-0.06
-0.065
-0.105
-0.15
-0.13
-0.16
-0.125
-0.145
-0.14
-0.16
0.47
1.4
0.895
-0.005
-0.41
-0.42
-0.37
-0.225
-0.1
-0.125
-0.12
-0.095
-0.1
-0.08
-0.07
-0.1
-0.085
-0.055
-0.06
-0.04
-0.015
-0.025
0.01
0.035
0.06
0.12
0.17
0.21
0.245
0.28
0.315
0.33
0.33
0.31
0.215
0.135
0.07
0.02
0.0
-0.035
-0.045
-0.03
-0.025
-0.06
-0.05
-0.065
-0.05
-0.055
-0.055
-0.025
-0.065
-0.035
-0.04
-0.04
-0.055
-0.06
-0.075
-0.07
-0.07
-0.085
-0.085
-0.085
-0.09
-0.075
-0.085
-0.085
-0.095
-0.08
-0.08
-0.095
-0.095
-0.09
-0.075
-0.05
-0.015
0.0
0.035
0.025
0.0
-0.03
-0.035
-0.07
-0.105
-0.12
-0.115
-0.125
-0.135
-0.15
-0.185
0.19
1.1
1.12
0.385
-0.225
-0.415
-0.38
-0.295
-0.1
-0.12
-0.08
-0.095
-0.1
-0.105
-0.08
-0.065
-0.06
-0.05
-0.05
-0.04
-0.015
0.01
0.015
0.04
0.06
0.11
0.13
0.18
0.21
0.245
0.295
0.31
0.325
0.31
0.245
0.165
0.1
0.06
0.03
-0.035
-0.03
-0.045
-0.055
-0.045
-0.035
-0.045
-0.045
-0.04
-0.045
-0.04
-0.05
-0.02
-0.03
-0.05
-0.05
-0.07
-0.055
-0.055
-0.09
-0.07
-0.07
-0.065
-0.05
-0.09
-0.1
-0.075
-0.08
-0.095
-0.1
-0.095
-0.08
-0.105
-0.085
-0.09
-0.07
-0.025
0.005
0.02
0.05
0.055
0.02
-0.02
-0.055
-0.075
-0.115
-0.14
-0.145
-0.14
-0.12
-0.13
-0.18
0.07
0.86
1.225
0.59
-0.225
-0.47
-0.4
-0.305
-0.115
-0.11
-0.085
-0.11
-0.105
-0.08
-0.08
-0.08
-0.075
-0.075
-0.065
-0.035
-0.04
-0.015
0.0
0.02
0.045
0.085
0.13
0.18
0.225
0.25
0.275
0.295
0.32
0.29
0.25
0.19
0.115
0.11
0.045
-0.02
-0.045
-0.04
-0.02
-0.045
-0.055
-0.035
-0.05
-0.03
-0.07
-0.025
-0.035
-0.005
-0.025
-0.045
-0.035
-0.025
-0.03
-0.07
-0.05
-0.09
-0.05
-0.07
-0.06
-0.075
-0.095
-0.085
-0.07
-0.06
-0.095
-0.095
-0.135
-0.075
-0.085
-0.075
-0.05
-0.01
0.005
0.01
0.075
0.03
-0.02
-0.035
-0.06
-0.08
-0.12
-0.15
-0.13
-0.12
-0.155
-0.145
-0.065
0.59
1.38
0.79
-0.14
-0.455
-0.415
-0.335
-0.165
-0.095
-0.17
-0.125
-0.05
-0.055
-0.125
-0.075
-0.065
-0.065
-0.045
-0.04
0.0
-0.03
0.05
0.075
0.06
0.05
0.125
0.205
0.265
0.265
0.31
0.34
0.3
0.37
0.255
0.25
0.195
0.055
0.04
0.0
0.0
-0.02
0.0
-0.045
-0.065
-0.05
-0.035
-0.045
-0.02
0.025
-0.04
0.015
0.015
-0.08
-0.05
-0.025
-0.09
-0.005
-0.035
-0.035
-0.065
-0.055
-0.065
-0.085
-0.035
-0.055
-0.09
-0.1
-0.04
-0.03
-0.11
-0.075
-0.055
-0.015
0.045
0.01
0.07
-0.01
-0.05
-0.045
-0.1
-0.075
-0.11
-0.15
-0.095
-0.11
-0.19
-0.145
0.245
1.235
1.195
0.15
-0.28
-0.485
-0.425
-0.285
-0.145
-0.14
-0.065
-0.12
-0.15
-0.055
-0.12
-0.075
-0.125
-0.04
-0.005
-0.105
0.01
-0.005
-0.015
0.09
0.04
0.1
0.195
0.18
0.22
0.355
0.305
0.345
0.3
0.24
0.245
0.17
0.075
0.07
-0.06
-0.03
-0.095
-0.135
0.04
-0.175
-0.05
-0.06
-0.135
-0.095
0.01
-0.035
0.0
-0.05
0.0
0.025
-0.075
-0.035
-0.055
-0.085
-0.115
0.015
-0.115
-0.05
-0.04
-0.12
-0.135
-0.105
-0.115
-0.02
-0.075
-0.085
0.0
-0.06
-0.01
0.015
0.045
0.01
-0.01
-0.11
-0.035
-0.065
-0.13
-0.125
-0.145
-0.095
-0.1
-0.205
0.26
1.235
1.115
0.18
-0.4
-0.365
-0.415
-0.29
-0.19
-0.055
-0.135
-0.11
-0.06
-0.1
-0.08
-0.1
-0.02
-0.075
-0.015
-0.065
-0.025
0.005
0.03
0.04
0.07
0.15
0.18
0.225
0.23
0.295
0.355
0.355
0.375
0.275
0.25
0.155
0.055
0.03
-0.025
-0.055
-0.06
-0.055
-0.09
-0.045
-0.04
-0.05
-0.015
-0.03
-0.03
-0.025
-0.02
-0.03
-0.05
-0.045
-0.03
-0.04
-0.055
-0.08
-0.075
-0.05
-0.08
-0.09
-0.07
-0.08
-0.095
-0.07
-0.085
-0.115
-0.125
-0.1
-0.1
-0.1
-0.105
-0.065
-0.07
-0.03
0.0
0.04
0.065
-0.04
-0.04
-0.06
-0.1
-0.135
-0.16
-0.14
-0.13
-0.145
-0.16
-0.15
0.565
1.555
0.97
-0.045
-0.39
-0.35
-0.27
-0.185
-0.12
-0.135
-0.11
-0.115
-0.095
-0.08
-0.08
-0.09
-0.075
-0.06
-0.055
-0.035
-0.03
-0.005
0.02
0.05
0.065
0.095
0.14
0.175
0.205
0.25
0.27
0.295
0.285
0.24
0.205
0.125
0.06
0.015
-0.02
-0.03
-0.045
-0.045
-0.07
-0.055
-0.055
-0.045
-0.05
-0.04
-0.02
-0.035
-0.025
-0.055
-0.06
-0.055
-0.07
-0.055
-0.08
-0.08
-0.07
-0.085
-0.09
-0.09
-0.095
-0.11
-0.095
-0.1
-0.12
-0.085
-0.115
-0.1
-0.09
-0.09
-0.075
-0.085
-0.025
-0.015
0.005
0.03
0.0
-0.025
-0.055
-0.08
-0.12
-0.15
-0.145
-0.15
-0.135
-0.145
-0.205
0.17
1.035
1.19
0.545
-0.145
-0.33
-0.3
-0.265
-0.09
-0.11
-0.12
-0.105
-0.11
-0.085
-0.08
-0.09
-0.08
-0.075
-0.06
-0.06
-0.045
-0.035
0.0
0.02
0.035
0.065
0.09
0.15
0.18
0.2
0.24
0.25
0.25
0.25
0.21
0.14
0.08
0.035
0.015
-0.01
-0.07
-0.045
-0.055
-0.04
-0.02
-0.035
-0.015
-0.015
-0.03
-0.03
-0.035
0.0
-0.025
-0.045
-0.055
-0.04
-0.035
-0.075
-0.065
-0.075
-0.065
-0.08
-0.11
-0.1
-0.09
-0.105
-0.09
-0.09
-0.105
-0.1
-0.08
-0.1
-0.1
-0.075
-0.025
-0.04
0.005
0.02
0.02
0.0
-0.06
-0.065
-0.08
-0.15
-0.135
-0.13
-0.14
-0.17
-0.145
-0.045
0.605
1.3
0.925
0.075
-0.31
-0.295
-0.24
-0.125
-0.11
-0.125
-0.12
-0.09
-0.09
-0.11
-0.08
-0.07
-0.045
-0.04
-0.08
-0.035
0.035
0.035
0.02
0.075
0.05
0.105
0.16
0.185
0.275
0.265
0.33
0.275
0.32
0.26
0.215
0.145
0.09
0.05
0.0
-0.015
-0.055
0.015
-0.055
-0.03
-0.045
-0.025
-0.075
0.01
-0.035
-0.01
-0.02
-0.05
0.015
-0.08
-0.025
-0.07
-0.055
-0.115
-0.025
-0.095
-0.045
-0.08
-0.12
-0.035
-0.055
-0.095
-0.095
-0.05
-0.135
-0.105
-0.12
-0.05
-0.055
0.0
0.04
-0.04
0.045
-0.055
-0.065
-0.075
-0.07
-0.165
-0.145
-0.13
-0.22
-0.05
-0.225
-0.02
0.82
1.545
0.57
-0.265
-0.435
-0.365
-0.215
-0.315
-0.06
-0.1
-0.15
-0.07
-0.02
-0.165
0.1
-0.155
-0.075
0.03
-0.13
0.025
0.045
0.09
0.005
0.025
0.155
0.19
0.25
0.21
0.18
0.315
0.365
0.36
0.245
0.305
0.24
0.095
0.025
0.04
0.025
-0.08
-0.065
0.0
-0.035
-0.085
-0.05
-0.02
-0.005
-0.035
-0.02
-0.04
-0.01
0.0
-0.005
-0.045
-0.03
-0.025
-0.085
-0.06
-0.04
-0.135
-0.055
-0.085
-0.07
-0.065
-0.14
-0.065
-0.125
-0.07
-0.09
-0.105
-0.115
-0.08
-0.045
-0.02
0.0
0.03
-0.015
-0.065
-0.07
-0.04
-0.14
-0.175
-0.15
-0.155
-0.125
-0.16
-0.22
0.17
1.225
1.205
0.275
-0.325
-0.34
-0.315
-0.265
-0.09
-0.12
-0.125
-0.115
-0.1
-0.085
-0.1
-0.1
-0.07
-0.075
-0.05
-0.045
-0.04
0.0
0.01
0.03
0.065
0.085
0.12
0.165
0.205
0.21
0.265
0.28
0.27
0.285
0.2
0.155
0.1
0.035
-0.01
-0.025
-0.035
-0.045
-0.035
-0.06
-0.045
-0.005
-0.03
-0.04
-0.045
-0.045
-0.03
-0.045
-0.035
-0.02
-0.035
-0.045
-0.045
-0.06
-0.08
-0.07
-0.085
-0.075
-0.1
-0.1
-0.075
-0.1
-0.08
-0.1
-0.09
-0.08
-0.11
-0.125
-0.095
-0.09
-0.05
-0.015
-0.025
0.015
0.025
-0.025
-0.04
-0.045
-0.08
-0.135
-0.12
-0.13
-0.15
-0.165
-0.14
-0.205
0.395
1.415
1.085
0.18
-0.29
-0.32
-0.29
-0.195
-0.09
-0.11
-0.11
-0.1
-0.11
-0.1
-0.08
-0.09
-0.07
-0.07
-0.045
-0.03
-0.03
-0.01
-0.005
0.045
0.08
0.095
0.14
0.13
0.18
0.205
0.23
0.235
0.26
0.25
0.2
0.14
0.07
0.05
0.02
-0.005
-0.02
-0.025
-0.035
-0.03
-0.035
-0.035
-0.04
-0.025
-0.02
-0.02
-0.065
-0.035
-0.045
-0.04
-0.045
-0.04
-0.07
-0.085
-0.075
-0.085
-0.095
-0.08
-0.08
-0.11
-0.095
-0.09
-0.1
-0.1
-0.095
-0.095
-0.105
-0.125
-0.09
-0.055
-0.03
-0.015
0.015
0.03
0.01
-0.02
-0.055
-0.07
-0.1
-0.14
-0.14
-0.15
-0.13
-0.125
-0.165
0.095
0.925
1.22
0.67
-0.07
-0.315
-0.265
-0.235
-0.09
-0.105
-0.085
-0.09
-0.1
-0.065
-0.03
-0.11
-0.055
-0.06
-0.02
-0.04
-0.015
0.0
0.015
0.05
0.03
0.11
0.095
0.16
0.195
0.21
0.235
0.28
0.28
0.275
0.225
0.17
0.11
0.065
0.005
-0.01
-0.01
-0.07
-0.045
-0.04
-0.03
-0.015
-0.015
-0.035
-0.05
-0.055
-0.035
0.03
-0.025
-0.06
-0.08
-0.085
-0.04
-0.085
-0.04
-0.09
-0.1
-0.06
-0.07
-0.065
-0.085
-0.095
-0.09
-0.06
-0.105
-0.105
-0.1
-0.055
-0.11
0.02
0.015
0.005
0.055
0.0
0.01
-0.065
-0.065
-0.07
-0.145
-0.15
-0.09
-0.14
-0.16
-0.15
0.19
1.24
1.165
0.21
-0.24
-0.33
-0.31
-0.275
-0.13
-0.085
-0.05
-0.12
-0.165
-0.035
-0.02
-0.115
-0.075
-0.035
-0.05
-0.035
0.02
-0.03
-0.02
0.025
0.13
0.09
0.15
0.145
0.265
0.245
0.215
0.34
0.305
0.305
0.21
0.125
0.095
0.05
0.01
-0.025
-0.04
0.015
-0.04
-0.05
-0.035
-0.04
-0.05
0.0
-0.04
-0.035
-0.015
-0.075
-0.04
-0.05
-0.02
-0.1
-0.055
-0.065
-0.07
-0.09
-0.09
-0.075
-0.065
-0.07
-0.14
-0.085
-0.08
-0.11
-0.135
-0.085
-0.125
-0.075
-0.01
-0.005
0.0
0.03
-0.01
-0.045
-0.055
-0.085
-0.145
-0.12
-0.125
-0.135
-0.145
-0.1
-0.235
0.43
1.475
0.98
0.0
-0.415
-0.32
-0.295
-0.205
-0.135
-0.105
-0.085
-0.125
-0.075
-0.08
-0.11
-0.06
-0.08
-0.04
-0.015
-0.035
0.0
0.015
0.02
0.06
0.115
0.12
0.1
0.175
0.215
0.225
0.27
0.255
0.295
0.27
0.205
0.145
0.06
0.045
-0.01
-0.04
-0.04
-0.025
-0.055
-0.055
-0.055
-0.04
-0.03
-0.03
-0.015
-0.04
-0.02
-0.045
-0.05
-0.065
-0.04
-0.055
-0.065
-0.09
-0.08
-0.075
-0.095
-0.105
-0.085
-0.075
-0.105
-0.095
-0.1
-0.105
-0.11
-0.105
-0.135
-0.09
-0.08
-0.03
-0.035
0.005
0.03
-0.02
-0.03
-0.065
-0.09
-0.125
-0.155
-0.145
-0.125
-0.15
-0.12
-0.23
0.19
1.18
1.2
0.405
-0.195
-0.315
-0.27
-0.245
-0.1
-0.1
-0.135
-0.11
-0.09
-0.095
-0.085
-0.08
-0.06
-0.07
-0.065
-0.035
-0.01
0.01
0.005
0.035
0.065
0.085
0.105
0.145
0.185
0.22
0.21
0.24
0.265
0.275
0.22
0.155
0.09
0.03
0.0
0.015
-0.01
-0.015
-0.02
-0.025
-0.025
-0.05
-0.04
-0.01
-0.015
-0.03
-0.02
-0.04
-0.055
-0.04
-0.06
-0.045
-0.035
-0.06
-0.09
-0.1
-0.075
-0.095
-0.085
-0.075
-0.065
-0.075
-0.08
-0.09
-0.1
-0.105
-0.085
-0.065
-0.06
-0.005
0.0
0.05
0.02
0.0
-0.055
-0.07
-0.07
-0.15
-0.135
-0.13
-0.125
-0.13
-0.125
-0.15
0.53
1.39
0.975
0.075
-0.31
-0.295
-0.265
-0.14
-0.12
-0.08
-0.07
-0.095
-0.065
-0.11
-0.065
-0.095
-0.055
-0.025
-0.055
-0.005
-0.005
0.03
0.015
0.025
0.075
0.09
0.12
0.205
0.195
0.2
0.22
0.25
0.24
0.22
0.18
0.13
0.065
0.0
0.02
-0.04
-0.03
-0.06
-0.055
-0.05
-0.08
-0.03
-0.04
-0.06
-0.05
-0.055
-0.015
-0.045
-0.09
-0.035
-0.065
-0.045
-0.11
-0.06
-0.07
-0.09
-0.065
-0.11
-0.075
-0.065
-0.125
-0.065
-0.055
-0.11
-0.075
-0.035
-0.005
-0.035
0.07
0.04
0.02
-0.025
-0.015
-0.08
-0.09
-0.135
-0.13
-0.105
-0.15
-0.08
-0.225
0.15
1.12
1.19
0.32
-0.195
-0.375
-0.33
-0.235
-0.17
-0.125
-0.065
-0.115
-0.08
-0.035
-0.115
-0.075
-0.045
-0.085
-0.07
0.01
-0.015
0.015
0.04
-0.045
0.09
0.105
0.16
0.19
0.19
0.23
0.285
0.26
0.28
0.295
0.17
0.13
0.075
0.04
0.095
-0.04
-0.115
-0.015
-0.025
-0.075
0.035
-0.095
-0.07
0.015
-0.105
-0.04
-0.045
0.035
-0.08
-0.05
-0.12
-0.03
-0.095
-0.09
-0.005
-0.135
-0.07
-0.015
-0.16
-0.14
-0.015
-0.15
-0.045
-0.095
-0.08
-0.035
-0.05
-0.06
0.02
0.065
0.0
-0.075
-0.035
-0.045
-0.085
-0.155
-0.22
-0.055
-0.165
-0.11
-0.21
0.225
1.345
1.07
0.205
-0.31
-0.39
-0.335
-0.23
-0.08
-0.145
-0.1
-0.105
-0.07
-0.025
-0.115
-0.035
-0.065
-0.065
-0.015
-0.045
0.03
0.0
0.03
0.075
0.075
0.13
0.16
0.185
0.21
0.285
0.24
0.31
0.285
0.255
0.195
0.11
0.075
-0.02
0.0
-0.07
-0.075
-0.045
-0.095
-0.035
-0.07
-0.055
-0.045
-0.04
-0.03
-0.025
-0.04
-0.025
0.0
-0.045
-0.06
-0.04
-0.08
-0.07
-0.03
-0.08
-0.085
-0.04
-0.095
-0.105
-0.1
-0.12
-0.085
-0.1
-0.115
-0.12
-0.095
-0.04
-0.02
-0.015
0.035
0.03
0.0
-0.05
-0.06
-0.05
-0.165
-0.15
-0.165
-0.145
-0.125
-0.155
-0.2
0.495
1.5
1.085
0.04
-0.365
-0.33
-0.265
-0.145
-0.105
-0.11
-0.105
-0.095
-0.11
-0.075
-0.09
-0.065
-0.03
-0.065
-0.025
-0.045
-0.02
-0.02
0.03
0.05
0.075
0.08
0.12
0.17
0.205
0.205
0.24
0.27
0.255
0.24
0.18
0.13
0.04
0.02
0.0
-0.03
-0.02
-0.03
-0.035
-0.035
-0.04
-0.055
-0.045
-0.035
-0.05
-0.025
-0.04
-0.055
-0.05
-0.075
-0.07
-0.075
-0.085
-0.085
-0.075
-0.07
-0.065
-0.08
-0.105
-0.095
-0.095
-0.105
-0.11
-0.09
-0.1
-0.12
-0.095
-0.04
-0.02
0.0
0.025
0.01
-0.02
-0.05
-0.03
-0.095
-0.145
-0.15
-0.155
-0.145
-0.16
-0.15
-0.17
0.47
1.43
1.03
0.125
-0.315
-0.305
-0.26
-0.175
-0.105
-0.115
-0.055
-0.075
-0.125
-0.1
-0.095
-0.07
-0.025
-0.065
-0.065
-0.055
-0.02
-0.015
0.02
0.05
0.095
0.075
0.1
0.135
0.2
0.19
0.22
0.22
0.25
0.33
0.125
0.12
0.02
0.0
-0.01
-0.025
0.0
-0.04
-0.045
-0.01
-0.07
-0.01
-0.02
-0.03
-0.005
-0.07
-0.04
-0.015
-0.035
-0.115
-0.03
-0.065
-0.065
-0.045
-0.09
-0.145
-0.055
-0.09
-0.095
-0.12
-0.065
-0.105
-0.115
-0.095
-0.125
-0.09
-0.12
-0.035
0.025
0.01
0.025
-0.025
-0.02
-0.065
-0.12
-0.1
-0.105
-0.17
-0.185
-0.06
-0.2
-0.2
0.25
1.24
1.09
0.235
-0.325
-0.37
-0.305
-0.315
-0.095
-0.12
-0.13
-0.08
-0.14
-0.125
-0.13
0.01
-0.09
-0.08
-0.02
-0.095
0.01
-0.09
0.03
0.01
0.035
0.095
0.17
0.095
0.16
0.215
0.18
0.275
0.355
0.21
0.185
0.135
0.075
0.01
-0.025
-0.01
-0.13
0.04
0.035
-0.095
-0.105
-0.085
0.005
0.02
-0.13
-0.02
0.02
-0.05
0.09
-0.075
-0.125
-0.025
-0.09
-0.035
0.055
-0.145
-0.11
-0.045
-0.125
-0.045
-0.09
-0.065
-0.07
-0.035
-0.085
-0.1
-0.04
-0.015
0.035
0.05
0.02
-0.03
0.015
-0.005
-0.065
-0.1
-0.12
-0.155
-0.1
-0.09
-0.145
-0.16
0.545
1.615
0.865
-0.095
-0.405
-0.35
-0.285
-0.19
-0.13
-0.095
-0.1
-0.095
-0.09
-0.11
-0.065
-0.08
-0.065
-0.04
-0.045
-0.02
-0.01
-0.01
0.015
0.025
0.07
0.075
0.125
0.16
0.2
0.21
0.215
0.255
0.27
0.2
0.185
0.07
0.065
0.0
-0.01
-0.015
-0.08
-0.035
-0.09
-0.025
-0.01
-0.05
-0.035
-0.035
-0.03
-0.04
-0.06
-0.06
-0.05
-0.075
-0.07
-0.06
-0.065
-0.09
-0.075
-0.085
-0.08
-0.095
-0.1
-0.105
-0.12
-0.1
-0.11
-0.105
-0.095
-0.145
-0.085
-0.065
-0.04
-0.04
0.0
0.04
-0.01
-0.015
-0.06
-0.07
-0.135
-0.135
-0.15
-0.14
-0.145
-0.145
-0.18
0.085
1.08
1.26
0.485
-0.175
-0.37
-0.3
-0.265
-0.095
-0.115
-0.1
-0.105
-0.1
-0.085
-0.11
-0.095
-0.055
-0.03
-0.04
-0.045
-0.03
0.0
0.0
0.01
0.03
0.08
0.105
0.14
0.145
0.17
0.195
0.225
0.275
0.22
0.18
0.135
0.09
0.025
0.0
0.02
-0.02
-0.05
-0.03
-0.03
-0.01
-0.01
-0.01
-0.04
-0.04
-0.035
-0.03
-0.025
-0.045
-0.035
-0.06
-0.075
-0.075
-0.08
-0.06
-0.07
-0.07
-0.075
-0.09
-0.085
-0.1
-0.105
-0.095
-0.09
-0.105
-0.09
-0.08
-0.075
-0.025
-0.015
0.04
0.04
-0.005
-0.02
-0.045
-0.075
-0.13
-0.14
-0.13
-0.135
-0.14
-0.125
-0.21
0.205
1.155
1.13
0.375
-0.185
-0.33
-0.275
-0.235
-0.095
-0.105
-0.105
-0.09
-0.09
-0.095
-0.09
-0.055
-0.085
-0.06
-0.04
-0.03
-0.04
-0.005
0.02
0.025
0.045
0.065
0.11
0.135
0.165
0.17
0.19
0.235
0.225
0.185
0.16
0.135
0.07
0.025
-0.015
-0.025
-0.025
-0.035
-0.03
-0.045
-0.04
-0.04
-0.04
-0.025
-0.045
-0.035
-0.06
-0.055
-0.065
-0.07
-0.06
-0.05
-0.075
-0.09
-0.09
-0.09
-0.11
-0.105
-0.105
-0.095
-0.09
-0.095
-0.1
-0.105
-0.09
-0.095
-0.08
-0.035
-0.02
0.0
0.025
0.04
-0.005
-0.015
-0.04
-0.075
-0.125
-0.13
-0.12
-0.11
-0.14
-0.115
-0.205
0.33
1.29
1.0
0.18
-0.27
-0.32
-0.28
-0.21
-0.095
-0.08
-0.08
-0.09
-0.08
-0.08
-0.085
-0.065
-0.06
-0.07
-0.06
-0.015
-0.01
-0.01
0.01
0.05
0.07
0.08
0.11
0.13
0.145
0.16
0.195
0.2
0.235
0.22
0.155
0.11
0.065
0.025
0.015
-0.02
-0.005
0.0
-0.04
-0.025
-0.02
-0.04
-0.03
-0.05
-0.04
-0.035
-0.025
-0.045
-0.01
-0.045
-0.065
-0.065
-0.08
-0.075
-0.065
-0.08
-0.07
-0.075
-0.11
-0.075
-0.075
-0.09
-0.095
-0.07
-0.085
-0.075
-0.06
-0.04
-0.005
0.03
0.075
0.01
-0.015
-0.03
-0.055
-0.105
-0.125
-0.125
-0.115
-0.145
-0.135
-0.205
0.175
1.06
1.05
0.38
-0.145
-0.32
-0.305
-0.235
-0.07
-0.1
-0.1
-0.1
-0.095
-0.08
-0.09
-0.075
-0.055
-0.05
-0.045
-0.025
-0.005
0.015
0.04
0.01
0.055
0.085
0.08
0.12
0.145
0.195
0.215
0.225
0.235
0.215
0.195
0.15
0.08
0.055
0.01
-0.03
-0.02
-0.025
-0.015
0.0
-0.03
-0.03
-0.005
-0.025
-0.01
-0.035
-0.015
-0.05
-0.055
-0.035
-0.05
-0.07
-0.065
-0.075
-0.065
-0.075
-0.05
-0.075
-0.08
-0.075
-0.075
-0.085
-0.08
-0.1
-0.11
-0.09
-0.055
-0.02
0.03
0.05
0.035
0.01
-0.035
-0.025
-0.075
-0.115
-0.14
-0.145
-0.11
-0.14
-0.15
-0.17
0.445
1.345
0.865
0.06
-0.29
-0.31
-0.26
-0.175
-0.08
-0.11
-0.105
-0.1
-0.075
-0.105
-0.085
-0.085
-0.035
-0.045
-0.05
-0.02
-0.025
0.005
0.02
0.055
0.07
0.08
0.115
0.1
0.15
0.175
0.225
0.225
0.225
0.22
0.165
0.105
0.065
0.025
-0.015
-0.04
-0.025
-0.035
-0.04
-0.035
-0.025
-0.015
-0.03
-0.05
-0.035
-0.02
-0.05
-0.085
-0.05
-0.07
-0.06
-0.06
-0.075
-0.08
-0.085
-0.095
-0.095
-0.07
-0.085
-0.11
-0.1
-0.095
-0.12
-0.105
-0.06
-0.095
-0.055
-0.01
0.015
0.035
-0.005
-0.04
-0.025
-0.045
-0.095
-0.135
-0.13
-0.14
-0.16
-0.15
-0.185
-0.04
0.735
1.28
0.665
-0.075
-0.355
-0.32
-0.265
-0.17
-0.13
-0.115
-0.1
-0.11
-0.105
-0.095
-0.055
-0.035
-0.025
-0.1
-0.04
-0.01
0.0
0.015
0.025
0.045
0.085
0.095
0.105
0.125
0.165
0.2
0.215
0.255
0.24
0.21
0.145
0.07
0.04
0.005
0.0
-0.01
-0.055
-0.075
-0.055
-0.025
-0.02
-0.025
-0.02
-0.04
-0.055
-0.045
-0.01
-0.045
-0.05
-0.075
-0.065
-0.06
-0.065
-0.065
-0.075
-0.055
-0.085
-0.1
-0.085
-0.115
-0.11
-0.105
-0.125
-0.1
-0.05
-0.02
-0.005
0.01
0.035
0.035
-0.02
-0.025
-0.055
-0.09
-0.13
-0.12
-0.125
-0.12
-0.12
-0.155
-0.01
0.78
1.325
0.705
-0.025
-0.34
-0.28
-0.24
-0.1
-0.07
-0.085
-0.09
-0.09
-0.04
-0.055
-0.035
-0.04
-0.01
0.005
0.005
0.0
0.025
0.035
0.05
0.09
0.075
0.1
0.14
0.17
0.17
0.195
0.22
0.25
0.26
0.185
0.115
0.065
0.025
0.015
-0.03
-0.03
-0.03
-0.02
-0.04
-0.035
-0.03
-0.005
-0.04
-0.055
-0.025
-0.035
-0.045
-0.05
-0.06
-0.065
-0.065
-0.065
-0.06
-0.075
-0.085
-0.07
-0.095
-0.105
-0.095
-0.08
-0.115
-0.105
-0.12
-0.115
-0.08
-0.05
-0.025
0.0
0.02
0.0
-0.01
-0.055
-0.06
-0.08
-0.155
-0.15
-0.15
-0.135
-0.145
-0.165
-0.12
0.665
1.44
0.955
0.04
-0.29
-0.255
-0.225
-0.085
-0.11
-0.12
-0.07
-0.08
-0.08
-0.09
-0.08
-0.085
-0.045
-0.05
-0.035
-0.035
-0.035
0.005
0.05
0.05
0.095
0.09
0.125
0.17
0.155
0.2
0.2
0.21
0.19
0.205
0.14
0.065
0.02
-0.02
-0.035
-0.03
-0.05
-0.035
-0.05
-0.06
-0.045
-0.05
-0.03
-0.045
-0.035
-0.03
-0.05
-0.06
-0.055
-0.06
-0.07
-0.075
-0.05
-0.085
-0.11
-0.085
-0.085
-0.12
-0.095
-0.085
-0.075
-0.1
-0.085
-0.085
-0.035
0.0
0.025
0.045
0.025
-0.025
-0.065
-0.05
-0.1
-0.13
-0.155
-0.165
-0.09
-0.125
-0.165
-0.09
0.67
1.35
0.76
-0.02
-0.325
-0.31
-0.295
-0.16
-0.13
-0.13
-0.09
-0.12
-0.075
-0.095
-0.065
-0.06
-0.07
-0.1
-0.04
-0.045
-0.02
0.0
0.025
0.03
0.075
0.065
0.085
0.15
0.18
0.21
0.2
0.24
0.19
0.23
0.135
0.03
0.025
0.025
-0.005
-0.04
-0.035
0.01
-0.03
-0.07
-0.01
-0.035
-0.025
-0.055
-0.035
-0.04
-0.05
-0.085
0.02
-0.075
-0.09
-0.06
-0.105
-0.085
-0.065
-0.075
-0.09
-0.06
-0.14
-0.075
-0.08
-0.035
-0.11
-0.03
-0.025
0.02
0.03
0.02
-0.01
-0.055
-0.045
-0.105
-0.11
-0.08
-0.105
-0.16
-0.18
-0.14
-0.05
0.775
1.315
0.555
-0.095
-0.39
-0.355
-0.29
-0.165
-0.13
-0.115
-0.125
-0.07
-0.06
-0.11
-0.115
-0.035
-0.055
-0.005
-0.035
-0.005
0.0
0.025
0.065
0.025
0.11
0.13
0.16
0.16
0.245
0.235
0.23
0.28
0.27
0.185
0.12
0.09
0.06
0.015
0.0
0.005
-0.035
0.0
-0.02
-0.025
-0.01
-0.015
-0.01
-0.015
-0.01
-0.02
-0.025
-0.055
-0.025
-0.02
-0.06
-0.03
-0.025
-0.03
-0.085
-0.12
-0.075
-0.07
-0.07
-0.09
-0.085
-0.095
-0.085
-0.05
-0.03
-0.01
0.01
0.035
-0.01
-0.035
-0.04
-0.07
-0.1
-0.135
-0.16
-0.135
-0.145
-0.135
-0.195
0.37
1.41
1.12
0.075
-0.33
-0.315
-0.285
-0.19
-0.08
-0.1
-0.085
-0.08
-0.09
-0.06
-0.03
-0.075
-0.03
-0.03
-0.03
0.0
-0.005
0.015
0.035
0.055
0.045
0.09
0.12
0.195
0.215
0.21
0.235
0.25
0.23
0.185
0.15
0.12
0.075
0.02
0.015
-0.02
-0.01
-0.025
-0.015
-0.045
-0.035
-0.05
-0.03
-0.04
-0.04
-0.035
-0.05
-0.06
-0.065
-0.09
-0.085
-0.08
-0.07
-0.075
-0.105
-0.075
-0.09
-0.12
-0.13
-0.095
-0.09
-0.1
-0.14
-0.105
-0.08
-0.04
-0.025
0.0
0.025
-0.01
-0.02
-0.065
-0.065
-0.115
-0.165
-0.15
-0.16
-0.145
-0.135
-0.21
0.1
1.055
1.26
0.53
-0.13
-0.365
-0.295
-0.24
-0.105
-0.115
-0.105
-0.1
-0.095
-0.08
-0.065
-0.035
-0.07
-0.07
-0.03
-0.025
-0.015
0.005
0.05
0.045
0.08
0.095
0.105
0.125
0.15
0.205
0.195
0.26
0.26
0.235
0.165
0.115
0.07
0.005
0.01
-0.02
-0.04
-0.035
-0.015
-0.01
-0.025
0.0
-0.04
-0.065
-0.025
-0.025
-0.03
-0.055
-0.04
-0.065
-0.06
-0.055
-0.065
-0.06
-0.05
-0.115
-0.09
-0.1
-0.075
-0.085
-0.095
-0.145
-0.12
-0.065
-0.1
-0.015
-0.04
0.02
0.09
0.02
-0.02
-0.075
-0.07
-0.135
-0.125
-0.115
-0.14
-0.14
-0.15
-0.19
0.09
0.995
1.1
0.415
-0.19
-0.415
-0.35
-0.24
-0.12
-0.11
-0.135
-0.095
-0.08
-0.105
-0.06
-0.055
-0.085
-0.07
-0.05
-0.065
0.02
-0.01
0.005
0.03
0.09
0.065
0.115
0.16
0.22
0.195
0.225
0.255
0.31
0.26
0.135
0.095
0.005
0.01
0.005
-0.02
-0.055
-0.065
-0.085
-0.085
-0.035
-0.02
-0.095
-0.08
-0.03
-0.06
-0.095
-0.035
-0.06
-0.02
-0.065
-0.1
-0.075
-0.115
-0.1
-0.095
-0.105
-0.095
-0.05
-0.1
-0.08
-0.07
-0.125
-0.11
-0.05
-0.04
0.0
0.09
0.07
0.01
-0.05
-0.085
-0.065
-0.115
-0.135
-0.135
-0.125
-0.115
-0.175
-0.03
0.885
1.37
0.64
-0.055
-0.345
-0.305
-0.235
-0.105
-0.07
-0.1
-0.075
-0.075
-0.075
-0.055
-0.03
-0.045
-0.04
-0.045
-0.06
-0.025
-0.005
0.025
0.045
0.04
0.06
0.1
0.12
0.125
0.17
0.19
0.215
0.245
0.22
0.155
0.11
0.055
0.02
0.01
-0.02
-0.04
-0.04
-0.025
-0.03
-0.01
-0.025
-0.02
-0.02
-0.03
-0.025
-0.055
-0.05
-0.06
-0.035
-0.07
-0.06
-0.09
-0.06
-0.06
-0.085
-0.07
-0.08
-0.085
-0.095
-0.095
-0.1
-0.095
-0.1
-0.07
-0.055
0.0
0.01
0.03
0.045
0.02
-0.01
-0.035
-0.105
-0.13
-0.13
-0.14
-0.135
-0.15
-0.14
-0.185
0.425
1.305
1.055
0.14
-0.295
-0.3
-0.27
-0.14
-0.095
-0.115
-0.115
-0.115
-0.085
-0.085
-0.095
-0.08
-0.065
-0.055
-0.04
-0.05
-0.03
0.0
0.005
0.025
0.04
0.08
0.115
0.135
0.155
0.185
0.2
0.2
0.245
0.225
0.165
0.085
0.06
0.0
-0.01
0.0
-0.01
-0.025
-0.03
0.0
-0.005
-0.025
-0.02
0.0
-0.02
-0.03
-0.04
-0.055
-0.07
-0.055
-0.05
-0.045
-0.08
-0.125
-0.1
-0.1
-0.1
-0.055
-0.08
-0.09
-0.125
-0.13
-0.08
-0.115
-0.04
-0.02
0.025
0.055
0.03
0.01
-0.025
-0.03
-0.08
-0.17
-0.17
-0.11
-0.12
-0.155
-0.12
-0.145
0.53
1.26
0.755
-0.02
-0.34
-0.35
-0.305
-0.185
-0.085
-0.16
-0.125
-0.045
-0.135
-0.08
-0.045
-0.1
-0.065
-0.04
-0.06
0.05
0.015
0.015
0.055
0.03
0.09
0.07
0.145
0.13
0.17
0.29
0.265
0.25
0.205
0.235
0.15
0.105
0.05
-0.025
-0.015
-0.045
-0.03
-0.04
-0.065
-0.07
-0.02
-0.04
-0.035
-0.025
-0.055
-0.075
-0.055
-0.055
-0.055
-0.005
-0.045
-0.075
-0.095
-0.105
-0.07
-0.085
-0.075
-0.075
-0.08
-0.055
-0.09
-0.11
-0.07
-0.04
-0.035
0.07
0.085
0.01
-0.03
-0.02
-0.025
-0.12
-0.13
-0.12
-0.09
-0.15
-0.115
-0.2
0.2
1.15
1.115
0.325
-0.155
-0.285
-0.265
-0.195
-0.1
-0.095
-0.115
-0.1
-0.105
-0.075
-0.04
-0.03
-0.06
-0.04
-0.03
-0.04
-0.005
0.0
0.025
0.05
0.055
0.08
0.1
0.125
0.16
0.185
0.22
0.235
0.22
0.215
0.17
0.115
0.07
0.02
0.01
-0.005
-0.03
-0.04
-0.035
-0.035
-0.045
-0.02
-0.025
-0.045
-0.02
-0.025
-0.055
-0.06
-0.045
-0.03
-0.08
-0.08
-0.06
-0.105
-0.075
-0.085
-0.075
-0.09
-0.105
-0.1
-0.09
-0.08
-0.1
-0.11
-0.06
-0.02
0.0
0.02
0.035
0.0
-0.005
-0.05
-0.065
-0.095
-0.145
-0.155
-0.155
-0.155
-0.15
-0.195
0.335
1.295
1.05
0.17
-0.26
-0.31
-0.26
-0.165
-0.065
-0.1
-0.105
-0.1
-0.1
-0.08
-0.085
-0.07
-0.06
-0.05
-0.045
-0.02
-0.005
0.005
0.025
0.05
0.075
0.09
0.11
0.125
0.155
0.17
0.2
0.235
0.24
0.19
0.16
0.125
0.07
0.03
-0.025
-0.025
-0.015
-0.05
-0.03
-0.03
-0.01
-0.02
-0.02
-0.015
-0.02
-0.04
-0.045
-0.06
-0.07
-0.06
-0.09
-0.085
-0.07
-0.075
-0.11
-0.075
-0.07
-0.105
-0.075
-0.095
-0.09
-0.08
-0.095
-0.08
-0.03
-0.015
0.015
0.035
-0.01
-0.015
-0.035
-0.055
-0.13
-0.15
-0.13
-0.115
-0.17
-0.155
-0.185
0.285
1.215
0.965
0.285
-0.21
-0.285
-0.265
-0.2
-0.035
-0.085
-0.095
-0.115
-0.09
-0.1
-0.05
-0.095
-0.07
-0.045
-0.075
-0.06
0.02
0.0
0.02
0.035
0.1
0.105
0.075
0.155
0.155
0.285
0.225
0.25
0.255
0.235
0.21
0.115
0.03
-0.015
-0.045
-0.035
-0.01
-0.06
-0.04
-0.09
-0.07
-0.015
-0.035
-0.08
-0.015
-0.015
-0.085
-0.07
-0.09
-0.095
-0.09
-0.06
-0.045
-0.05
-0.05
-0.075
-0.115
-0.1
-0.065
-0.075
-0.075
-0.05
-0.03
-0.005
-0.02
0.06
-0.01
-0.045
-0.07
-0.105
-0.12
-0.17
-0.135
-0.125
-0.095
-0.085
-0.165
0.365
1.33
0.855
0.0
-0.285
-0.285
-0.25
-0.235
-0.105
-0.07
-0.1
-0.07
-0.09
-0.05
-0.03
-0.09
-0.065
-0.055
-0.02
-0.015
0.015
0.02
0.035
0.085
0.08
0.11
0.155
0.155
0.2
0.22
0.265
0.27
0.28
0.205
0.15
0.1
0.035
0.045
-0.005
-0.025
0.0
-0.015
0.005
-0.015
-0.065
-0.055
-0.05
-0.04
-0.06
-0.04
-0.035
-0.04
-0.06
-0.05
-0.065
-0.07
-0.095
-0.105
-0.095
-0.075
-0.085
-0.1
-0.085
-0.115
-0.085
-0.095
-0.07
-0.045
-0.03
0.03
0.065
0.02
-0.01
-0.045
-0.065
-0.095
-0.13
-0.135
-0.14
-0.145
-0.145
-0.145
-0.15
0.585
1.425
0.885
-0.015
-0.39
-0.36
-0.295
-0.145
-0.09
-0.115
-0.085
-0.105
-0.09
-0.095
-0.07
-0.045
-0.05
-0.055
-0.075
-0.04
-0.005
-0.035
0.02
0.045
0.05
0.115
0.125
0.14
0.165
0.18
0.23
0.23
0.2
0.155
0.095
0.055
0.045
0.015
-0.02
-0.04
-0.045
-0.055
-0.025
-0.025
-0.035
-0.05
-0.065
-0.035
-0.04
-0.065
-0.075
-0.05
-0.07
-0.085
-0.085
-0.075
-0.07
-0.08
-0.105
-0.105
-0.07
-0.09
-0.135
-0.105
-0.1
-0.085
-0.07
-0.035
-0.035
0.04
0.07
-0.005
-0.025
-0.05
-0.07
-0.125
-0.11
-0.15
-0.15
-0.175
-0.155
-0.205
0.075
0.93
1.115
0.58
-0.105
-0.345
-0.345
-0.24
-0.075
-0.13
-0.15
-0.095
-0.085
-0.155
-0.1
-0.07
-0.075
-0.02
-0.13
-0.05
-0.065
-0.03
0.0
0.03
0.07
0.04
0.1
0.165
0.165
0.205
0.23
0.28
0.315
0.19
0.145
0.11
0.02
-0.02
0.055
-0.05
-0.05
-0.105
-0.05
-0.055
-0.055
-0.04
-0.09
-0.035
-0.055
-0.045
-0.065
-0.07
-0.06
-0.07
-0.09
-0.105
-0.115
-0.02
-0.05
-0.12
-0.11
-0.1
-0.085
-0.09
-0.1
-0.04
-0.035
-0.005
0.035
0.045
0.02
-0.02
-0.045
-0.095
-0.14
-0.13
-0.14
-0.16
-0.14
-0.105
-0.14
0.495
1.415
0.85
-0.015
-0.325
-0.295
-0.27
-0.19
-0.06
-0.11
-0.045
-0.095
-0.08
-0.1
-0.105
-0.055
-0.03
-0.03
0.0
-0.02
-0.01
0.0
0.04
0.04
0.08
0.11
0.135
0.195
0.155
0.21
0.26
0.255
0.24
0.18
0.11
0.09
0.045
-0.01
-0.035
-0.025
-0.025
-0.065
-0.055
-0.065
-0.03
-0.05
-0.05
-0.04
-0.035
-0.04
-0.07
-0.06
-0.055
-0.07
-0.065
-0.085
-0.085
-0.075
-0.1
-0.095
-0.075
-0.09
-0.1
-0.08
-0.105
-0.085
-0.08
-0.02
-0.015
0.01
0.06
0.015
-0.025
-0.08
-0.065
-0.105
-0.16
-0.15
-0.125
-0.12
-0.13
-0.195
0.11
1.015
1.185
0.475
-0.16
-0.365
-0.29
-0.24
-0.105
-0.095
-0.105
-0.1
-0.08
-0.1
-0.105
-0.1
-0.06
-0.065
-0.07
-0.05
-0.005
0.0
-0.015
0.02
0.045
0.09
0.125
0.145
0.15
0.175
0.22
0.23
0.215
0.195
0.17
0.095
0.025
0.005
-0.01
-0.01
-0.04
-0.06
-0.045
-0.055
-0.05
-0.055
-0.015
-0.025
-0.04
-0.04
-0.03
-0.05
-0.07
-0.06
-0.08
-0.05
-0.075
-0.085
-0.09
-0.07
-0.09
-0.09
-0.085
-0.065
-0.095
-0.12
-0.085
-0.065
-0.015
0.035
0.03
0.025
-0.025
-0.03
-0.025
-0.08
-0.12
-0.115
-0.155
-0.135
-0.145
-0.14
-0.17
0.34
1.24
0.885
0.215
-0.24
-0.29
-0.29
-0.225
-0.1
-0.135
-0.115
-0.125
-0.02
-0.11
-0.11
-0.11
-0.11
-0.1
-0.085
-0.025
-0.005
-0.04
0.01
0.07
0.0
0.125
0.125
0.175
0.27
0.26
0.28
0.31
0.225
0.175
0.145
0.08
0.005
-0.015
-0.05
-0.095
-0.06
-0.105
-0.065
-0.065
-0.07
-0.065
-0.085
-0.06
-0.06
-0.04
-0.06
-0.045
-0.03
-0.005
-0.06
-0.08
-0.11
-0.1
-0.105
-0.075
-0.055
-0.065
-0.07
-0.11
-0.075
-0.04
0.01
0.005
0.02
0.045
0.025
-0.005
-0.015
-0.04
-0.125
-0.115
-0.11
-0.1
-0.125
-0.11
-0.175
0.385
1.385
0.93
0.065
-0.27
-0.3
-0.255
-0.235
-0.09
-0.11
-0.095
-0.07
-0.065
-0.09
-0.065
-0.045
-0.055
-0.035
-0.025
-0.025
-0.015
0.01
0.02
0.04
0.085
0.095
0.145
0.19
0.21
0.245
0.255
0.28
0.27
0.19
0.135
0.07
0.025
-0.005
-0.02
-0.045
-0.03
-0.03
-0.035
-0.04
-0.055
-0.04
-0.045
-0.04
-0.035
-0.04
-0.07
-0.05
-0.07
-0.06
-0.08
-0.085
-0.08
-0.095
-0.075
-0.08
-0.09
-0.09
-0.09
-0.095
-0.105
-0.105
-0.095
-0.065
-0.015
-0.01
0.04
0.07
0.03
0.0
-0.035
-0.055
-0.125
-0.135
-0.15
-0.15
-0.12
-0.14
-0.205
0.075
0.96
1.19
0.555
-0.145
-0.335
-0.285
-0.235
-0.115
-0.09
-0.095
-0.095
-0.07
-0.095
-0.085
-0.075
-0.06
-0.045
-0.035
-0.03
-0.01
0.005
0.015
0.045
0.065
0.08
0.12
0.15
0.185
0.225
0.25
0.29
0.235
0.21
0.155
0.115
0.045
0.025
-0.015
-0.02
-0.025
-0.05
-0.035
-0.04
-0.03
-0.045
-0.02
0.0
-0.025
-0.06
-0.055
-0.035
-0.05
-0.065
-0.06
-0.055
-0.08
-0.075
-0.08
-0.075
-0.075
-0.075
-0.095
-0.105
-0.1
-0.095
-0.095
-0.035
0.0
0.005
0.025
0.075
0.01
-0.025
-0.04
-0.07
-0.12
-0.155
-0.15
-0.14
-0.13
-0.13
-0.18
0.385
1.285
0.92
0.125
-0.295
-0.34
-0.285
-0.175
-0.085
-0.115
-0.09
-0.075
-0.075
-0.105
-0.085
-0.07
-0.05
-0.055
-0.03
-0.035
-0.02
-0.01
0.02
0.055
0.065
0.09
0.125
0.155
0.19
0.22
0.23
0.26
0.25
0.195
0.155
0.075
0.005
-0.005
-0.055
-0.04
-0.035
-0.07
-0.035
-0.035
-0.035
-0.05
-0.025
-0.02
-0.025
-0.055
-0.045
-0.055
-0.065
-0.055
-0.07
-0.09
-0.075
-0.09
-0.12
-0.065
-0.08
-0.07
-0.105
-0.095
-0.11
-0.08
-0.08
-0.055
0.0
0.0
0.045
0.075
0.015
-0.035
-0.04
-0.08
-0.13
-0.14
-0.14
-0.12
-0.135
-0.125
-0.13
0.455
1.29
0.92
0.02
-0.33
-0.325
-0.29
-0.155
-0.145
-0.1
-0.105
-0.115
-0.075
-0.075
-0.095
-0.07
-0.055
-0.05
-0.03
-0.015
0.005
0.0
0.025
0.055
0.065
0.085
0.165
0.195
0.225
0.245
0.28
0.275
0.245
0.195
0.15
0.09
0.025
-0.02
-0.04
-0.055
-0.055
-0.05
-0.03
-0.005
-0.045
-0.035
-0.045
-0.05
-0.06
-0.01
-0.05
-0.075
-0.055
-0.075
-0.075
-0.095
-0.06
-0.08
-0.1
-0.085
-0.1
-0.09
-0.11
-0.13
-0.105
-0.105
-0.08
-0.035
0.0
0.02
0.055
-0.005
-0.035
-0.045
-0.075
-0.15
-0.13
-0.13
-0.155
-0.145
-0.16
-0.12
0.53
1.27
0.79
-0.015
-0.355
-0.295
-0.27
-0.165
-0.115
-0.135
-0.105
-0.115
-0.095
-0.1
-0.11
-0.085
-0.09
-0.065
-0.045
-0.02
-0.015
-0.035
0.01
0.035
0.085
0.1
0.12
0.14
0.19
0.2
0.24
0.255
0.215
0.165
0.13
0.07
0.025
-0.035
-0.04
-0.025
-0.04
-0.035
-0.01
-0.035
-0.055
0.0
-0.01
-0.01
-0.03
-0.03
-0.085
-0.09
-0.06
-0.035
-0.07
-0.08
-0.06
-0.085
-0.1
-0.095
-0.085
-0.09
-0.07
-0.075
-0.11
-0.07
-0.04
-0.01
0.055
0.07
-0.02
-0.035
-0.085
-0.075
-0.14
-0.14
-0.115
-0.14
-0.155
-0.15
-0.115
0.535
1.27
0.69
-0.035
-0.35
-0.325
-0.29
-0.19
-0.095
-0.1
-0.085
-0.115
-0.085
-0.085
-0.09
-0.085
-0.065
-0.055
-0.045
-0.02
-0.01
0.02
0.035
0.045
0.08
0.09
0.135
0.11
0.175
0.215
0.245
0.23
0.22
0.175
0.105
0.065
0.045
0.015
-0.03
-0.045
-0.06
-0.04
-0.035
-0.045
-0.035
-0.05
-0.035
-0.045
-0.03
-0.04
-0.045
-0.045
-0.045
-0.05
-0.055
-0.07
-0.1
-0.085
-0.085
-0.09
-0.085
-0.08
-0.11
-0.09
-0.065
-0.085
-0.055
-0.025
0.0
0.0
0.095
0.06
-0.035
-0.045
-0.025
-0.08
-0.13
-0.135
-0.13
-0.13
-0.135
-0.17
0.11
0.955
1.035
0.41
-0.125
-0.33
-0.33
-0.245
-0.095
-0.115
-0.115
-0.08
-0.1
-0.11
-0.105
-0.07
-0.065
-0.055
-0.03
-0.04
-0.035
-0.015
-0.005
0.045
0.1
0.115
0.155
0.145
0.17
0.185
0.225
0.275
0.265
0.235
0.155
0.085
0.085
0.0
-0.01
-0.045
-0.02
-0.025
-0.055
-0.05
-0.065
-0.045
-0.02
0.015
-0.03
-0.045
-0.065
-0.08
-0.045
-0.055
-0.06
-0.09
-0.075
-0.095
-0.115
-0.14
-0.11
-0.06
-0.11
-0.075
-0.15
-0.105
-0.1
-0.065
0.0
-0.04
0.005
0.055
0.005
-0.02
-0.045
-0.095
-0.15
-0.14
-0.14
-0.145
-0.135
-0.165
-0.11
0.595
1.405
0.805
-0.05
-0.375
-0.35
-0.25
-0.195
-0.11
-0.08
-0.075
-0.055
-0.125
-0.105
-0.075
-0.055
-0.055
-0.03
-0.04
-0.02
0.03
0.045
0.02
0.045
0.12
0.15
0.15
0.175
0.22
0.225
0.265
0.295
0.255
0.13
0.125
0.115
0.0
-0.03
0.0
-0.015
-0.06
-0.05
-0.035
0.015
-0.085
-0.08
0.02
-0.01
-0.11
-0.03
-0.02
-0.115
-0.02
-0.08
-0.035
-0.145
-0.13
-0.065
-0.105
-0.08
-0.065
-0.035
-0.05
-0.125
-0.08
-0.11
-0.095
-0.035
-0.03
0.03
0.04
0.005
-0.025
0.0
-0.045
-0.09
-0.135
-0.12
-0.11
-0.115
-0.1
-0.175
0.265
1.265
1.125
0.205
-0.28
-0.265
-0.295
-0.245
-0.085
-0.1
-0.06
-0.09
-0.075
-0.04
-0.06
-0.03
-0.03
-0.085
-0.02
0.02
0.02
0.005
0.035
0.075
0.085
0.115
0.165
0.205
0.185
0.24
0.255
0.255
0.275
0.21
0.175
0.11
0.035
0.0
-0.02
-0.02
-0.04
-0.05
-0.045
-0.04
-0.03
-0.02
-0.025
-0.02
-0.015
-0.015
-0.065
-0.06
-0.045
-0.08
-0.085
-0.055
-0.03
-0.05
-0.055
-0.08
-0.07
-0.08
-0.105
-0.1
-0.09
-0.11
-0.075
-0.105
-0.085
-0.045
-0.02
-0.005
0.055
0.015
-0.015
-0.04
-0.065
-0.105
-0.145
-0.145
-0.155
-0.145
-0.155
-0.21
0.13
1.08
1.24
0.515
-0.17
-0.335
-0.28
-0.205
-0.085
-0.08
-0.14
-0.075
-0.065
-0.075
-0.05
-0.035
-0.025
-0.05
-0.025
-0.02
0.0
0.0
0.06
0.095
0.095
0.115
0.13
0.135
0.165
0.185
0.19
0.265
0.265
0.255
0.21
0.12
0.05
-0.015
0.015
-0.015
-0.045
-0.045
-0.05
-0.05
-0.05
-0.055
-0.075
-0.065
-0.02
-0.03
-0.085
-0.095
-0.06
-0.04
-0.07
-0.08
-0.105
-0.11
-0.08
-0.085
-0.115
-0.11
-0.14
-0.11
-0.125
-0.125
-0.085
-0.07
-0.025
0.04
0.06
0.09
0.0
-0.035
-0.04
-0.1
-0.12
-0.14
-0.12
-0.095
-0.12
-0.13
-0.215
0.345
1.325
1.125
0.295
-0.24
-0.285
-0.17
-0.165
-0.095
-0.11
-0.1
-0.095
-0.115
-0.09
-0.065
-0.065
-0.07
-0.06
-0.05
-0.02
-0.005
0.02
0.03
0.025
0.08
0.125
0.11
0.155
0.185
0.19
0.24
0.255
0.3
0.295
0.16
0.115
0.09
0.055
-0.025
-0.015
-0.01
-0.01
-0.05
-0.055
0.025
0.0
0.0
-0.025
-0.015
-0.05
0.005
-0.035
-0.055
-0.075
-0.025
-0.11
-0.06
0.01
-0.07
-0.075
-0.095
-0.095
-0.13
-0.085
-0.065
-0.105
0.025
-0.02
0.01
0.055
0.1
0.1
0.03
0.0
-0.135
-0.15
-0.095
-0.13
-0.125
-0.165
-0.16
-0.1
0.655
1.335
0.685
-0.06
-0.415
-0.38
-0.28
-0.135
-0.17
-0.055
-0.08
-0.07
-0.1
-0.135
-0.075
-0.095
-0.045
-0.045
-0.03
-0.03
-0.025
0.02
0.04
0.05
0.11
0.12
0.14
0.175
0.2
0.245
0.27
0.26
0.235
0.215
0.11
0.05
0.02
-0.03
0.0
-0.05
0.0
-0.065
-0.03
-0.055
-0.015
0.0
-0.06
-0.05
-0.045
-0.045
-0.045
0.01
-0.045
-0.03
-0.055
-0.05
-0.07
-0.065
-0.07
-0.065
0.0
-0.045
-0.1
-0.095
-0.055
-0.08
-0.005
0.045
0.02
0.075
0.065
-0.01
-0.03
-0.04
-0.085
-0.105
-0.105
-0.125
-0.115
-0.105
-0.205
0.14
1.115
1.215
0.395
-0.125
-0.305
-0.31
-0.21
-0.085
-0.095
-0.095
-0.085
-0.08
-0.08
-0.08
-0.05
-0.06
-0.055
-0.03
-0.02
0.005
0.015
0.055
0.09
0.08
0.11
0.115
0.16
0.145
0.205
0.24
0.255
0.245
0.22
0.16
0.09
0.085
0.015
-0.005
-0.03
-0.025
-0.05
-0.03
-0.055
-0.035
-0.03
-0.07
-0.035
-0.05
-0.07
-0.06
-0.05
-0.06
-0.065
-0.095
-0.085
-0.095
-0.11
-0.115
-0.075
-0.11
-0.125
-0.12
-0.115
-0.11
-0.115
-0.11
-0.11
-0.06
0.0
-0.03
0.0
0.03
-0.06
-0.065
-0.09
-0.06
-0.11
-0.185
-0.18
-0.145
-0.175
-0.18
-0.2
0.515
1.36
0.91
0.06
-0.33
-0.32
-0.285
-0.115
-0.125
-0.12
-0.12
-0.1
-0.075
-0.065
-0.11
-0.05
-0.03
-0.07
-0.045
-0.075
-0.02
0.015
0.025
0.06
0.095
0.105
0.07
0.155
0.225
0.245
0.24
0.205
0.185
0.15
0.15
0.045
0.06
0.01
-0.055
-0.08
-0.055
-0.085
-0.01
-0.01
-0.055
-0.115
-0.055
-0.015
-0.08
-0.03
-0.025
-0.07
-0.085
-0.09
-0.11
-0.095
-0.075
-0.15
-0.145
-0.095
-0.12
-0.14
-0.1
-0.1
-0.11
-0.11
-0.125
-0.04
-0.05
0.005
0.03
-0.005
-0.09
0.01
-0.09
-0.155
-0.105
-0.195
-0.15
-0.16
-0.135
-0.095
0.76
1.37
0.625
-0.105
-0.42
-0.37
-0.265
-0.14
-0.11
-0.125
-0.085
-0.08
-0.075
-0.07
-0.08
-0.05
-0.01
-0.01
-0.02
0.005
0.03
0.04
0.08
0.075
0.14
0.185
0.195
0.175
0.285
0.29
0.26
0.295
0.285
0.2
0.14
0.085
0.045
0.02
0.0
-0.04
-0.005
0.015
-0.025
-0.01
-0.045
-0.02
-0.02
0.0
-0.04
-0.03
-0.03
-0.035
-0.055
-0.045
-0.045
-0.065
-0.115
-0.09
-0.075
-0.085
-0.07
-0.085
-0.105
-0.115
-0.075
-0.1
-0.12
-0.09
0.0
-0.01
0.035
0.06
0.0
-0.035
-0.055
-0.105
-0.175
-0.15
-0.185
-0.165
-0.15
-0.19
-0.17
0.645
1.415
0.84
-0.045
-0.375
-0.36
-0.29
-0.145
-0.135
-0.115
-0.11
-0.11
-0.105
-0.095
-0.07
-0.075
-0.065
-0.07
-0.05
-0.03
-0.005
0.015
0.02
0.035
0.085
0.085
0.11
0.15
0.19
0.205
0.23
0.26
0.25
0.175
0.105
0.04
0.015
-0.005
-0.04
-0.015
-0.03
-0.01
-0.01
-0.035
-0.03
-0.045
-0.015
-0.005
-0.02
-0.05
-0.045
-0.015
-0.08
-0.085
-0.06
-0.08
-0.08
-0.09
-0.09
-0.05
-0.055
-0.11
-0.08
-0.12
-0.075
-0.08
-0.09
-0.055
-0.04
0.005
0.03
0.06
0.025
-0.03
-0.075
-0.02
-0.085
-0.14
-0.155
-0.16
-0.165
-0.14
-0.235
0.245
1.22
0.995
0.285
-0.2
-0.275
-0.305
-0.24
-0.085
-0.14
-0.14
-0.08
-0.09
-0.08
-0.065
-0.09
-0.08
-0.065
-0.02
-0.04
0.04
0.045
0.0
0.015
0.15
0.135
0.135
0.17
0.21
0.215
0.275
0.255
0.3
0.265
0.12
0.075
0.01
-0.045
-0.025
-0.055
-0.06
-0.01
-0.095
-0.03
-0.05
-0.075
-0.04
0.005
-0.04
-0.095
-0.06
-0.03
-0.055
-0.04
-0.075
-0.09
-0.13
-0.08
-0.06
-0.095
-0.115
-0.13
-0.105
-0.12
-0.085
-0.11
-0.03
-0.035
-0.015
0.005
0.065
0.045
-0.075
-0.04
-0.08
-0.125
-0.12
-0.135
-0.095
-0.125
-0.14
-0.135
0.675
1.51
0.73
-0.115
-0.395
-0.33
-0.245
-0.13
-0.09
-0.12
-0.1
-0.055
-0.06
-0.08
-0.05
-0.045
-0.04
-0.035
0.01
-0.015
0.0
0.04
0.055
0.065
0.125
0.15
0.145
0.17
0.23
0.23
0.255
0.28
0.25
0.185
0.13
0.075
0.01
-0.035
-0.015
-0.025
-0.025
-0.04
-0.04
-0.045
-0.025
-0.02
-0.015
-0.045
-0.055
-0.015
-0.045
-0.045
-0.055
-0.03
-0.085
-0.085
-0.045
-0.075
-0.095
-0.1
-0.08
-0.085
-0.095
-0.105
-0.12
-0.095
-0.08
-0.08
-0.05
-0.02
0.0
0.045
0.045
-0.03
-0.06
-0.06
-0.1
-0.14
-0.155
-0.155
-0.13
-0.155
-0.225
-0.07
0.845
1.32
0.69
-0.075
-0.39
-0.34
-0.265
-0.1
-0.11
-0.12
-0.09
-0.085
-0.095
-0.09
-0.09
-0.095
-0.07
-0.06
-0.06
-0.03
-0.005
0.005
0.035
0.06
0.085
0.1
0.135
0.165
0.21
0.235
0.24
0.25
0.22
0.2
0.105
0.045
0.02
-0.005
0.0
-0.03
-0.02
-0.025
-0.045
-0.045
-0.03
-0.02
-0.005
-0.04
-0.02
-0.02
-0.04
-0.03
-0.055
-0.055
-0.03
-0.09
-0.06
-0.085
-0.075
-0.065
-0.065
-0.065
-0.085
-0.065
-0.035
-0.08
-0.095
-0.03
0.0
0.045
0.115
0.08
-0.05
-0.03
-0.075
-0.095
-0.115
-0.115
-0.145
-0.125
-0.13
-0.205
0.105
1.135
1.08
0.31
-0.18
-0.375
-0.32
-0.26
-0.09
-0.12
-0.125
-0.08
-0.11
-0.125
-0.06
-0.1
-0.05
-0.02
-0.08
-0.015
-0.055
0.015
0.08
-0.02
0.035
0.04
0.21
0.195
0.18
0.26
0.235
0.31
0.21
0.21
0.195
0.06
0.0
0.025
0.01
-0.08
-0.04
-0.05
-0.02
0.005
-0.1
-0.03
-0.03
-0.13
-0.085
-0.065
-0.06
-0.085
0.02
-0.005
-0.14
-0.09
-0.12
-0.025
-0.09
-0.12
-0.1
-0.125
-0.065
-0.125
-0.075
-0.045
-0.065
-0.02
-0.03
-0.03
0.055
0.02
0.015
-0.015
-0.015
-0.05
-0.095
-0.14
-0.125
-0.08
-0.07
-0.175
0.45
1.495
0.97
0.035
-0.335
-0.285
-0.2
-0.185
-0.09
-0.055
-0.065
-0.055
-0.055
-0.04
-0.035
-0.025
-0.04
-0.025
-0.005
0.01
0.01
0.035
0.065
0.06
0.13
0.15
0.18
0.2
0.24
0.27
0.31
0.26
0.27
0.215
0.14
0.095
0.015
-0.015
-0.02
-0.02
-0.03
-0.04
-0.015
-0.05
-0.035
-0.035
-0.025
-0.01
-0.04
-0.015
-0.025
-0.05
-0.045
-0.035
-0.085
-0.06
-0.065
-0.085
-0.085
-0.08
-0.08
-0.08
-0.115
-0.1
-0.1
-0.105
-0.115
-0.09
-0.035
-0.025
0.02
0.05
0.02
-0.015
-0.04
-0.06
-0.095
-0.145
-0.16
-0.15
-0.14
-0.145
-0.2
0.01
0.915
1.335
0.605
-0.135
-0.38
-0.33
-0.265
-0.12
-0.12
-0.13
-0.12
-0.13
-0.105
-0.115
-0.08
-0.08
-0.07
-0.045
-0.025
-0.02
-0.01
0.005
0.05
0.075
0.1
0.13
0.17
0.135
0.21
0.22
0.275
0.25
0.205
0.155
0.095
0.065
0.005
0.005
-0.045
-0.045
-0.045
-0.04
-0.035
-0.04
-0.025
-0.03
-0.045
-0.05
-0.065
-0.045
-0.06
-0.06
-0.085
-0.05
-0.055
-0.09
-0.055
-0.105
-0.085
-0.08
-0.1
-0.11
-0.12
-0.12
-0.135
-0.11
-0.07
-0.025
-0.035
0.0
0.04
0.01
-0.035
-0.05
-0.075
-0.125
-0.15
-0.165
-0.16
-0.17
-0.145
-0.23
0.28
1.305
1.165
0.25
-0.275
-0.315
-0.265
-0.135
-0.105
-0.115
-0.095
-0.09
-0.1
-0.09
-0.09
-0.05
-0.02
-0.07
-0.045
-0.03
0.0
-0.005
0.04
0.02
0.075
0.1
0.125
0.135
0.175
0.2
0.24
0.245
0.23
0.2
0.16
0.075
0.015
-0.025
-0.035
-0.045
-0.065
-0.045
-0.04
-0.05
-0.055
-0.03
-0.055
-0.05
-0.07
-0.055
-0.08
-0.11
-0.11
-0.115
-0.095
-0.1
-0.105
-0.105
-0.085
-0.085
-0.105
-0.06
-0.055
-0.015
-0.09
-0.115
-0.08
-0.03
-0.01
-0.01
0.08
0.0
-0.025
-0.045
-0.05
-0.12
-0.14
-0.14
-0.13
-0.12
-0.175
-0.23
0.19
1.12
1.01
0.255
-0.305
-0.36
-0.2
-0.1
-0.04
-0.155
-0.13
-0.11
-0.13
-0.1
-0.065
-0.065
-0.08
-0.04
-0.04
-0.03
-0.035
-0.015
0.005
0.11
0.13
0.075
0.11
0.105
0.155
0.17
0.21
0.22
0.24
0.21
0.14
0.05
0.065
0.015
-0.01
-0.025
-0.035
-0.035
-0.02
-0.035
-0.015
-0.015
-0.035
0.0
-0.015
-0.03
-0.055
-0.065
-0.035
-0.08
-0.16
-0.115
-0.09
-0.075
-0.065
-0.08
-0.075
-0.085
-0.075
-0.1
-0.065
-0.04
-0.01
0.005
0.045
0.07
0.085
0.035
-0.005
-0.015
-0.08
-0.115
-0.14
-0.15
-0.13
-0.13
-0.13
-0.09
0.58
1.225
0.715
-0.075
-0.375
-0.29
-0.2
-0.095
-0.07
-0.085
-0.07
-0.075
-0.065
-0.065
-0.075
-0.065
-0.085
-0.04
-0.05
-0.03
0.015
0.025
0.02
0.03
0.025
0.04
0.1
0.105
0.145
0.21
0.195
0.2
0.255
0.185
0.155
0.1
0.13
0.085
0.035
0.05
0.04
0.07
0.085
0.04
0.04
0.065
0.035
0.035
0.015
0.04
0.0
-0.005
-0.02
-0.01
-0.01
-0.065
-0.03
-0.04
-0.035
-0.005
-0.03
-0.015
-0.005
-0.09
-0.03
-0.005
0.005
0.035
0.045
0.145
0.02
0.015
-0.02
-0.07
-0.085
-0.09
-0.165
-0.135
-0.14
-0.095
-0.04
0.59
1.26
0.46
-0.175
-0.445
-0.385
-0.31
-0.2
-0.085
-0.135
-0.11
-0.13
-0.12
-0.07
-0.09
-0.07
-0.02
-0.08
-0.04
-0.025
-0.005
0.03
0.02
0.02
0.085
0.095
0.13
0.175
0.22
0.26
0.265
0.24
0.215
0.175
0.115
0.06
0.015
-0.01
-0.02
-0.015
-0.06
-0.04
-0.05
-0.05
-0.035
-0.035
-0.025
-0.05
-0.04
-0.03
-0.045
-0.06
-0.045
-0.06
-0.05
-0.065
-0.075
-0.065
-0.075
-0.085
-0.08
-0.09
-0.07
-0.1
-0.045
0.0
-0.01
0.01
0.065
0.055
-0.02
-0.02
-0.06
-0.11
-0.115
-0.11
-0.09
-0.125
-0.11
-0.175
0.33
1.22
0.88
0.17
-0.235
-0.295
-0.275
-0.225
-0.095
-0.095
-0.11
-0.095
-0.045
-0.075
-0.095
-0.09
-0.1
-0.085
-0.04
-0.03
-0.02
0.0
0.025
0.035
0.055
0.09
0.11
0.13
0.125
0.2
0.235
0.2
0.18
0.125
0.1
0.045
0.01
-0.015
-0.045
0.02
-0.075
-0.04
-0.035
-0.1
-0.035
-0.055
-0.055
-0.095
-0.01
-0.05
-0.09
-0.11
-0.085
-0.055
-0.125
-0.055
-0.13
-0.11
-0.125
-0.105
-0.1
-0.1
-0.12
-0.095
-0.03
-0.04
-0.05
-0.01
0.06
0.04
0.01
-0.05
-0.06
-0.095
-0.15
-0.145
-0.145
-0.135
-0.155
-0.175
0.05
0.935
1.19
0.485
-0.09
-0.3
-0.26
-0.28
-0.11
-0.12
-0.115
-0.09
-0.09
-0.065
-0.075
-0.045
-0.04
-0.045
-0.045
0.05
-0.05
-0.025
0.03
0.055
0.03
0.11
0.135
0.14
0.175
0.165
0.18
0.225
0.285
0.21
0.15
0.06
0.055
-0.04
-0.03
-0.035
-0.045
-0.035
-0.055
-0.025
-0.06
-0.035
-0.03
-0.045
-0.075
-0.06
-0.03
-0.085
-0.035
-0.05
-0.045
-0.025
-0.085
-0.135
-0.085
-0.1
-0.14
-0.145
-0.105
-0.085
-0.125
-0.065
-0.07
-0.025
0.015
0.04
0.0
-0.02
-0.06
-0.03
-0.09
-0.165
-0.2
-0.165
-0.16
-0.145
-0.2
0.135
1.085
1.22
0.5
-0.165
-0.26
-0.2
-0.175
-0.095
-0.135
-0.115
-0.105
-0.125
-0.12
-0.115
-0.085
-0.065
-0.05
-0.055
-0.04
-0.03
0.01
0.035
0.025
0.075
0.065
0.11
0.14
0.155
0.14
0.2
0.25
0.215
0.185
0.1
0.025
0.03
-0.035
-0.02
-0.035
-0.04
-0.025
-0.025
-0.025
-0.025
-0.025
-0.025
-0.025
-0.03
-0.025
-0.025
-0.03
-0.05
-0.05
-0.055
-0.045
-0.065
-0.07
-0.085
-0.105
-0.11
-0.11
-0.12
-0.095
-0.11
-0.025
-0.025
-0.04
0.0
0.055
0.0
-0.05
-0.03
-0.05
-0.095
-0.145
-0.15
-0.135
-0.115
-0.12
-0.19
0.34
1.26
1.005
0.285
-0.17
-0.23
-0.185
-0.145
-0.09
-0.11
-0.105
-0.095
-0.075
-0.085
-0.09
-0.08
-0.075
-0.04
-0.025
-0.015
0.005
0.02
0.02
0.035
0.075
0.12
0.105
0.11
0.16
0.205
0.21
0.235
0.22
0.155
0.11
0.08
0.035
-0.02
-0.02
-0.015
-0.045
-0.045
-0.04
-0.055
-0.035
-0.06
-0.03
-0.04
-0.065
-0.05
-0.035
-0.07
-0.08
-0.06
-0.08
-0.09
-0.095
-0.11
-0.085
-0.105
-0.11
-0.105
-0.095
-0.085
-0.04
-0.045
-0.01
0.005
0.01
-0.015
-0.025
-0.015
-0.07
-0.13
-0.155
-0.15
-0.16
-0.15
-0.145
-0.2
0.37
1.27
0.965
0.24
-0.2
-0.22
-0.225
-0.18
-0.11
-0.105
-0.095
-0.105
-0.065
-0.065
-0.07
-0.085
-0.09
-0.07
-0.05
-0.045
-0.02
0.0
0.03
0.04
0.06
0.095
0.13
0.155
0.18
0.185
0.215
0.225
0.2
0.155
0.11
0.035
0.015
-0.015
0.0
-0.025
-0.04
-0.04
-0.055
-0.04
-0.045
-0.035
-0.045
-0.035
-0.05
-0.05
-0.055
-0.05
-0.07
-0.07
-0.075
-0.08
-0.07
-0.095
-0.12
-0.1
-0.11
-0.11
-0.095
-0.095
-0.055
-0.025
0.005
0.02
0.035
0.0
-0.005
-0.065
-0.07
-0.155
-0.145
-0.145
-0.155
-0.14
-0.14
-0.215
0.32
1.26
1.035
0.28
-0.185
-0.205
-0.23
-0.195
-0.125
-0.115
-0.105
-0.11
-0.115
-0.085
-0.065
-0.08
-0.065
-0.075
-0.065
-0.02
-0.03
0.0
0.0
0.045
0.07
0.09
0.1
0.105
0.17
0.195
0.21
0.235
0.215
0.18
0.1
0.045
0.0
-0.03
-0.005
-0.035
-0.05
-0.065
-0.045
-0.055
-0.03
-0.01
-0.025
-0.015
-0.035
-0.06
-0.065
-0.06
-0.065
-0.055
-0.075
-0.1
-0.08
-0.08
-0.09
-0.095
-0.095
-0.085
-0.095
-0.085
-0.055
-0.055
0.0
0.035
0.03
-0.005
-0.035
-0.015
-0.06
-0.115
-0.145
-0.145
-0.18
-0.185
-0.195
-0.21
0.505
1.34
0.9
0.11
-0.295
-0.285
-0.245
-0.12
-0.09
-0.115
-0.12
-0.12
-0.095
-0.11
-0.08
-0.095
-0.08
-0.075
-0.025
-0.03
-0.01
0.03
0.055
0.02
0.04
0.09
0.13
0.14
0.165
0.235
0.25
0.225
0.205
0.16
0.115
0.075
-0.01
-0.035
-0.035
-0.05
-0.055
-0.035
-0.035
-0.035
-0.015
-0.01
-0.03
-0.04
-0.035
-0.05
-0.08
-0.06
-0.075
-0.08
-0.095
-0.09
-0.1
-0.065
-0.075
-0.09
-0.095
-0.095
-0.105
-0.06
-0.035
-0.02
0.045
0.05
0.0
-0.03
-0.045
-0.08
-0.13
-0.145
-0.155
-0.14
-0.145
-0.13
-0.21
0.265
1.185
0.905
0.265
-0.16
-0.265
-0.225
-0.225
-0.105
-0.105
-0.085
-0.095
-0.075
-0.095
-0.08
-0.1
-0.075
-0.07
-0.07
-0.025
-0.02
-0.025
0.02
0.05
0.05
0.085
0.105
0.125
0.135
0.175
0.2
0.21
0.2
0.175
0.105
0.05
0.01
-0.015
-0.03
-0.045
-0.02
-0.02
-0.06
-0.07
-0.02
-0.045
-0.06
-0.03
-0.04
-0.055
-0.07
-0.08
-0.075
-0.075
-0.065
-0.075
-0.095
-0.11
-0.13
-0.11
-0.105
-0.095
-0.08
-0.04
-0.015
0.0
0.035
0.055
0.01
-0.06
-0.045
-0.08
-0.13
-0.12
-0.135
-0.115
-0.115
-0.155
-0.085
0.595
1.22
0.705
0.085
-0.265
-0.3
-0.265
-0.14
-0.095
-0.115
-0.06
-0.085
-0.08
-0.095
-0.075
-0.07
-0.075
-0.045
-0.025
-0.035
-0.015
0.005
0.03
0.035
0.075
0.09
0.115
0.125
0.165
0.225
0.23
0.245
0.195
0.14
0.075
0.025
0.0
-0.02
-0.02
-0.035
-0.05
-0.05
-0.035
-0.035
-0.03
-0.02
-0.045
-0.045
-0.03
-0.06
-0.06
-0.06
-0.07
-0.055
-0.085
-0.075
-0.09
-0.075
-0.075
-0.085
-0.105
-0.095
-0.1
-0.07
-0.025
0.01
0.02
0.05
0.025
-0.005
-0.05
-0.035
-0.095
-0.125
-0.13
-0.15
-0.155
-0.135
-0.145
-0.005
0.755
1.12
0.65
0.0
-0.31
-0.275
-0.26
-0.095
-0.08
-0.115
-0.095
-0.085
-0.085
-0.08
-0.075
-0.075
-0.055
-0.04
0.0
-0.005
0.01
0.005
0.045
0.045
0.07
0.095
0.17
0.17
0.16
0.235
0.245
0.26
0.205
0.12
0.055
0.01
-0.01
-0.025
-0.02
-0.045
-0.055
-0.08
-0.085
-0.03
-0.055
-0.07
-0.025
-0.01
-0.04
-0.085
-0.085
-0.045
-0.065
-0.095
-0.055
-0.08
-0.085
-0.12
-0.095
-0.04
-0.07
-0.085
-0.1
-0.04
-0.025
0.0
0.08
0.02
-0.02
-0.035
-0.085
-0.065
-0.175
-0.13
-0.175
-0.105
-0.145
-0.18
-0.005
0.885
1.175
0.435
-0.115
-0.36
-0.28
-0.3
-0.16
-0.14
-0.16
-0.09
-0.135
-0.04
-0.085
-0.12
-0.065
-0.06
-0.005
-0.05
-0.035
-0.01
0.115
0.025
0.055
0.15
0.1
0.17
0.2
0.22
0.315
0.285
0.21
0.21
0.17
0.05
-0.02
-0.015
-0.06
-0.015
-0.01
-0.06
-0.14
-0.015
-0.025
-0.12
0.025
0.02
-0.035
-0.195
0.1
-0.01
-0.125
-0.01
-0.025
-0.08
-0.09
-0.035
-0.055
-0.15
-0.1
-0.105
-0.04
0.16
-0.215
0.0
0.06
0.02
0.0
-0.03
0.01
-0.085
-0.04
0.07
-0.355
-0.185
0.025
-0.285
-0.06
0.045
1.105
1.19
0.3
-0.2
-0.535
-0.32
-0.27
-0.095
-0.125
-0.085
-0.105
-0.095
-0.075
-0.045
-0.03
-0.06
-0.01
-0.025
0.005
0.03
0.04
0.105
0.065
0.095
0.255
0.18
0.215
0.285
0.32
0.31
0.265
0.36
0.205
0.115
0.14
-0.025
0.0
-0.03
-0.1
-0.07
-0.01
-0.065
-0.075
-0.03
-0.015
0.005
-0.055
-0.03
-0.04
-0.055
0.005
0.0
-0.075
-0.05
-0.045
-0.095
-0.055
-0.075
-0.045
-0.095
-0.09
-0.07
-0.1
-0.095
-0.15
-0.065
-0.02
0.005
0.0
-0.02
0.065
-0.05
-0.055
-0.04
-0.08
-0.125
-0.17
-0.15
-0.165
-0.11
-0.19
0.05
1.02
1.425
0.48
-0.21
-0.37
-0.265
-0.225
-0.11
-0.095
-0.09
-0.09
-0.115
-0.07
-0.085
-0.035
-0.055
-0.03
-0.01
-0.03
0.055
-0.02
0.01
0.055
0.045
0.125
0.13
0.135
0.14
0.22
0.24
0.19
0.26
0.185
0.15
0.115
-0.05
-0.02
-0.01
-0.02
-0.065
-0.015
-0.015
-0.03
-0.055
-0.005
0.025
0.005
-0.06
-0.02
-0.01
-0.07
-0.02
-0.03
-0.065
-0.06
-0.08
-0.03
-0.085
-0.065
-0.055
-0.145
-0.095
-0.075
-0.12
-0.105
-0.09
-0.09
-0.04
-0.045
-0.045
0.03
-0.02
0.015
0.015
-0.07
-0.055
-0.145
-0.145
-0.125
-0.125
-0.165
-0.17
-0.205
0.495
1.595
1.16
-0.04
-0.285
-0.25
-0.17
-0.115
-0.13
-0.1
-0.13
-0.1
-0.105
-0.09
-0.06
-0.105
-0.03
-0.045
-0.015
-0.015
-0.02
-0.01
-0.005
0.05
0.055
0.08
0.075
0.14
0.13
0.19
0.195
0.215
0.18
0.16
0.09
0.005
0.025
-0.01
-0.01
-0.045
0.0
-0.05
-0.035
-0.01
-0.04
0.0
0.025
-0.045
-0.04
-0.035
-0.01
-0.04
-0.065
-0.045
-0.06
-0.105
-0.085
-0.06
-0.095
-0.075
-0.12
-0.055
-0.125
-0.125
-0.105
-0.12
-0.1
-0.08
-0.12
-0.105
-0.08
0.005
-0.025
-0.035
0.07
-0.02
-0.075
-0.09
-0.065
-0.11
-0.165
-0.175
-0.155
-0.15
-0.16
-0.21
0.62
1.63
1.105
-0.17
-0.35
-0.21
-0.17
-0.105
-0.145
-0.1
-0.125
-0.105
-0.09
-0.09
-0.08
-0.05
-0.03
-0.05
-0.075
0.01
0.01
-0.01
0.03
0.06
0.04
0.08
0.11
0.12
0.165
0.19
0.245
0.22
0.225
0.18
0.1
0.05
0.045
-0.02
-0.005
0.015
-0.01
-0.005
0.02
-0.005
0.005
0.005
0.0
0.01
-0.035
-0.03
-0.055
-0.04
-0.065
-0.065
-0.055
-0.055
-0.08
-0.04
-0.09
-0.05
-0.12
-0.1
-0.06
-0.145
-0.085
-0.1
-0.09
-0.095
-0.06
-0.11
-0.135
-0.1
-0.04
-0.01
-0.005
0.015
0.03
-0.03
-0.015
-0.095
-0.12
-0.13
-0.135
-0.155
-0.115
-0.13
-0.225
0.315
1.355
1.315
0.25
-0.31
-0.29
-0.145
-0.11
-0.11
-0.125
-0.085
-0.08
-0.115
-0.06
-0.08
-0.07
-0.07
-0.075
-0.03
0.0
0.0
-0.005
0.025
0.015
0.07
0.085
0.09
0.155
0.15
0.16
0.215
0.215
0.225
0.185
0.125
0.065
0.07
0.0
-0.015
0.005
0.0
-0.01
-0.01
0.0
-0.01
-0.025
0.0
0.005
-0.015
-0.06
-0.045
-0.02
-0.045
-0.02
-0.085
-0.06
-0.07
-0.09
-0.08
-0.105
-0.075
-0.06
-0.09
-0.09
-0.115
-0.11
-0.08
-0.06
-0.115
-0.1
-0.09
-0.1
-0.09
-0.085
-0.075
-0.015
-0.01
0.03
0.035
-0.03
-0.02
-0.04
-0.105
-0.135
-0.15
-0.145
-0.13
-0.14
-0.225
0.21
1.315
1.34
0.275
-0.33
-0.285
-0.15
-0.125
-0.07
-0.11
-0.1
-0.13
-0.11
-0.105
-0.07
-0.055
-0.075
-0.05
-0.03
-0.025
0.0
-0.015
0.02
0.07
0.025
0.045
0.095
0.115
0.135
0.18
0.2
0.255
0.255
0.21
0.14
0.09
0.035
0.005
-0.015
0.025
-0.03
-0.04
-0.015
-0.025
0.0
-0.015
-0.01
-0.04
0.0
-0.025
-0.03
-0.055
-0.05
-0.04
-0.08
-0.09
-0.095
-0.065
-0.08
-0.07
-0.045
-0.1
-0.08
-0.065
-0.08
-0.08
-0.12
-0.09
-0.105
-0.095
-0.12
-0.09
-0.085
-0.13
-0.1
-0.03
0.005
0.0
0.025
0.065
-0.035
-0.075
-0.045
-0.125
-0.165
-0.165
-0.145
-0.14
-0.14
-0.22
0.31
1.41
1.3
0.14
-0.32
-0.29
-0.165
-0.095
-0.095
-0.115
-0.12
-0.09
-0.08
-0.09
-0.065
-0.045
-0.05
-0.045
-0.07
-0.045
-0.02
0.02
0.015
0.015
0.065
0.075
0.095
0.115
0.165
0.23
0.27
0.255
0.24
0.22
0.15
0.075
0.045
0.01
0.015
-0.015
-0.01
-0.025
0.005
0.025
-0.025
0.0
-0.045
-0.025
-0.04
-0.03
-0.035
-0.05
-0.05
-0.05
-0.04
-0.065
-0.06
-0.06
-0.075
-0.065
-0.09
-0.075
-0.085
-0.085
-0.09
-0.1
-0.09
-0.105
-0.095
-0.085
-0.085
-0.1
-0.11
-0.09
-0.105
-0.06
0.005
0.0
0.005
0.04
-0.03
-0.055
-0.06
-0.105
-0.155
-0.14
-0.145
-0.155
-0.155
-0.26
0.415
1.485
1.185
0.005
-0.355
-0.26
-0.16
-0.115
-0.105
-0.105
-0.095
-0.115
-0.11
-0.085
-0.09
-0.07
-0.08
-0.07
-0.05
-0.025
-0.01
0.005
0.035
0.035
0.05
0.085
0.1
0.14
0.155
0.225
0.26
0.265
0.25
0.205
0.17
0.075
0.04
0.025
0.035
0.005
-0.04
0.0
-0.02
-0.01
-0.01
-0.005
0.0
-0.02
-0.025
-0.03
-0.01
-0.015
-0.03
-0.03
-0.045
-0.08
-0.08
-0.085
-0.075
-0.065
-0.08
-0.085
-0.095
-0.1
-0.085
-0.1
-0.1
-0.08
-0.08
-0.115
-0.11
-0.105
-0.115
-0.115
-0.105
-0.02
0.03
0.015
0.035
0.05
-0.055
-0.025
-0.115
-0.14
-0.16
-0.17
-0.165
-0.13
-0.15
-0.15
0.74
1.535
0.94
-0.17
-0.345
-0.235
-0.14
-0.115
-0.095
-0.115
-0.11
-0.09
-0.095
-0.08
-0.07
-0.07
-0.05
-0.03
-0.025
0.0
-0.015
0.01
0.02
0.05
0.065
0.08
0.13
0.175
0.195
0.26
0.29
0.28
0.25
0.185
0.125
0.075
0.015
-0.01
-0.005
-0.035
-0.01
-0.025
-0.005
0.005
-0.01
-0.02
-0.02
-0.02
-0.045
-0.065
-0.04
-0.06
-0.065
-0.035
-0.05
-0.085
-0.075
-0.06
-0.075
-0.085
-0.065
-0.075
-0.09
-0.095
-0.105
-0.105
-0.11
-0.09
-0.09
-0.085
-0.09
-0.105
-0.1
-0.09
-0.07
0.0
0.015
0.015
0.06
-0.035
-0.04
-0.09
-0.12
-0.145
-0.17
-0.135
-0.12
-0.145
-0.195
0.435
1.475
1.17
-0.025
-0.355
-0.28
-0.145
-0.11
-0.105
-0.095
-0.11
-0.115
-0.09
-0.05
-0.07
-0.085
-0.075
-0.065
-0.045
-0.005
-0.015
0.025
0.025
0.025
0.065
0.095
0.12
0.16
0.215
0.265
0.27
0.29
0.25
0.195
0.155
0.065
0.055
0.01
-0.015
0.0
-0.035
-0.03
-0.025
-0.005
-0.04
-0.015
-0.035
-0.045
-0.035
-0.035
-0.06
-0.04
-0.045
-0.055
-0.06
-0.095
-0.065
-0.075
-0.09
-0.095
-0.1
-0.08
-0.095
-0.105
-0.08
-0.11
-0.105
-0.09
-0.085
-0.105
-0.115
-0.115
-0.11
-0.1
-0.085
-0.005
0.0
0.005
0.06
-0.055
-0.015
-0.055
-0.135
-0.155
-0.13
-0.165
-0.16
-0.145
-0.215
0.475
1.475
1.16
-0.1
-0.39
-0.28
-0.155
-0.065
-0.065
-0.115
-0.13
-0.12
-0.115
-0.085
-0.085
-0.075
-0.09
-0.055
-0.045
-0.03
-0.015
0.015
0.035
0.04
0.06
0.09
0.135
0.175
0.215
0.28
0.31
0.32
0.29
0.2
0.13
0.09
0.055
-0.005
0.0
-0.01
0.0
-0.035
-0.055
-0.02
-0.015
0.0
-0.03
-0.03
-0.02
-0.015
-0.05
-0.06
-0.055
-0.05
-0.07
-0.085
-0.07
-0.07
-0.1
-0.095
-0.085
-0.09
-0.06
-0.08
-0.08
-0.11
-0.13
-0.12
-0.09
-0.115
-0.105
-0.12
-0.105
-0.11
-0.065
0.0
0.035
0.035
0.05
-0.045
-0.025
-0.095
-0.125
-0.155
-0.17
-0.15
-0.15
-0.185
-0.165
0.635
1.525
1.055
-0.185
-0.385
-0.25
-0.175
-0.075
-0.085
-0.125
-0.14
-0.095
-0.115
-0.1
-0.1
-0.055
-0.04
-0.05
-0.025
-0.025
-0.035
0.0
0.015
0.055
0.1
0.1
0.145
0.215
0.23
0.28
0.33
0.335
0.295
0.2
0.14
0.06
0.01
0.0
-0.02
-0.01
-0.005
-0.02
-0.02
0.005
-0.025
-0.005
-0.01
-0.005
-0.01
-0.075
-0.055
-0.02
-0.045
-0.055
-0.06
-0.055
-0.07
-0.08
-0.07
-0.085
-0.09
-0.06
-0.09
-0.095
-0.115
-0.1
-0.11
-0.115
-0.1
-0.105
-0.085
-0.1
-0.085
-0.015
-0.01
0.0
0.0
0.045
-0.06
-0.04
-0.1
-0.145
-0.145
-0.15
-0.155
-0.14
-0.185
-0.045
0.875
1.47
0.75
-0.305
-0.37
-0.24
-0.13
-0.105
-0.12
-0.115
-0.125
-0.11
-0.11
-0.09
-0.115
-0.04
-0.095
-0.085
-0.055
-0.03
-0.02
0.0
0.02
0.045
0.085
0.135
0.15
0.19
0.245
0.285
0.305
0.295
0.245
0.16
0.115
0.035
-0.015
-0.005
-0.01
0.0
-0.03
-0.01
-0.025
0.0
-0.03
-0.065
-0.03
-0.01
-0.03
-0.035
-0.045
-0.07
-0.06
-0.065
-0.06
-0.065
-0.075
-0.085
-0.11
-0.1
-0.105
-0.11
-0.095
-0.085
-0.095
-0.125
-0.12
-0.095
-0.105
-0.13
-0.1
-0.09
-0.07
-0.005
-0.01
-0.015
0.025
-0.05
-0.05
-0.095
-0.115
-0.165
-0.155
-0.15
-0.165
-0.16
-0.24
0.445
1.485
1.185
-0.12
-0.41
-0.285
-0.145
-0.075
-0.095
-0.125
-0.115
-0.115
-0.13
-0.105
-0.1
-0.11
-0.075
-0.055
-0.065
-0.045
-0.045
-0.005
0.015
0.055
0.055
0.1
0.135
0.195
0.205
0.255
0.29
0.285
0.275
0.19
0.13
0.065
0.04
-0.015
-0.04
-0.06
-0.035
-0.04
-0.045
-0.055
-0.04
-0.045
-0.03
-0.025
-0.07
-0.05
-0.025
-0.04
-0.07
-0.055
-0.09
-0.08
-0.105
-0.1
-0.1
-0.095
-0.115
-0.095
-0.115
-0.115
-0.085
-0.095
-0.115
-0.12
-0.135
-0.11
-0.105
-0.12
-0.02
-0.015
0.005
0.035
-0.025
-0.06
-0.055
-0.11
-0.145
-0.17
-0.16
-0.15
-0.135
-0.245
0.23
1.285
1.31
0.2
-0.34
-0.29
-0.165
-0.085
-0.085
-0.14
-0.11
-0.105
-0.095
-0.115
-0.115
-0.09
-0.065
-0.06
-0.06
-0.015
-0.015
0.01
0.015
0.04
0.055
0.105
0.135
0.165
0.21
0.27
0.305
0.295
0.27
0.22
0.13
0.085
0.03
-0.03
-0.04
-0.025
-0.025
-0.07
-0.055
-0.05
-0.05
-0.03
-0.02
-0.035
-0.045
-0.04
-0.06
-0.07
-0.05
-0.085
-0.065
-0.1
-0.105
-0.09
-0.115
-0.095
-0.09
-0.115
-0.1
-0.09
-0.105
-0.11
-0.125
-0.12
-0.115
-0.105
-0.125
-0.09
-0.02
-0.01
0.02
0.065
0.0
-0.04
-0.075
-0.105
-0.15
-0.17
-0.175
-0.155
-0.17
-0.24
0.38
1.465
1.205
-0.02
-0.37
-0.29
-0.17
-0.105
-0.11
-0.095
-0.12
-0.14
-0.115
-0.14
-0.105
-0.09
-0.065
-0.04
-0.035
-0.045
-0.035
0.015
0.005
0.025
0.065
0.105
0.15
0.18
0.24
0.28
0.325
0.31
0.275
0.215
0.145
0.09
0.02
-0.035
-0.035
-0.03
-0.03
-0.035
-0.015
-0.02
-0.025
-0.04
-0.02
-0.015
-0.04
-0.015
-0.045
-0.065
-0.06
-0.065
-0.085
-0.08
-0.075
-0.075
-0.075
-0.085
-0.095
-0.095
-0.095
-0.11
-0.11
-0.12
-0.095
-0.125
-0.105
-0.105
-0.055
-0.02
0.005
0.025
0.04
-0.035
-0.045
-0.065
-0.14
-0.195
-0.14
-0.17
-0.16
-0.165
-0.185
0.56
1.525
1.085
-0.18
-0.39
-0.245
-0.14
-0.1
-0.115
-0.135
-0.13
-0.12
-0.11
-0.09
-0.105
-0.095
-0.105
-0.045
-0.02
-0.025
-0.015
0.0
0.005
0.02
0.065
0.115
0.14
0.185
0.24
0.29
0.315
0.29
0.28
0.165
0.13
0.02
0.005
0.025
-0.035
-0.025
-0.025
-0.015
-0.095
-0.025
-0.03
-0.03
0.01
0.01
-0.045
-0.07
-0.105
-0.03
-0.105
0.03
0.0
-0.11
-0.16
-0.145
-0.055
-0.04
-0.115
-0.145
-0.055
-0.135
-0.115
-0.065
-0.11
-0.115
-0.13
-0.07
-0.025
-0.04
0.04
0.01
-0.005
-0.005
-0.035
-0.115
-0.115
-0.14
-0.145
-0.135
-0.115
-0.185
0.015
0.925
1.35
0.54
-0.15
-0.185
-0.285
-0.2
-0.07
-0.045
-0.17
-0.115
-0.085
-0.135
-0.11
-0.095
-0.06
-0.065
-0.04
-0.05
-0.07
0.0
0.0
0.04
0.11
0.115
0.19
0.195
0.205
0.305
0.375
0.345
0.335
0.24
0.205
0.105
0.02
0.04
-0.01
-0.04
0.0
-0.01
-0.045
-0.035
-0.045
-0.045
0.0
-0.055
0.0
-0.01
-0.08
-0.03
-0.04
-0.035
-0.12
-0.095
-0.075
-0.08
-0.09
-0.06
-0.08
-0.095
-0.12
-0.09
-0.095
-0.105
-0.1
-0.115
-0.08
-0.04
-0.04
-0.055
0.02
0.0
-0.05
-0.06
-0.09
-0.15
-0.13
-0.17
-0.145
-0.14
-0.17
0.155
0.97
1.205
0.45
-0.025
-0.29
-0.355
-0.295
-0.15
-0.11
-0.12
-0.13
-0.145
-0.11
-0.1
-0.09
-0.065
-0.06
-0.08
-0.04
-0.025
-0.03
0.0
0.025
0.055
0.115
0.125
0.185
0.23
0.305
0.3
0.325
0.31
0.225
0.16
0.09
0.03
-0.02
-0.025
-0.035
-0.05
-0.075
-0.045
-0.05
-0.065
-0.065
-0.055
-0.055
-0.05
-0.065
-0.09
-0.065
-0.06
-0.09
-0.095
-0.09
-0.09
-0.105
-0.085
-0.085
-0.12
-0.115
-0.12
-0.14
-0.115
-0.11
-0.05
-0.035
-0.045
-0.01
0.005
-0.04
-0.08
-0.075
-0.15
-0.165
-0.16
-0.145
-0.18
-0.17
-0.175
0.58
1.465
0.89
0.11
-0.245
-0.285
-0.3
-0.25
-0.12
-0.13
-0.15
-0.135
-0.125
-0.12
-0.09
-0.075
-0.06
-0.07
-0.06
-0.04
-0.015
0.015
0.02
0.06
0.07
0.105
0.14
0.17
0.205
0.24
0.265
0.25
0.25
0.19
0.13
0.04
0.0
-0.01
-0.035
-0.03
-0.04
-0.045
-0.045
-0.035
-0.06
-0.035
-0.05
-0.045
-0.035
-0.045
-0.065
-0.045
-0.065
-0.08
-0.075
-0.105
-0.11
-0.115
-0.115
-0.11
-0.105
-0.095
-0.1
-0.08
-0.045
-0.02
-0.015
0.04
-0.03
-0.06
-0.06
-0.09
-0.14
-0.155
-0.16
-0.15
-0.14
-0.16
-0.09
0.615
1.31
0.795
0.035
-0.32
-0.34
-0.285
-0.175
-0.12
-0.135
-0.1
-0.12
-0.11
-0.105
-0.09
-0.085
-0.09
-0.07
-0.045
-0.025
-0.015
0.01
0.03
0.06
0.085
0.12
0.16
0.195
0.24
0.24
0.245
0.235
0.21
0.145
0.05
0.005
-0.005
-0.025
-0.045
-0.045
-0.045
-0.06
-0.055
-0.055
-0.025
-0.055
-0.07
-0.055
-0.04
-0.055
-0.065
-0.075
-0.05
-0.075
-0.095
-0.09
-0.095
-0.095
-0.095
-0.11
-0.115
-0.095
-0.06
-0.06
-0.02
0.035
0.02
-0.05
-0.06
-0.07
-0.085
-0.16
-0.18
-0.13
-0.15
-0.175
-0.2
0.06
0.775
1.085
0.58
-0.025
-0.35
-0.35
-0.275
-0.21
-0.14
-0.155
-0.13
-0.14
-0.14
-0.13
-0.12
-0.11
-0.085
-0.065
-0.065
-0.065
0.0
0.04
0.055
0.065
0.13
0.185
0.21
0.26
0.3
0.355
0.295
0.26
0.2
0.135
0.045
0.01
-0.025
-0.06
-0.1
-0.09
-0.085
-0.11
-0.085
-0.105
-0.08
-0.105
-0.08
-0.07
-0.06
-0.055
-0.085
-0.075
-0.1
-0.095
-0.08
-0.105
-0.11
-0.1
-0.105
-0.115
-0.12
-0.1
-0.04
-0.015
0.005
0.035
-0.005
-0.065
-0.075
-0.12
-0.14
-0.16
-0.155
-0.15
-0.16
-0.16
-0.16
0.41
1.315
0.925
0.07
-0.26
-0.3
-0.29
-0.225
-0.12
-0.145
-0.14
-0.115
-0.1
-0.095
-0.095
-0.09
-0.065
-0.055
-0.05
-0.05
-0.015
0.005
0.045
0.085
0.115
0.18
0.21
0.25
0.3
0.32
0.305
0.27
0.215
0.16
0.09
0.02
-0.005
-0.03
-0.065
-0.065
-0.055
-0.045
-0.065
-0.06
-0.06
-0.065
-0.06
-0.05
-0.055
-0.045
-0.055
-0.07
-0.055
-0.065
-0.08
-0.075
-0.09
-0.09
-0.095
-0.095
-0.095
-0.11
-0.12
-0.13
-0.115
-0.055
-0.03
-0.02
0.005
0.025
-0.035
-0.05
-0.055
-0.09
-0.15
-0.15
-0.17
-0.155
-0.175
-0.165
-0.095
0.52
1.27
0.895
0.055
-0.305
-0.29
-0.255
-0.15
-0.135
-0.145
-0.12
-0.11
-0.1
-0.115
-0.1
-0.1
-0.07
-0.065
-0.04
-0.02
0.005
0.03
0.04
0.065
0.125
0.195
0.22
0.275
0.3
0.345
0.355
0.315
0.245
0.18
0.12
0.055
0.015
-0.055
-0.06
-0.065
-0.05
-0.05
-0.055
-0.045
-0.035
-0.04
-0.035
-0.025
-0.035
-0.04
-0.05
-0.045
-0.02
-0.045
-0.06
-0.075
-0.075
-0.085
-0.065
-0.09
-0.08
-0.075
-0.085
-0.085
-0.11
-0.11
-0.1
-0.11
-0.045
-0.015
-0.025
-0.005
0.055
-0.035
-0.07
-0.065
-0.1
-0.125
-0.15
-0.14
-0.155
-0.17
-0.155
-0.19
0.28
1.12
0.94
0.32
-0.19
-0.325
-0.285
-0.21
-0.11
-0.15
-0.135
-0.12
-0.135
-0.13
-0.105
-0.1
-0.09
-0.085
-0.045
-0.03
-0.01
0.01
0.025
0.085
0.125
0.15
0.245
0.26
0.32
0.365
0.335
0.345
0.295
0.18
0.155
0.08
0.0
-0.02
-0.055
-0.065
-0.06
-0.07
-0.095
-0.06
-0.035
-0.03
-0.065
-0.055
-0.055
-0.055
0.0
-0.06
-0.07
-0.075
-0.045
-0.05
-0.045
-0.085
-0.105
-0.06
-0.09
-0.095
-0.07
-0.07
-0.11
-0.1
-0.09
-0.115
-0.1
-0.105
-0.1
-0.11
-0.105
-0.075
-0.045
-0.045
0.035
0.03
-0.025
-0.055
-0.05
-0.075
-0.13
-0.145
-0.16
-0.16
-0.14
-0.14
-0.17
-0.005
0.615
1.2
0.855
0.07
-0.285
-0.32
-0.265
-0.165
-0.13
-0.135
-0.125
-0.12
-0.11
-0.105
-0.085
-0.09
-0.055
-0.06
-0.07
-0.045
-0.005
0.025
0.055
0.085
0.135
0.185
0.26
0.29
0.34
0.355
0.365
0.33
0.265
0.175
0.095
0.055
0.01
0.0
-0.03
-0.045
-0.04
-0.035
-0.03
-0.025
-0.035
0.0
-0.03
-0.04
-0.04
-0.02
-0.025
-0.025
-0.035
-0.04
-0.035
-0.035
-0.025
-0.045
-0.03
-0.05
-0.045
-0.055
-0.06
-0.09
-0.08
-0.085
-0.055
-0.055
-0.07
-0.095
-0.08
-0.065
-0.09
-0.095
-0.09
-0.11
-0.075
-0.095
-0.105
-0.09
-0.04
-0.02
-0.03
0.03
0.025
-0.04
-0.04
-0.06
-0.1
-0.115
-0.135
-0.13
-0.15
-0.155
-0.145
-0.16
0.08
0.795
1.185
0.8
-0.02
-0.275
-0.265
-0.25
-0.115
-0.145
-0.115
-0.125
-0.12
-0.12
-0.115
-0.095
-0.1
-0.07
-0.04
-0.05
-0.05
-0.02
0.02
0.03
0.08
0.145
0.21
0.25
0.295
0.33
0.37
0.37
0.33
0.265
0.21
0.115
0.03
0.0
-0.01
-0.02
-0.04
-0.045
-0.035
-0.04
-0.03
-0.035
-0.025
-0.01
-0.03
-0.04
-0.02
-0.045
-0.035
-0.05
-0.04
-0.04
-0.03
-0.04
-0.055
-0.05
-0.04
-0.04
-0.04
-0.04
-0.06
-0.055
-0.055
-0.065
-0.045
-0.06
-0.07
-0.07
-0.08
-0.085
-0.075
-0.07
-0.08
-0.08
-0.08
-0.11
-0.08
-0.1
-0.105
-0.1
-0.075
-0.06
-0.015
-0.005
0.005
0.005
-0.01
-0.045
-0.055
-0.085
-0.105
-0.145
-0.135
-0.13
-0.145
-0.165
-0.135
-0.17
0.195
1.02
1.105
0.595
-0.1
-0.27
-0.245
-0.255
-0.12
-0.12
-0.12
-0.105
-0.095
-0.105
-0.07
-0.085
-0.085
-0.065
-0.05
-0.065
-0.05
-0.03
0.015
0.045
0.105
0.16
0.19
0.245
0.295
0.315
0.37
0.365
0.34
0.255
0.17
0.105
0.05
0.015
-0.01
-0.015
-0.045
-0.04
-0.035
-0.045
-0.015
0.0
-0.02
-0.035
-0.04
-0.02
-0.005
-0.01
-0.01
-0.025
-0.015
-0.015
-0.025
-0.025
-0.01
-0.005
-0.02
-0.035
-0.045
-0.055
-0.05
-0.05
-0.045
-0.04
-0.03
-0.045
-0.045
-0.035
-0.04
-0.055
-0.065
-0.085
-0.065
-0.085
-0.075
-0.065
-0.075
-0.085
-0.07
-0.06
-0.075
-0.085
-0.075
-0.1
-0.085
-0.07
-0.015
-0.015
0.015
0.015
0.01
-0.045
-0.045
-0.06
-0.115
-0.135
-0.135
-0.135
-0.145
-0.15
-0.15
-0.145
0.33
1.205
1.05
0.34
-0.19
-0.29
-0.275
-0.205
-0.11
-0.12
-0.12
-0.12
-0.085
-0.115
-0.09
-0.11
-0.075
-0.08
-0.1
-0.07
-0.01
0.015
0.06
0.06
0.12
0.175
0.195
0.245
0.28
0.32
0.36
0.35
0.31
0.255
0.18
0.11
0.055
0.035
0.0
-0.02
-0.02
-0.03
-0.035
-0.03
-0.06
-0.055
-0.04
-0.025
-0.005
-0.02
0.01
-0.02
-0.015
-0.015
-0.055
-0.045
-0.025
-0.03
-0.03
-0.06
-0.025
-0.045
-0.06
-0.025
-0.03
-0.055
-0.04
-0.095
-0.06
-0.04
-0.07
-0.06
-0.08
-0.065
-0.075
-0.065
-0.065
-0.075
-0.09
-0.09
-0.055
-0.08
-0.07
-0.09
-0.09
-0.09
-0.085
-0.095
-0.1
-0.115
-0.095
-0.065
-0.015
-0.015
0.015
0.03
-0.015
-0.055
-0.05
-0.09
-0.1
-0.13
-0.12
-0.115
-0.16
-0.145
-0.17
0.02
0.655
1.305
0.93
0.05
-0.29
-0.31
-0.265
-0.165
-0.135
-0.15
-0.115
-0.105
-0.13
-0.115
-0.085
-0.105
-0.045
-0.06
-0.06
-0.045
-0.02
0.03
0.01
0.07
0.165
0.185
0.215
0.265
0.3
0.355
0.4
0.375
0.325
0.215
0.125
0.06
0.04
0.005
0.0
-0.03
0.0
-0.065
-0.045
-0.02
-0.04
-0.04
-0.04
-0.04
-0.015
-0.045
-0.02
-0.01
-0.02
0.01
-0.05
-0.045
-0.02
0.01
-0.03
-0.015
-0.04
-0.05
-0.075
-0.045
-0.055
-0.045
-0.055
-0.04
-0.06
-0.065
-0.055
-0.075
-0.065
-0.06
-0.025
-0.095
-0.075
-0.1
-0.085
-0.075
-0.06
-0.105
-0.065
-0.105
-0.11
-0.075
-0.11
-0.09
-0.05
-0.035
-0.015
0.03
0.045
-0.01
-0.05
-0.045
-0.04
-0.055
-0.14
-0.135
-0.16
-0.135
-0.135
-0.18
0.06
0.78
1.305
0.79
0.0
-0.32
-0.3
-0.27
-0.165
-0.105
-0.12
-0.13
-0.155
-0.085
-0.08
-0.13
-0.09
-0.105
-0.065
-0.06
-0.03
0.0
-0.005
0.04
0.08
0.135
0.16
0.19
0.28
0.32
0.34
0.38
0.36
0.315
0.24
0.115
0.09
0.02
0.0
-0.03
-0.01
-0.055
-0.04
-0.04
-0.06
-0.03
-0.04
-0.03
-0.035
-0.015
-0.025
-0.005
-0.015
-0.015
-0.02
-0.035
-0.03
-0.015
-0.005
-0.005
-0.035
-0.065
-0.07
-0.05
-0.045
-0.045
-0.05
-0.04
-0.08
-0.085
-0.085
-0.09
-0.08
-0.09
-0.075
-0.08
-0.09
-0.075
-0.08
-0.08
-0.065
-0.085
-0.09
-0.09
-0.085
-0.13
-0.11
-0.115
-0.1
-0.09
-0.07
-0.08
-0.045
-0.035
0.015
0.035
0.0
-0.07
-0.07
-0.06
-0.11
-0.15
-0.16
-0.155
-0.135
-0.125
-0.19
0.0
0.78
1.405
0.975
0.015
-0.275
-0.265
-0.23
-0.13
-0.135
-0.12
-0.14
-0.135
-0.105
-0.11
-0.1
-0.095
-0.075
-0.065
-0.085
-0.07
-0.035
-0.015
0.015
0.06
0.09
0.16
0.22
0.25
0.28
0.315
0.345
0.34
0.28
0.235
0.145
0.09
0.02
-0.015
-0.01
-0.04
-0.03
-0.035
-0.02
-0.06
-0.05
-0.05
-0.015
-0.01
-0.005
-0.005
-0.02
-0.05
-0.025
-0.015
-0.025
-0.025
-0.025
-0.025
-0.015
-0.025
-0.03
-0.07
-0.06
-0.05
-0.055
-0.065
-0.055
-0.055
-0.05
-0.05
-0.05
-0.065
-0.065
-0.065
-0.095
-0.06
-0.09
-0.095
-0.08
-0.08
-0.095
-0.065
-0.07
-0.1
-0.1
-0.11
-0.07
-0.095
-0.09
-0.12
-0.09
-0.075
-0.07
-0.04
-0.03
0.02
-0.01
-0.07
-0.05
-0.02
-0.115
-0.145
-0.105
-0.145
-0.145
-0.18
-0.21
-0.165
0.47
1.49
1.36
0.26
-0.225
-0.28
-0.255
-0.095
-0.075
-0.115
-0.12
-0.125
-0.125
-0.135
-0.095
-0.105
-0.08
-0.085
-0.095
-0.06
-0.075
-0.005
-0.01
0.07
0.075
0.09
0.13
0.16
0.27
0.235
0.245
0.345
0.31
0.27
0.13
-0.065
-0.055
-0.095
0.0
0.09
0.065
0.045
0.06
-0.01
-0.035
-0.06
-0.06
-0.055
0.03
0.02
0.04
-0.005
-0.025
-0.045
-0.09
0.005
-0.06
-0.015
0.045
-0.025
-0.08
-0.085
-0.125
0.0
0.04
-0.135
-0.05
-0.125
-0.08
-0.015
0.005
-0.02
-0.06
-0.035
-0.135
-0.085
-0.15
-0.105
-0.05
-0.1
-0.07
-0.065
-0.04
-0.07
-0.155
-0.145
-0.07
-0.075
-0.06
-0.055
-0.095
-0.04
-0.07
-0.095
0.07
0.03
-0.07
-0.025
-0.055
-0.21
-0.215
-0.235
-0.115
-0.03
-0.015
-0.155
0.065
0.835
1.465
1.04
-0.065
-0.305
-0.195
-0.025
-0.115
-0.125
-0.13
-0.135
-0.08
-0.28
-0.06
-0.05
-0.07
-0.125
-0.065
0.015
-0.065
-0.08
0.01
0.065
0.125
0.17
0.065
0.095
0.17
0.265
0.225
0.39
0.385
0.32
0.325
0.13
0.03
0.1
-0.055
-0.065
0.165
0.005
-0.005
-0.035
-0.115
0.06
0.01
0.0
0.04
0.05
-0.13
-0.005
0.095
-0.085
-0.1
0.05
0.165
0.035
-0.065
-0.1
-0.14
-0.035
0.045
0.075
-0.06
-0.015
-0.03
-0.07
-0.03
-0.21
0.015
0.0
-0.08
-0.02
-0.055
-0.09
-0.005
-0.08
-0.13
-0.09
0.0
0.0
-0.04
-0.08
-0.16
-0.14
-0.09
-0.015
0.0
-0.025
0.045
0.04
-0.035
0.075
-0.03
0.01
0.02
-0.165
-0.025
-0.03
-0.22
-0.115
0.0
-0.145
-0.185
0.275
1.225
1.405
0.465
-0.175
-0.2
-0.14
0.005
-0.205
-0.25
-0.055
-0.08
-0.085
-0.07
-0.075
-0.035
-0.02
-0.035
-0.035
-0.035
-0.135
-0.005
0.03
0.105
0.155
0.05
0.145
0.14
0.16
0.17
0.24
0.29
0.335
0.34
0.18
0.095
-0.015
0.085
0.12
0.04
0.055
0.0
0.0
0.045
0.055
-0.015
0.01
0.02
-0.05
-0.06
0.08
0.05
0.05
0.05
0.0
-0.02
-0.055
-0.07
0.03
0.0
0.035
-0.035
-0.02
-0.135
-0.05
0.08
-0.05
-0.075
-0.03
-0.025
-0.125
0.03
-0.14
-0.015
0.03
-0.16
0.0
-0.195
-0.135
0.02
-0.12
-0.07
-0.045
