signal
-0.01
-0.03
-0.03
-0.045
0.01
-0.015
-0.03
-0.02
-0.005
-0.035
0.02
0.08
0.08
0.075
0.155
0.12
0.145
0.04
0.02
-0.07
-0.09
-0.115
-0.11
-0.11
-0.09
-0.12
-0.15
-0.15
0.215
0.745
-0.09
-0.125
-0.025
-0.01
-0.095
-0.125
-0.11
-0.14
-0.1
-0.125
-0.095
-0.105
-0.055
-0.05
-0.055
-0.04
0.01
0.0
0.06
0.065
0.095
0.115
0.13
0.145
0.16
0.165
0.17
0.16
0.12
0.075
0.04
0.005
-0.005
-0.035
-0.035
-0.035
-0.035
-0.05
-0.035
-0.035
-0.025
-0.04
-0.02
-0.035
0.02
0.07
0.06
0.06
0.14
0.105
0.115
0.015
0.03
-0.07
-0.095
-0.125
-0.105
-0.115
-0.105
-0.135
-0.155
-0.17
0.185
0.67
-0.155
-0.14
-0.035
-0.015
-0.1
-0.125
-0.115
-0.135
-0.1
-0.125
-0.095
-0.095
-0.07
-0.075
-0.05
-0.045
-0.01
0.005
0.045
0.06
0.095
0.115
0.14
0.145
0.155
0.14
0.16
0.14
0.115
0.065
0.03
0.0
-0.02
-0.04
-0.035
-0.04
-0.04
-0.035
-0.035
-0.04
-0.02
-0.04
-0.03
-0.025
0.01
0.07
0.07
0.06
0.135
0.11
0.115
0.015
0.025
-0.08
-0.095
-0.12
-0.105
-0.13
-0.095
-0.13
-0.155
-0.195
0.105
0.575
-0.15
-0.165
-0.075
-0.03
-0.1
-0.125
-0.115
-0.14
-0.115
-0.105
-0.08
-0.09
-0.075
-0.06
-0.045
-0.045
0.0
0.02
0.055
0.075
0.115
0.11
0.155
0.155
0.18
0.175
0.185
0.165
0.135
0.08
0.03
0.005
-0.025
-0.035
-0.035
-0.04
-0.025
-0.035
-0.04
-0.045
-0.025
-0.025
-0.02
-0.04
0.015
0.06
0.08
0.07
0.12
0.11
0.13
0.04
0.04
-0.08
-0.105
-0.115
-0.095
-0.12
-0.11
-0.125
-0.125
-0.165
0.115
0.585
-0.12
-0.175
-0.08
-0.04
-0.09
-0.13
-0.12
-0.135
-0.11
-0.115
-0.095
-0.095
-0.055
-0.05
-0.05
-0.035
-0.01
0.01
0.045
0.06
0.115
0.12
0.14
0.15
0.165
0.17
0.175
0.17
0.14
0.085
0.025
-0.005
-0.015
-0.035
-0.04
-0.045
-0.035
-0.03
-0.025
-0.035
-0.035
-0.035
-0.03
-0.025
0.005
0.07
0.07
0.065
0.155
0.11
0.135
0.01
0.015
-0.065
-0.1
-0.135
-0.09
-0.135
-0.095
-0.135
-0.15
-0.145
0.19
0.69
-0.09
-0.13
-0.055
-0.03
-0.1
-0.14
-0.11
-0.115
-0.11
-0.1
-0.085
-0.095
-0.075
-0.055
-0.035
-0.02
-0.005
0.005
0.06
0.075
0.11
0.115
0.135
0.15
0.155
0.155
0.17
0.16
0.155
0.09
0.035
0.0
-0.02
-0.035
-0.03
-0.045
-0.035
-0.035
-0.02
-0.015
-0.035
-0.045
-0.04
-0.04
0.005
0.06
0.065
0.08
0.11
0.12
0.14
0.055
0.02
-0.035
-0.085
-0.115
-0.095
-0.115
-0.11
-0.11
-0.16
-0.18
0.115
0.55
0.09
-0.145
-0.06
-0.005
-0.09
-0.11
-0.135
-0.125
-0.105
-0.105
-0.105
-0.105
-0.075
-0.06
-0.035
-0.04
-0.005
0.01
0.035
0.05
0.09
0.125
0.14
0.145
0.16
0.15
0.165
0.165
0.14
0.085
0.045
0.005
-0.02
-0.02
-0.03
-0.03
-0.045
-0.02
-0.035
-0.03
-0.03
-0.015
-0.04
-0.02
-0.01
0.03
0.065
0.08
0.075
0.14
0.115
0.075
0.025
0.01
-0.08
-0.105
-0.13
-0.11
-0.125
-0.1
-0.15
-0.15
-0.12
0.185
0.485
-0.175
-0.155
-0.055
-0.065
-0.105
-0.13
-0.12
-0.125
-0.1
-0.11
-0.08
-0.095
-0.065
-0.065
-0.04
-0.02
0.015
0.02
0.05
0.085
0.115
0.135
0.16
0.16
0.17
0.175
0.185
0.155
0.135
0.065
0.025
-0.02
-0.015
-0.045
-0.03
-0.02
-0.03
-0.04
-0.035
-0.03
-0.02
-0.025
-0.01
-0.025
0.015
0.06
0.075
0.065
0.14
0.125
0.13
0.04
0.035
-0.065
-0.09
-0.125
-0.1
-0.095
-0.1
-0.13
-0.125
-0.17
0.075
0.535
-0.065
-0.155
-0.07
-0.04
-0.12
-0.125
-0.105
-0.13
-0.115
-0.11
-0.09
-0.11
-0.065
-0.06
-0.045
-0.035
0.0
0.03
0.055
0.065
0.095
0.125
0.16
0.14
0.175
0.17
0.185
0.17
0.135
0.09
0.05
0.0
-0.005
-0.03
-0.04
-0.045
-0.03
-0.025
-0.025
-0.01
-0.03
-0.025
-0.01
-0.015
0.0
0.03
0.065
0.08
0.09
0.155
0.125
0.07
0.005
-0.025
-0.075
-0.115
-0.125
-0.115
-0.12
-0.115
-0.14
-0.14
-0.03
0.33
0.455
-0.17
-0.105
-0.065
-0.11
-0.09
-0.15
-0.135
-0.125
-0.13
-0.12
-0.1
-0.095
-0.085
-0.08
-0.045
-0.035
0.0
0.02
0.04
0.065
0.1
0.11
0.135
0.14
0.14
0.155
0.17
0.135
0.11
0.06
0.015
-0.005
-0.02
-0.03
-0.03
-0.04
-0.05
-0.04
-0.04
-0.035
-0.005
-0.04
-0.04
-0.025
0.02
0.055
0.06
0.06
0.15
0.13
0.12
0.01
0.03
-0.075
-0.105
-0.135
-0.1
-0.135
-0.115
-0.14
-0.155
-0.17
0.185
0.7
-0.07
-0.145
-0.055
-0.015
-0.105
-0.125
-0.12
-0.135
-0.115
-0.125
-0.105
-0.09
-0.065
-0.07
-0.04
-0.04
-0.005
0.0
0.04
0.055
0.09
0.115
0.135
0.135
0.155
0.15
0.17
0.155
0.125
0.075
0.04
0.005
-0.01
-0.01
-0.03
-0.03
-0.04
-0.025
-0.035
-0.025
-0.035
-0.035
-0.035
-0.02
-0.01
0.045
0.065
0.08
0.075
0.145
0.12
0.095
0.02
0.015
-0.09
-0.1
-0.12
-0.105
-0.13
-0.1
-0.15
-0.16
-0.1
0.205
0.495
-0.165
-0.13
-0.04
-0.06
-0.11
-0.125
-0.125
-0.125
-0.105
-0.12
-0.095
-0.095
-0.075
-0.065
-0.035
-0.035
-0.005
0.015
0.06
0.065
0.11
0.125
0.15
0.145
0.155
0.155
0.165
0.145
0.115
0.055
0.01
-0.01
-0.02
-0.05
-0.045
-0.06
-0.045
-0.05
-0.03
-0.035
-0.02
-0.035
-0.045
-0.055
0.015
0.075
0.075
0.06
0.14
0.11
0.105
0.02
0.04
-0.08
-0.1
-0.125
-0.11
-0.12
-0.095
-0.14
-0.15
-0.155
0.125
0.58
-0.1
-0.155
-0.05
-0.03
-0.105
-0.14
-0.11
-0.125
-0.105
-0.12
-0.09
-0.085
-0.065
-0.065
-0.03
-0.05
0.015
0.005
0.06
0.065
0.1
0.12
0.125
0.155
0.165
0.195
0.175
0.16
0.15
0.08
0.04
0.01
0.0
-0.03
-0.015
-0.025
-0.025
-0.015
-0.015
-0.025
-0.01
-0.04
0.0
-0.02
0.005
0.08
0.06
0.09
0.135
0.125
0.13
0.05
0.025
-0.045
-0.085
-0.105
-0.11
-0.11
-0.115
-0.115
-0.135
-0.17
0.1
0.555
0.095
-0.145
-0.065
-0.045
-0.11
-0.14
-0.135
-0.145
-0.125
-0.155
-0.1
-0.1
-0.08
-0.095
-0.06
-0.035
-0.015
-0.005
0.025
0.05
0.085
0.085
0.115
0.145
0.135
0.15
0.165
0.165
0.14
0.08
0.035
0.0
-0.01
-0.03
-0.03
-0.045
-0.035
-0.04
-0.035
-0.04
-0.025
-0.025
-0.03
-0.04
0.0
0.05
0.07
0.07
0.13
0.125
0.14
0.035
0.02
-0.06
-0.105
-0.13
-0.1
-0.12
-0.11
-0.115
-0.165
-0.185
0.125
0.58
0.025
-0.12
-0.04
-0.005
-0.105
-0.13
-0.115
-0.135
-0.11
-0.13
-0.105
-0.11
-0.08
-0.08
-0.065
-0.045
-0.015
-0.005
0.035
0.05
0.08
0.1
0.12
0.115
0.13
0.12
0.14
0.14
0.11
0.055
0.025
-0.005
-0.025
-0.05
-0.04
-0.065
-0.05
-0.045
-0.03
-0.045
-0.03
-0.05
-0.03
-0.03
0.02
0.065
0.065
0.055
0.13
0.1
0.105
0.015
0.02
-0.09
-0.11
-0.14
-0.11
-0.125
-0.1
-0.14
-0.16
-0.18
0.12
0.565
-0.17
-0.15
-0.06
-0.04
-0.105
-0.14
-0.115
-0.14
-0.115
-0.13
-0.095
-0.095
-0.065
-0.07
-0.04
-0.045
-0.005
0.005
0.06
0.07
0.095
0.12
0.15
0.145
0.17
0.17
0.18
0.165
0.115
0.06
0.01
-0.015
-0.025
-0.035
-0.05
-0.045
-0.045
-0.065
-0.045
-0.02
-0.04
-0.035
-0.035
-0.005
0.04
0.045
0.07
0.12
0.12
0.125
0.04
0.02
-0.07
-0.11
-0.12
-0.11
-0.11
-0.125
-0.13
-0.15
-0.185
0.045
0.455
0.015
-0.145
-0.08
-0.075
-0.12
-0.1
-0.125
-0.125
-0.125
-0.13
-0.115
-0.09
-0.065
-0.095
-0.06
-0.05
-0.005
-0.01
0.04
0.05
0.085
0.1
0.115
0.125
0.145
0.18
0.17
0.15
0.13
0.075
0.045
-0.015
-0.04
-0.04
-0.045
-0.03
-0.04
-0.055
-0.05
-0.03
-0.035
-0.035
-0.025
-0.02
0.025
0.065
0.075
0.085
0.145
0.13
0.1
0.015
-0.005
-0.08
-0.105
-0.105
-0.08
-0.12
-0.105
-0.13
-0.135
0.0
0.375
0.45
-0.13
-0.075
-0.025
-0.075
-0.095
-0.12
-0.105
-0.105
-0.095
-0.095
-0.08
-0.07
-0.055
-0.045
-0.015
-0.02
0.01
0.035
0.065
0.09
0.12
0.14
0.155
0.145
0.16
0.17
0.175
0.16
0.12
0.065
0.03
0.0
-0.02
-0.03
-0.03
-0.025
-0.035
-0.02
-0.03
-0.01
-0.03
-0.015
-0.005
0.05
0.085
0.07
0.075
0.16
0.135
0.115
0.035
0.03
-0.065
-0.09
-0.105
-0.1
-0.105
-0.1
-0.145
-0.155
-0.07
0.265
0.525
-0.14
-0.095
-0.025
-0.055
-0.105
-0.125
-0.12
-0.125
-0.1
-0.11
-0.08
-0.095
-0.06
-0.065
-0.03
-0.02
0.0
0.025
0.065
0.085
0.11
0.125
0.155
0.15
0.15
0.16
0.165
0.14
0.11
0.06
0.015
-0.005
-0.02
-0.035
-0.035
-0.03
-0.035
-0.025
-0.03
-0.025
-0.02
-0.02
-0.02
0.035
0.065
0.07
0.07
0.14
0.105
0.115
0.035
0.03
-0.08
-0.095
-0.12
-0.1
-0.125
-0.095
-0.135
-0.15
-0.17
0.13
0.56
-0.17
-0.16
-0.06
-0.04
-0.095
-0.125
-0.11
-0.125
-0.1
-0.115
-0.085
-0.1
-0.07
-0.055
-0.035
-0.03
0.01
0.02
0.05
0.075
0.115
0.125
0.155
0.145
0.165
0.165
0.175
0.16
0.12
0.075
0.02
-0.02
-0.035
-0.045
-0.05
-0.025
-0.035
-0.02
-0.035
-0.025
-0.045
-0.04
-0.02
0.04
0.05
0.07
0.08
0.145
0.105
0.125
0.025
0.035
-0.08
-0.1
-0.13
-0.1
-0.135
-0.105
-0.115
-0.15
-0.175
0.1
0.58
-0.15
-0.12
-0.06
-0.04
-0.11
-0.135
-0.11
-0.14
-0.115
-0.115
-0.08
-0.115
-0.075
-0.08
-0.03
-0.035
0.0
0.01
0.06
0.055
0.09
0.13
0.155
0.145
0.17
0.175
0.165
0.175
0.105
0.05
0.025
-0.02
-0.03
-0.04
-0.045
-0.04
-0.055
-0.025
-0.045
-0.025
-0.03
-0.02
-0.04
0.01
0.06
0.06
0.07
0.12
0.105
0.115
0.025
0.03
-0.05
-0.105
-0.13
-0.105
-0.12
-0.095
-0.135
-0.165
-0.165
0.115
0.58
-0.025
-0.145
-0.07
-0.035
-0.11
-0.14
-0.13
-0.135
-0.13
-0.135
-0.09
-0.125
-0.09
-0.08
-0.055
-0.055
-0.02
-0.005
0.04
0.035
0.085
0.1
0.115
0.13
0.14
0.145
0.155
0.13
0.11
0.05
0.0
-0.01
-0.035
-0.055
-0.055
-0.07
-0.06
-0.055
-0.045
-0.05
-0.04
-0.04
-0.05
-0.015
0.035
0.055
0.07
0.07
0.135
0.115
0.065
0.02
0.0
-0.085
-0.115
-0.12
-0.11
-0.125
-0.11
-0.165
-0.165
-0.025
0.295
0.36
-0.14
-0.095
-0.025
-0.055
-0.1
-0.13
-0.11
-0.12
-0.105
-0.095
-0.095
-0.085
-0.065
-0.055
-0.025
-0.025
0.01
0.03
0.06
0.08
0.11
0.125
0.135
0.15
0.16
0.16
0.155
0.125
0.085
0.03
0.0
-0.025
-0.045
-0.045
-0.045
-0.04
-0.05
-0.035
-0.04
-0.03
-0.05
-0.035
-0.015
0.035
0.065
0.06
0.065
0.14
0.105
0.095
0.02
0.0
-0.09
-0.13
-0.135
-0.11
-0.125
-0.115
-0.16
-0.17
-0.155
0.145
0.5
-0.17
-0.14
-0.065
-0.06
-0.11
-0.135
-0.11
-0.13
-0.105
-0.11
-0.09
-0.105
-0.065
-0.06
-0.025
-0.03
0.0
0.025
0.06
0.09
0.12
0.13
0.155
0.165
0.175
0.175
0.19
0.14
0.11
0.055
0.005
-0.01
-0.025
-0.035
-0.05
-0.04
-0.045
-0.045
-0.045
-0.025
-0.055
-0.03
-0.025
0.005
0.055
0.08
0.055
0.14
0.125
0.135
0.02
0.035
-0.05
-0.1
-0.115
-0.1
-0.115
-0.11
-0.135
-0.135
-0.15
0.075
0.535
-0.06
-0.155
-0.075
-0.04
-0.11
-0.135
-0.13
-0.14
-0.11
-0.125
-0.1
-0.08
-0.085
-0.075
-0.04
-0.035
0.0
0.015
0.05
0.07
0.1
0.125
0.145
0.16
0.175
0.175
0.19
0.16
0.135
0.08
0.025
0.0
-0.015
-0.015
-0.02
-0.045
-0.025
-0.035
-0.01
-0.045
-0.03
-0.025
-0.02
-0.03
0.045
0.085
0.085
0.085
0.15
0.105
0.095
0.04
0.0
-0.085
-0.105
-0.12
-0.09
-0.12
-0.115
-0.14
-0.135
0.0
0.355
0.46
-0.15
-0.105
-0.045
-0.06
-0.1
-0.12
-0.135
-0.13
-0.095
-0.11
-0.085
-0.08
-0.07
-0.06
-0.025
-0.03
0.01
0.025
0.05
0.07
0.125
0.135
0.155
0.14
0.165
0.17
0.17
0.155
0.11
0.065
0.01
-0.025
-0.035
-0.035
-0.035
-0.04
-0.035
-0.03
-0.05
-0.03
-0.035
-0.025
-0.04
-0.005
0.04
0.065
0.06
0.115
0.115
0.135
0.025
0.005
-0.065
-0.1
-0.13
-0.105
-0.115
-0.1
-0.135
-0.165
-0.175
0.145
0.645
0.005
-0.125
-0.05
-0.005
-0.1
-0.13
-0.115
-0.145
-0.12
-0.115
-0.095
-0.095
-0.07
-0.075
-0.04
-0.045
-0.01
0.005
0.045
0.07
0.1
0.115
0.14
0.145
0.165
0.16
0.165
0.15
0.12
0.08
0.025
0.0
-0.03
-0.04
-0.035
-0.05
-0.045
-0.04
-0.035
-0.035
-0.03
-0.045
-0.035
-0.045
0.0
0.05
0.06
0.07
0.1
0.11
0.13
0.05
0.025
-0.05
-0.09
-0.125
-0.11
-0.12
-0.11
-0.13
-0.16
-0.18
0.06
0.46
0.025
-0.14
-0.085
-0.03
-0.095
-0.13
-0.125
-0.12
-0.11
-0.115
-0.09
-0.105
-0.085
-0.075
-0.04
-0.04
-0.01
0.015
0.045
0.065
0.1
0.12
0.145
0.155
0.165
0.17
0.185
0.18
0.13
0.08
0.04
0.0
-0.025
-0.025
-0.045
-0.045
-0.05
-0.045
-0.045
-0.03
-0.04
-0.035
-0.045
-0.03
-0.02
0.04
0.065
0.06
0.045
0.135
0.11
0.09
0.015
0.005
-0.1
-0.11
-0.135
-0.115
-0.125
-0.11
-0.15
-0.14
-0.125
0.17
0.48
-0.17
-0.145
-0.06
-0.06
-0.105
-0.13
-0.12
-0.125
-0.11
-0.115
-0.085
-0.095
-0.06
-0.07
-0.04
-0.02
0.005
0.015
0.07
0.085
0.12
0.135
0.15
0.145
0.18
0.185
0.18
0.14
0.105
0.055
0.01
-0.01
-0.025
-0.05
-0.04
-0.05
-0.035
-0.035
-0.025
-0.025
-0.03
-0.045
-0.035
-0.035
0.0
0.05
0.05
0.065
0.13
0.12
0.145
0.04
0.04
-0.05
-0.095
-0.115
-0.105
-0.12
-0.115
-0.125
-0.145
-0.17
0.07
0.455
0.02
-0.125
-0.07
-0.055
-0.105
-0.1
-0.105
-0.125
-0.115
-0.13
-0.095
-0.09
-0.07
-0.07
-0.05
-0.025
-0.005
0.01
0.045
0.065
0.11
0.125
0.145
0.15
0.185
0.185
0.2
0.18
0.135
0.075
0.035
0.005
0.0
-0.04
-0.04
-0.02
-0.04
-0.035
-0.035
-0.015
-0.025
-0.01
-0.025
-0.02
0.01
0.04
0.055
0.085
0.095
0.13
0.13
0.09
0.025
-0.01
-0.1
-0.1
-0.115
-0.095
-0.125
-0.135
-0.15
-0.13
-0.015
0.3
0.45
-0.165
-0.13
-0.075
-0.095
-0.1
-0.12
-0.14
-0.135
-0.15
-0.1
-0.07
-0.08
-0.085
-0.075
-0.04
-0.02
0.015
0.02
0.055
0.08
0.11
0.115
0.155
0.16
0.17
0.17
0.19
0.14
0.11
0.055
-0.005
-0.005
-0.005
-0.055
-0.055
-0.05
-0.03
-0.03
-0.03
-0.045
-0.02
-0.03
-0.04
-0.05
-0.02
0.045
0.055
0.085
0.12
0.135
0.13
0.025
0.025
-0.05
-0.1
-0.11
-0.105
-0.12
-0.105
-0.115
-0.16
-0.16
0.145
0.625
0.1
-0.115
-0.055
-0.01
-0.095
-0.125
-0.12
-0.14
-0.11
-0.115
-0.09
-0.095
-0.08
-0.08
-0.05
-0.035
-0.01
0.0
0.03
0.055
0.085
0.105
0.13
0.125
0.145
0.14
0.165
0.15
0.115
0.08
0.03
-0.005
-0.025
-0.03
-0.04
-0.03
-0.04
-0.035
-0.04
-0.025
-0.035
-0.015
-0.04
-0.02
-0.04
0.01
0.055
0.055
0.07
0.145
0.09
0.135
0.04
0.025
-0.075
-0.095
-0.115
-0.09
-0.115
-0.1
-0.135
-0.155
-0.165
0.15
0.645
-0.09
-0.14
-0.055
-0.01
-0.1
-0.135
-0.11
-0.12
-0.1
-0.115
-0.085
-0.1
-0.06
-0.065
-0.025
-0.035
0.005
0.01
0.06
0.07
0.11
0.13
0.155
0.15
0.155
0.16
0.175
0.15
0.12
0.07
0.03
0.0
-0.015
-0.03
-0.04
-0.035
-0.04
-0.035
-0.03
-0.025
-0.025
-0.02
-0.035
-0.02
-0.03
0.02
0.075
0.08
0.07
0.15
0.105
0.11
0.025
0.02
-0.085
-0.11
-0.12
-0.11
-0.12
-0.1
-0.145
-0.15
-0.16
0.12
0.575
-0.17
-0.155
-0.06
-0.035
-0.11
-0.13
-0.105
-0.125
-0.1
-0.115
-0.09
-0.095
-0.06
-0.08
-0.035
-0.02
0.005
0.015
0.06
0.08
0.115
0.135
0.17
0.175
0.185
0.175
0.185
0.17
0.13
0.08
0.025
0.0
-0.025
-0.05
-0.04
-0.035
-0.035
-0.03
-0.05
-0.02
-0.035
-0.025
-0.04
-0.04
-0.02
0.045
0.06
0.075
0.05
0.15
0.105
0.095
0.025
0.005
-0.08
-0.095
-0.125
-0.105
-0.125
-0.09
-0.135
-0.14
-0.105
0.19
0.545
-0.17
-0.145
-0.11
-0.06
-0.105
-0.13
-0.115
-0.145
-0.12
-0.12
-0.085
-0.085
-0.06
-0.075
-0.045
-0.015
0.025
0.025
0.04
0.075
0.12
0.125
0.155
0.145
0.175
0.175
0.19
0.165
0.13
0.045
0.03
-0.005
-0.02
-0.02
-0.05
-0.035
-0.035
-0.04
-0.015
-0.025
-0.02
-0.025
-0.03
-0.035
0.02
0.055
0.065
0.085
0.12
0.135
0.15
0.05
0.02
-0.03
-0.095
-0.115
-0.115
-0.105
-0.1
-0.135
-0.145
-0.145
0.09
0.485
0.115
-0.185
-0.08
-0.035
-0.105
-0.145
-0.12
-0.115
-0.125
-0.115
-0.1
-0.12
-0.095
-0.065
-0.055
-0.035
-0.015
0.0
0.045
0.065
0.08
0.115
0.145
0.14
0.165
0.17
0.18
0.18
0.17
0.105
0.03
-0.005
-0.03
-0.03
-0.045
-0.03
-0.035
-0.04
-0.045
-0.015
-0.025
-0.025
-0.035
-0.045
-0.025
0.015
0.07
0.08
0.085
0.155
0.11
0.08
0.025
0.0
-0.09
-0.105
-0.12
-0.095
-0.11
-0.12
-0.16
-0.145
-0.04
0.33
0.56
-0.145
-0.1
-0.035
-0.065
-0.105
-0.12
-0.135
-0.135
-0.11
-0.12
-0.1
-0.1
-0.07
-0.065
-0.035
-0.025
0.0
0.015
0.05
0.06
0.11
0.12
0.13
0.13
0.14
0.15
0.15
0.12
0.105
0.045
0.0
-0.015
-0.025
-0.05
-0.035
-0.05
-0.035
-0.04
-0.04
-0.035
-0.025
-0.03
-0.035
-0.035
0.01
0.06
0.055
0.06
0.13
0.1
0.13
0.03
0.035
-0.065
-0.09
-0.125
-0.11
-0.125
-0.1
-0.125
-0.155
-0.165
0.145
0.62
-0.12
-0.15
-0.065
-0.02
-0.105
-0.125
-0.11
-0.135
-0.1
-0.12
-0.1
-0.095
-0.065
-0.075
-0.035
-0.03
-0.005
0.01
0.065
0.07
0.095
0.12
0.15
0.15
0.16
0.17
0.175
0.16
0.13
0.07
0.02
0.0
-0.02
-0.03
-0.035
-0.035
-0.035
-0.03
-0.035
-0.03
-0.04
-0.03
-0.035
-0.035
0.0
0.055
0.07
0.08
0.09
0.135
0.13
0.06
0.03
-0.02
-0.095
-0.105
-0.105
-0.105
-0.115
-0.115
-0.15
-0.165
-0.03
0.285
0.28
-0.15
-0.12
-0.035
-0.08
-0.105
-0.125
-0.11
-0.125
-0.105
-0.105
-0.09
-0.075
-0.08
-0.055
-0.03
-0.01
0.01
0.035
0.065
0.09
0.12
0.135
0.165
0.165
0.17
0.18
0.185
0.14
0.105
0.035
0.005
-0.01
-0.025
-0.045
-0.035
-0.045
-0.035
-0.04
-0.025
-0.025
-0.025
-0.035
-0.03
-0.025
0.025
0.06
0.065
0.065
0.145
0.105
0.12
0.025
0.035
-0.085
-0.11
-0.13
-0.11
-0.12
-0.1
-0.125
-0.145
-0.15
0.1
0.56
-0.16
-0.155
-0.07
-0.035
-0.095
-0.135
-0.13
-0.15
-0.105
-0.12
-0.1
-0.11
-0.07
-0.07
-0.04
-0.04
0.0
0.0
0.04
0.06
0.105
0.12
0.15
0.15
0.175
0.175
0.175
0.155
0.12
0.05
0.015
-0.02
-0.045
-0.04
-0.035
-0.06
-0.035
-0.05
-0.03
-0.035
-0.025
-0.045
-0.045
-0.03
0.005
0.055
0.055
0.06
0.12
0.11
0.14
0.05
0.02
-0.08
-0.1
-0.115
-0.105
-0.11
-0.12
-0.13
-0.16
-0.15
0.1
0.51
0.02
-0.15
-0.07
-0.035
-0.1
-0.13
-0.13
-0.125
-0.13
-0.12
-0.095
-0.08
-0.06
-0.06
-0.045
-0.04
0.01
0.015
0.05
0.055
0.09
0.13
0.15
0.155
0.175
0.175
0.195
0.175
0.14
0.095
0.04
0.0
-0.015
-0.02
-0.02
-0.045
-0.02
-0.02
-0.025
-0.01
-0.02
-0.025
-0.025
-0.02
0.015
0.065
0.075
0.085
0.105
0.145
0.15
0.075
0.045
-0.02
-0.055
-0.085
-0.11
-0.095
-0.1
-0.1
-0.145
-0.155
0.06
0.44
0.26
-0.13
-0.07
-0.025
-0.08
-0.11
-0.115
-0.125
-0.12
-0.1
-0.11
-0.085
-0.075
-0.06
-0.05
-0.03
-0.005
0.0
0.03
0.06
0.09
0.115
0.135
0.14
0.15
0.165
0.17
0.17
0.135
0.09
0.04
0.0
-0.015
-0.025
-0.04
-0.03
-0.045
-0.04
-0.03
-0.035
-0.035
-0.015
-0.05
-0.035
-0.03
0.025
0.06
0.06
0.06
0.135
0.095
0.105
0.015
0.01
-0.095
-0.11
-0.12
-0.115
-0.13
-0.11
-0.155
-0.16
-0.13
0.165
0.565
-0.19
-0.165
-0.055
-0.035
-0.1
-0.14
-0.11
-0.125
-0.11
-0.115
-0.085
-0.085
-0.07
-0.065
-0.03
-0.025
0.0
0.02
0.055
0.075
0.115
0.125
0.16
0.15
0.165
0.17
0.17
0.15
0.105
0.06
0.03
-0.005
-0.01
-0.05
-0.045
-0.045
-0.025
-0.035
-0.01
-0.03
-0.035
-0.02
-0.015
-0.015
0.055
0.065
0.055
0.075
0.16
0.115
0.115
0.03
0.035
-0.095
-0.11
-0.125
-0.095
-0.12
-0.105
-0.135
-0.15
-0.125
0.155
0.585
-0.17
-0.15
-0.085
-0.045
-0.105
-0.11
-0.09
-0.135
-0.125
-0.125
-0.08
-0.095
-0.03
-0.085
-0.035
-0.01
0.015
0.025
0.055
0.08
0.115
0.15
0.155
0.175
0.175
0.195
0.215
0.165
0.125
0.065
0.04
-0.02
-0.01
-0.04
-0.035
-0.025
-0.03
-0.035
-0.025
-0.04
-0.02
-0.02
-0.04
-0.015
0.03
0.045
0.085
0.05
0.165
0.135
0.115
0.005
0.01
-0.095
-0.085
-0.12
-0.1
-0.125
-0.105
-0.13
-0.13
-0.105
0.185
0.64
-0.175
-0.155
-0.075
-0.045
-0.12
-0.125
-0.11
-0.135
-0.1
-0.14
-0.09
-0.105
-0.05
-0.05
-0.04
-0.04
0.005
0.015
0.06
0.08
0.095
0.105
0.14
0.15
0.16
0.175
0.195
0.18
0.125
0.05
0.01
-0.015
-0.02
-0.035
-0.05
-0.06
-0.005
-0.045
-0.035
-0.02
-0.04
-0.025
-0.04
-0.055
0.04
0.06
0.065
0.065
0.115
0.105
0.09
0.01
0.01
-0.105
-0.12
-0.135
-0.11
-0.13
-0.11
-0.17
-0.175
-0.02
0.36
0.555
-0.175
-0.13
-0.055
-0.055
-0.11
-0.145
-0.115
-0.16
-0.125
-0.105
-0.09
-0.1
-0.07
-0.075
-0.045
-0.03
0.005
0.01
0.055
0.065
0.1
0.135
0.16
0.16
0.16
0.165
0.175
0.145
0.105
0.05
0.005
-0.01
-0.03
-0.03
-0.035
-0.035
-0.035
-0.03
-0.035
-0.035
-0.035
-0.03
-0.05
0.0
0.055
0.06
0.065
0.095
0.12
0.125
0.05
0.02
-0.04
-0.095
-0.13
-0.125
-0.13
-0.12
-0.115
-0.185
-0.18
0.085
0.48
0.135
-0.16
-0.075
-0.01
-0.095
-0.135
-0.115
-0.125
-0.125
-0.125
-0.11
-0.1
-0.09
-0.075
-0.055
-0.04
-0.01
0.005
0.04
0.05
0.09
0.115
0.13
0.16
0.165
0.165
0.175
0.165
0.135
0.08
0.04
0.0
-0.015
-0.03
-0.03
-0.04
-0.02
-0.03
-0.04
-0.04
-0.04
-0.035
-0.035
-0.02
0.01
0.055
0.07
0.065
0.125
0.105
0.115
0.03
0.025
-0.06
-0.09
-0.115
-0.11
-0.11
-0.1
-0.13
-0.15
-0.18
0.095
0.52
-0.09
-0.16
-0.055
-0.01
-0.09
-0.12
-0.09
-0.12
-0.1
-0.11
-0.075
-0.085
-0.06
-0.055
-0.025
-0.015
0.01
0.02
0.07
0.095
0.12
0.14
0.165
0.17
0.185
0.19
0.185
0.17
0.125
0.075
0.03
-0.015
-0.025
-0.035
-0.05
-0.035
-0.055
-0.045
-0.04
-0.03
-0.04
-0.035
-0.035
-0.04
-0.005
0.045
0.05
0.055
0.07
0.115
0.115
0.045
0.015
-0.025
-0.095
-0.115
-0.13
-0.12
-0.13
-0.12
-0.155
-0.16
-0.065
0.22
0.265
-0.195
-0.14
-0.05
-0.08
-0.1
-0.13
-0.12
-0.13
-0.115
-0.095
-0.085
-0.095
-0.065
-0.05
-0.025
-0.005
0.02
0.035
0.065
0.1
0.145
0.155
0.18
0.18
0.195
0.2
0.195
0.135
0.09
0.04
0.005
-0.02
-0.045
-0.05
-0.04
-0.035
-0.02
-0.05
-0.035
-0.035
-0.02
-0.045
-0.025
0.0
0.03
0.05
0.065
0.05
0.155
0.12
0.09
0.015
0.005
-0.085
-0.09
-0.135
-0.115
-0.11
-0.1
-0.13
-0.15
-0.15
0.145
0.55
-0.19
-0.145
-0.08
-0.065
-0.11
-0.14
-0.11
-0.135
-0.11
-0.12
-0.085
-0.085
-0.065
-0.045
-0.055
-0.035
0.0
0.035
0.08
0.085
0.12
0.135
0.165
0.18
0.2
0.19
0.205
0.16
0.12
0.055
0.025
-0.035
-0.035
-0.04
-0.045
-0.035
-0.045
-0.04
-0.035
-0.025
-0.025
-0.035
-0.045
-0.03
-0.02
0.02
0.05
0.075
0.08
0.135
0.1
0.08
0.0
0.0
-0.105
-0.12
-0.13
-0.11
-0.12
-0.105
-0.17
-0.13
-0.065
0.27
0.57
-0.195
-0.13
-0.05
-0.085
-0.115
-0.135
-0.11
-0.125
-0.105
-0.12
-0.085
-0.085
-0.065
-0.05
-0.03
-0.01
0.02
0.03
0.06
0.08
0.135
0.15
0.16
0.185
0.18
0.19
0.195
0.16
0.11
0.06
0.015
0.0
-0.03
-0.03
-0.04
-0.035
-0.04
-0.025
-0.025
-0.02
-0.02
-0.035
-0.025
-0.015
-0.01
0.03
0.07
0.08
0.075
0.145
0.11
0.09
0.02
0.03
-0.09
-0.095
-0.13
-0.095
-0.125
-0.11
-0.14
-0.14
-0.11
0.24
0.66
-0.16
-0.14
-0.04
-0.045
-0.105
-0.125
-0.115
-0.12
-0.1
-0.12
-0.085
-0.09
-0.04
-0.06
-0.03
-0.015
0.015
0.015
0.045
0.09
0.135
0.15
0.175
0.165
0.18
0.185
0.2
0.15
0.12
0.055
0.03
-0.01
-0.015
-0.04
-0.04
-0.03
-0.025
-0.045
-0.03
-0.04
-0.02
-0.035
-0.025
-0.035
-0.03
0.0
0.04
0.06
0.065
0.075
0.135
0.12
0.06
0.01
-0.015
-0.085
-0.11
-0.13
-0.1
-0.13
-0.115
-0.16
-0.14
-0.055
0.245
0.415
-0.185
-0.14
-0.06
-0.075
-0.11
-0.125
-0.11
-0.13
-0.1
-0.1
-0.08
-0.095
-0.07
-0.07
-0.035
-0.015
0.005
0.025
0.065
0.09
0.135
0.15
0.17
0.17
0.185
0.17
0.19
0.155
0.115
0.06
0.015
-0.015
-0.03
-0.045
-0.05
-0.035
-0.03
-0.035
-0.04
-0.05
-0.025
-0.04
-0.025
-0.035
-0.025
-0.005
0.045
0.055
0.08
0.085
0.13
0.11
0.06
0.015
-0.01
-0.105
-0.105
-0.125
-0.115
-0.125
-0.105
-0.14
-0.14
-0.065
0.21
0.41
-0.175
-0.13
-0.065
-0.065
-0.11
-0.135
-0.105
-0.12
-0.1
-0.095
-0.085
-0.095
-0.06
-0.065
-0.03
-0.015
0.01
0.025
0.07
0.09
0.14
0.13
0.17
0.18
0.195
0.195
0.185
0.135
0.11
0.055
0.015
-0.035
-0.035
-0.03
-0.035
-0.055
-0.035
-0.03
-0.04
-0.035
-0.035
-0.04
-0.02
-0.04
-0.04
0.0
0.04
0.05
0.065
0.095
0.12
0.12
0.05
0.015
-0.045
-0.11
-0.115
-0.13
-0.105
-0.1
-0.1
-0.15
-0.15
0.015
0.37
0.26
-0.135
-0.085
-0.07
-0.09
-0.1
-0.125
-0.13
-0.12
-0.13
-0.11
-0.08
-0.075
-0.06
-0.06
-0.035
-0.015
0.01
0.035
0.065
0.095
0.13
0.155
0.175
0.18
0.175
0.195
0.2
0.14
0.1
0.05
0.02
-0.015
-0.035
-0.05
-0.035
-0.015
-0.035
-0.045
-0.03
-0.01
-0.035
-0.045
-0.025
-0.025
-0.05
0.0
0.05
0.045
0.055
0.13
0.12
0.125
0.02
0.015
-0.05
-0.105
-0.095
-0.11
-0.125
-0.105
-0.12
-0.17
-0.13
0.105
0.52
0.205
-0.115
-0.1
-0.035
-0.095
-0.115
-0.115
-0.125
-0.12
-0.125
-0.11
-0.08
-0.075
-0.07
-0.04
-0.02
-0.005
0.015
0.025
0.065
0.09
0.12
0.14
0.15
0.18
0.18
0.17
0.185
0.14
0.09
0.05
-0.005
-0.03
-0.035
-0.035
-0.04
-0.04
-0.04
-0.035
-0.03
-0.035
-0.025
-0.03
-0.02
-0.05
-0.05
-0.005
0.05
0.06
0.08
0.105
0.125
0.13
0.045
0.005
-0.04
-0.085
-0.105
-0.12
-0.11
-0.115
-0.11
-0.165
-0.14
0.04
0.415
0.3
-0.145
-0.09
-0.025
-0.08
-0.11
-0.125
-0.125
-0.135
-0.115
-0.105
-0.095
-0.09
-0.06
-0.055
-0.045
-0.015
0.01
0.03
0.06
0.1
0.12
0.14
0.165
0.165
0.16
0.165
0.175
0.14
0.1
0.04
0.01
-0.015
-0.015
-0.045
-0.03
-0.04
-0.03
-0.035
-0.02
-0.02
-0.02
-0.03
-0.025
-0.045
-0.025
-0.025
0.025
0.06
0.08
0.07
0.14
0.115
0.085
0.02
0.01
-0.09
-0.1
-0.115
-0.09
-0.13
-0.11
-0.15
-0.13
-0.135
0.17
0.58
-0.175
-0.15
-0.055
-0.025
-0.09
-0.13
-0.11
-0.125
-0.1
-0.11
-0.08
-0.09
-0.055
-0.07
-0.03
-0.03
-0.005
0.02
0.055
0.075
0.115
0.135
0.175
0.15
0.175
0.165
0.18
0.15
0.115
0.055
0.02
-0.02
-0.035
-0.05
-0.05
-0.045
-0.04
-0.055
-0.03
-0.04
-0.04
-0.05
-0.03
-0.05
-0.04
-0.04
0.02
0.055
0.055
0.06
0.145
0.11
0.085
0.005
-0.005
-0.095
-0.105
-0.12
-0.12
-0.135
-0.115
-0.135
-0.11
-0.135
0.145
0.585
-0.165
-0.155
-0.07
-0.055
-0.105
-0.135
-0.125
-0.14
-0.095
-0.135
-0.085
-0.1
-0.065
-0.05
-0.035
-0.03
0.01
0.015
0.05
0.085
0.14
0.14
0.16
0.15
0.18
0.2
0.18
0.15
0.135
0.06
0.02
-0.025
-0.035
-0.045
-0.045
-0.05
-0.035
-0.03
-0.025
-0.05
-0.05
-0.04
-0.02
-0.035
-0.03
-0.025
0.015
0.055
0.085
0.07
0.15
0.105
0.07
0.015
-0.015
-0.1
-0.105
-0.135
-0.11
-0.13
-0.11
-0.165
-0.115
-0.04
0.285
0.58
-0.175
-0.13
-0.06
-0.08
-0.095
-0.125
-0.14
-0.125
-0.1
-0.12
-0.075
-0.09
-0.065
-0.09
-0.045
-0.015
0.0
0.025
0.03
0.085
0.125
0.125
0.145
0.135
0.195
0.18
0.185
0.14
0.11
0.07
0.025
-0.02
-0.05
-0.055
-0.045
-0.055
-0.03
-0.04
-0.045
-0.04
0.0
-0.04
-0.045
-0.04
-0.045
-0.025
0.03
0.05
0.075
0.095
0.12
0.125
0.06
0.02
-0.02
-0.11
-0.13
-0.13
-0.12
-0.13
-0.105
-0.16
-0.13
0.055
0.43
0.405
-0.115
-0.06
-0.025
-0.075
-0.12
-0.14
-0.115
-0.12
-0.105
-0.1
-0.095
-0.105
-0.07
-0.045
-0.035
-0.04
0.015
0.025
0.05
0.085
0.12
0.14
0.145
0.15
0.165
0.175
0.17
0.15
0.11
0.05
0.01
-0.03
-0.03
-0.035
-0.045
-0.025
-0.045
-0.025
-0.035
-0.025
-0.03
-0.03
-0.065
-0.035
-0.025
0.015
0.06
0.07
0.06
0.14
0.11
0.115
0.025
0.005
-0.085
-0.095
-0.12
-0.11
-0.12
-0.105
-0.135
-0.15
-0.155
0.2
0.67
-0.11
-0.145
-0.04
-0.005
-0.1
-0.13
-0.12
-0.135
-0.11
-0.12
-0.095
-0.085
-0.06
-0.055
-0.025
-0.025
0.0
0.015
0.06
0.075
0.11
0.125
0.155
0.17
0.17
0.17
0.18
0.17
0.125
0.065
0.045
0.0
-0.01
-0.03
-0.02
-0.025
-0.025
-0.025
-0.025
-0.035
-0.02
-0.025
-0.03
-0.03
-0.015
0.0
0.05
0.05
0.07
0.095
0.13
0.12
0.05
0.03
-0.025
-0.085
-0.115
-0.13
-0.12
-0.125
-0.11
-0.15
-0.17
-0.01
0.29
0.25
-0.17
-0.11
-0.05
-0.08
-0.11
-0.125
-0.125
-0.125
-0.115
-0.11
-0.09
-0.095
-0.075
-0.055
-0.03
-0.02
0.0
0.03
0.06
0.095
0.125
0.135
0.16
0.165
0.17
0.185
0.18
0.135
0.075
0.05
0.0
-0.015
-0.045
-0.045
-0.05
-0.04
-0.035
-0.035
-0.04
-0.015
-0.03
-0.025
-0.04
-0.02
0.0
0.05
0.055
0.085
0.09
0.15
0.115
0.065
0.015
0.0
-0.095
-0.085
-0.12
-0.115
-0.125
-0.11
-0.15
-0.14
-0.065
0.195
0.465
-0.18
-0.135
-0.045
-0.065
-0.115
-0.13
-0.12
-0.145
-0.115
-0.13
-0.095
-0.085
-0.055
-0.075
-0.035
-0.04
0.01
0.025
0.06
0.09
0.125
0.12
0.17
0.175
0.165
0.195
0.19
0.155
0.1
0.04
0.015
-0.01
-0.035
-0.035
-0.055
-0.035
-0.045
-0.03
-0.035
-0.025
-0.04
-0.03
-0.04
-0.02
-0.025
0.025
0.06
0.08
0.07
0.15
0.125
0.075
0.015
0.0
-0.095
-0.12
-0.135
-0.09
-0.105
-0.125
-0.145
-0.13
-0.08
0.235
0.59
-0.165
-0.145
-0.075
-0.065
-0.105
-0.13
-0.115
-0.13
-0.13
-0.135
-0.085
-0.085
-0.055
-0.08
-0.05
-0.03
0.02
0.04
0.045
0.055
0.115
0.14
0.15
0.16
0.17
0.195
0.2
0.15
0.115
0.055
0.035
-0.015
-0.03
-0.05
-0.035
-0.02
-0.05
-0.02
-0.025
-0.025
-0.03
-0.015
-0.025
-0.03
-0.02
0.035
0.055
0.09
0.09
0.155
0.135
0.08
0.015
0.0
-0.105
-0.115
-0.11
-0.105
-0.125
-0.1
-0.15
-0.14
-0.04
0.325
0.59
-0.13
-0.105
-0.03
-0.055
-0.115
-0.135
-0.1
-0.125
-0.105
-0.12
-0.095
-0.1
-0.06
-0.055
-0.03
-0.01
0.0
0.015
0.065
0.075
0.12
0.145
0.165
0.155
0.16
0.175
0.18
0.16
0.11
0.055
0.02
-0.01
-0.025
-0.035
-0.03
-0.03
-0.03
-0.015
-0.025
-0.02
-0.035
-0.03
-0.03
-0.005
0.0
0.055
0.07
0.085
0.09
0.155
0.13
0.065
0.03
-0.01
-0.095
-0.105
-0.13
-0.11
-0.105
-0.105
-0.145
-0.16
-0.05
0.26
0.445
-0.18
-0.125
-0.015
-0.05
-0.115
-0.125
-0.115
-0.125
-0.11
-0.105
-0.09
-0.09
-0.06
-0.055
-0.025
-0.015
0.015
0.03
0.07
0.095
0.135
0.15
0.165
0.17
0.185
0.185
0.175
0.155
0.1
0.05
0.01
-0.01
-0.025
-0.04
-0.04
-0.04
-0.04
-0.03
-0.04
-0.03
-0.045
-0.035
-0.05
-0.03
-0.02
0.035
0.045
0.06
0.07
0.13
0.11
0.075
0.015
0.0
-0.11
-0.105
-0.135
-0.105
-0.135
-0.1
-0.14
-0.15
-0.13
0.145
0.505
-0.2
-0.165
-0.055
-0.055
-0.11
-0.14
-0.11
-0.13
-0.11
-0.11
-0.105
-0.09
-0.07
-0.06
-0.04
-0.03
0.0
0.015
0.07
0.09
0.145
0.145
0.18
0.175
0.19
0.2
0.195
0.16
0.115
0.065
0.03
-0.015
-0.045
-0.035
-0.045
-0.05
-0.04
-0.035
-0.03
-0.025
-0.045
-0.04
-0.03
-0.03
-0.01
0.055
0.05
0.055
0.075
0.135
0.115
0.09
0.015
-0.02
-0.115
-0.12
-0.135
-0.105
-0.12
-0.095
-0.15
-0.13
-0.12
0.18
0.53
-0.195
-0.145
-0.09
-0.065
-0.115
-0.14
-0.105
-0.135
-0.125
-0.13
-0.09
-0.085
-0.055
-0.08
-0.04
-0.02
0.005
0.03
0.055
0.08
0.125
0.13
0.16
0.155
0.195
0.19
0.2
0.15
0.095
0.045
0.03
-0.02
-0.05
-0.055
-0.055
-0.02
-0.04
-0.05
-0.055
-0.025
-0.04
-0.03
-0.07
-0.035
-0.035
0.025
0.055
0.055
0.07
0.145
0.095
0.105
0.01
0.005
-0.11
-0.105
-0.115
-0.12
-0.13
-0.1
-0.155
-0.14
-0.11
0.22
0.705
-0.14
-0.16
-0.06
-0.03
-0.1
-0.15
-0.115
-0.155
-0.11
-0.13
-0.105
-0.095
-0.065
-0.08
-0.03
-0.04
0.005
0.0
0.045
0.075
0.115
0.135
0.155
0.16
0.155
0.165
0.195
0.19
0.14
0.06
0.005
0.005
-0.02
-0.02
-0.04
-0.035
-0.045
-0.025
-0.05
-0.03
-0.02
-0.01
-0.04
-0.06
-0.015
0.015
0.06
0.06
0.085
0.135
0.11
0.135
0.03
0.02
-0.08
-0.115
-0.115
-0.11
-0.115
-0.105
-0.125
-0.16
-0.17
0.17
0.65
-0.005
-0.135
-0.045
-0.01
-0.09
-0.13
-0.12
-0.135
-0.115
-0.12
-0.09
-0.12
-0.06
-0.065
-0.025
-0.04
-0.015
0.0
0.05
0.06
0.095
0.13
0.15
0.155
0.155
0.18
0.19
0.165
0.135
0.08
0.03
0.0
-0.02
-0.045
-0.03
-0.035
-0.035
-0.04
-0.04
-0.03
-0.025
-0.03
-0.035
-0.03
-0.035
0.0
0.07
0.065
0.075
0.12
0.12
0.12
0.04
0.025
-0.05
-0.105
-0.1
-0.11
-0.11
-0.115
-0.115
-0.15
-0.16
0.06
0.41
0.14
-0.17
-0.09
-0.01
-0.08
-0.115
-0.12
-0.12
-0.11
-0.115
-0.095
-0.09
-0.08
-0.065
-0.05
-0.035
-0.02
0.01
0.045
0.075
0.1
0.13
0.145
0.17
0.175
0.18
0.18
0.165
0.14
0.085
0.035
0.0
-0.01
-0.025
-0.04
-0.045
-0.035
-0.05
-0.035
-0.055
-0.025
-0.045
-0.03
-0.035
-0.035
-0.025
0.03
0.05
0.06
0.05
0.135
0.1
0.085
0.02
0.0
-0.095
-0.115
-0.125
-0.105
-0.125
-0.1
-0.13
-0.14
-0.155
0.13
0.555
-0.2
-0.17
-0.06
-0.03
-0.1
-0.135
-0.125
-0.13
-0.09
-0.105
-0.085
-0.095
-0.045
-0.06
-0.03
-0.025
0.025
0.04
0.06
0.075
0.13
0.15
0.185
0.175
0.185
0.185
0.215
0.165
0.12
0.06
0.015
-0.015
-0.015
-0.035
-0.05
-0.045
-0.035
-0.035
-0.025
-0.015
-0.035
-0.015
-0.045
-0.04
-0.035
0.025
0.05
0.055
0.07
0.155
0.11
0.115
0.01
0.005
-0.08
-0.105
-0.12
-0.1
-0.105
-0.12
-0.135
-0.15
-0.13
0.11
0.51
-0.075
-0.16
-0.085
-0.04
-0.105
-0.125
-0.115
-0.14
-0.105
-0.11
-0.085
-0.095
-0.065
-0.065
-0.04
-0.02
0.005
0.02
0.045
0.07
0.11
0.13
0.175
0.17
0.175
0.175
0.205
0.18
0.155
0.085
0.025
-0.02
-0.025
-0.045
-0.035
-0.04
-0.035
-0.055
-0.025
-0.035
-0.035
-0.04
-0.055
-0.035
-0.04
-0.01
0.04
0.05
0.055
0.075
0.135
0.115
0.06
0.0
-0.025
-0.105
-0.11
-0.14
-0.12
-0.135
-0.105
-0.155
-0.135
-0.005
0.325
0.525
-0.175
-0.145
-0.04
-0.09
-0.12
-0.14
-0.125
-0.135
-0.12
-0.1
-0.095
-0.1
-0.075
-0.075
-0.05
-0.04
0.0
0.02
0.06
0.07
0.115
0.125
0.155
0.165
0.2
0.18
0.175
0.155
0.115
0.05
0.02
-0.02
-0.03
-0.025
-0.06
-0.035
-0.06
-0.03
-0.025
-0.03
-0.05
-0.015
-0.045
-0.02
-0.025
0.025
0.05
0.08
0.07
0.145
0.11
0.11
0.025
0.015
-0.095
-0.095
-0.115
-0.11
-0.13
-0.115
-0.145
-0.135
-0.125
0.23
0.715
-0.145
-0.13
-0.05
-0.02
-0.09
-0.13
-0.12
-0.14
-0.11
-0.125
-0.09
-0.085
-0.07
-0.065
-0.04
-0.02
0.005
0.0
0.065
0.075
0.13
0.145
0.16
0.155
0.18
0.175
0.19
0.165
0.13
0.065
0.015
-0.01
-0.02
-0.025
-0.03
-0.04
-0.035
-0.02
-0.025
-0.03
-0.025
-0.05
-0.04
-0.03
-0.035
0.0
0.065
0.07
0.08
0.105
0.125
0.135
0.045
0.005
-0.04
-0.095
-0.1
-0.125
-0.11
-0.105
-0.11
-0.17
-0.175
0.03
0.36
0.24
-0.165
-0.095
-0.02
-0.07
-0.11
-0.13
-0.115
-0.12
-0.105
-0.1
-0.085
-0.07
-0.075
-0.055
-0.035
-0.01
0.015
0.03
0.07
0.105
0.14
0.15
0.155
0.18
0.185
0.19
0.175
0.145
0.085
0.055
0.0
-0.005
-0.02
-0.04
-0.045
-0.04
-0.05
-0.04
-0.045
-0.03
-0.04
-0.035
-0.04
-0.025
-0.015
0.03
0.045
0.06
0.055
0.145
0.11
0.08
0.005
0.0
-0.1
-0.12
-0.13
-0.105
-0.125
-0.11
-0.15
-0.155
-0.145
0.145
0.525
-0.225
-0.175
-0.075
-0.055
-0.1
-0.14
-0.115
-0.13
-0.11
-0.11
-0.095
-0.095
-0.06
-0.07
-0.035
-0.02
0.0
0.02
0.08
0.08
0.12
0.135
0.17
0.18
0.2
0.19
0.18
0.155
0.115
0.06
0.015
-0.03
-0.04
-0.03
-0.05
-0.05
-0.045
-0.045
-0.05
-0.04
-0.045
-0.04
-0.035
-0.035
-0.04
0.005
0.035
0.05
0.065
0.14
0.095
0.11
0.03
0.01
-0.095
-0.135
-0.13
-0.105
-0.125
-0.11
-0.135
-0.16
-0.155
0.14
0.56
-0.12
-0.175
-0.055
-0.045
-0.095
-0.15
-0.135
-0.15
-0.115
-0.115
-0.09
-0.11
-0.09
-0.075
-0.05
-0.025
0.0
0.015
0.05
0.07
0.085
0.11
0.165
0.165
0.17
0.17
0.185
0.165
0.115
0.075
0.01
-0.005
-0.025
-0.045
-0.045
-0.055
-0.045
-0.04
-0.03
-0.035
-0.04
-0.03
-0.045
-0.04
-0.025
0.01
0.055
0.07
0.045
0.135
0.13
0.12
-0.005
0.015
-0.085
-0.095
-0.13
-0.115
-0.12
-0.11
-0.125
-0.14
-0.15
0.17
0.63
-0.065
-0.145
-0.075
-0.03
-0.1
-0.145
-0.13
-0.125
-0.11
-0.12
-0.08
-0.11
-0.07
-0.07
-0.025
-0.03
0.005
0.005
0.06
0.07
0.1
0.13
0.17
0.17
0.16
0.185
0.205
0.165
0.125
0.08
0.025
-0.005
-0.02
-0.045
-0.055
-0.03
-0.045
-0.045
-0.025
-0.035
-0.035
-0.03
-0.045
-0.05
-0.05
0.02
0.055
0.08
0.075
0.13
0.1
0.12
0.025
0.015
-0.1
-0.105
-0.125
-0.095
-0.125
-0.095
-0.14
-0.16
-0.135
0.21
0.72
-0.07
-0.13
-0.05
-0.015
-0.11
-0.14
-0.12
-0.13
-0.1
-0.11
-0.09
-0.105
-0.075
-0.065
-0.04
-0.04
0.0
0.025
0.05
0.07
0.12
0.125
0.16
0.16
0.185
0.185
0.195
0.175
0.13
0.08
0.03
0.0
-0.02
-0.02
-0.03
-0.03
-0.035
-0.03
-0.035
-0.02
-0.02
-0.015
-0.035
-0.035
-0.015
0.055
0.06
0.08
0.075
0.155
0.12
0.09
0.03
0.005
-0.095
-0.105
-0.13
-0.1
-0.125
-0.1
-0.145
-0.14
-0.1
0.23
0.575
-0.19
-0.14
-0.035
-0.03
-0.1
-0.13
-0.115
-0.12
-0.105
-0.125
-0.095
-0.085
-0.055
-0.065
-0.01
-0.01
0.005
0.03
0.07
0.085
0.115
0.14
0.17
0.175
0.185
0.185
0.19
0.15
0.105
0.055
0.01
-0.02
-0.035
-0.04
-0.05
-0.035
-0.04
-0.03
-0.04
-0.03
-0.035
-0.03
-0.03
-0.045
-0.005
0.05
0.05
0.065
0.085
0.125
0.115
0.06
0.01
-0.03
-0.105
-0.115
-0.13
-0.115
-0.125
-0.11
-0.16
-0.16
-0.075
0.21
0.35
-0.19
-0.115
-0.035
-0.08
-0.115
-0.12
-0.125
-0.13
-0.095
-0.11
-0.095
-0.1
-0.075
-0.06
-0.015
-0.01
0.005
0.025
0.06
0.105
0.125
0.165
0.175
0.175
0.2
0.2
0.185
0.155
0.09
0.045
-0.01
-0.02
-0.04
-0.055
-0.04
-0.035
-0.045
-0.04
-0.035
-0.045
-0.02
-0.03
-0.04
-0.04
0.005
0.06
0.06
0.075
0.125
0.125
0.12
0.035
0.0
-0.055
-0.105
-0.125
-0.11
-0.11
-0.105
-0.11
-0.16
-0.155
0.07
0.425
0.1
-0.12
-0.045
-0.045
-0.09
-0.12
-0.115
-0.105
-0.1
-0.09
-0.1
-0.085
-0.055
-0.04
-0.03
-0.02
0.0
0.025
0.05
0.095
0.105
0.14
0.18
0.165
0.195
0.2
0.215
0.215
0.135
0.09
0.04
0.005
0.0
-0.025
-0.05
-0.045
-0.03
-0.02
-0.025
-0.035
-0.035
-0.01
-0.035
-0.025
-0.015
0.0
0.07
0.055
0.06
0.145
0.115
0.115
0.025
0.015
-0.07
-0.1
-0.135
-0.115
-0.125
-0.095
-0.145
-0.17
-0.15
0.14
0.57
0.035
-0.155
-0.08
-0.025
-0.125
-0.16
-0.125
-0.12
-0.105
-0.13
-0.095
-0.09
-0.065
-0.07
-0.035
-0.025
0.0
0.005
0.05
0.08
0.105
0.135
0.16
0.16
0.165
0.185
0.21
0.185
0.14
0.085
0.04
-0.005
-0.02
-0.025
-0.035
-0.03
-0.04
-0.01
-0.03
-0.03
-0.035
-0.015
-0.035
-0.02
-0.035
0.03
0.065
0.065
0.085
0.145
0.1
0.105
0.01
0.0
-0.09
-0.1
-0.13
-0.1
-0.125
-0.105
-0.135
-0.155
-0.14
0.205
0.685
-0.13
-0.15
-0.04
-0.005
-0.09
-0.14
-0.13
-0.14
-0.1
-0.11
-0.095
-0.095
-0.06
-0.065
-0.045
-0.04
0.01
0.025
0.05
0.065
0.115
0.14
0.16
0.16
0.18
0.19
0.185
0.15
0.11
0.06
0.025
-0.005
-0.03
-0.045
-0.04
-0.04
-0.04
-0.025
-0.045
-0.03
-0.04
-0.035
-0.025
-0.025
-0.015
0.045
0.05
0.065
0.07
0.14
0.115
0.065
0.015
-0.015
-0.095
-0.11
-0.135
-0.12
-0.11
-0.1
-0.155
-0.155
-0.085
0.22
0.45
-0.19
-0.13
-0.05
-0.06
-0.105
-0.14
-0.115
-0.135
-0.1
-0.12
-0.105
-0.105
-0.065
-0.065
-0.04
-0.03
0.0
0.02
0.06
0.1
0.135
0.14
0.155
0.165
0.185
0.19
0.19
0.14
0.095
0.055
0.0
-0.02
-0.035
-0.045
-0.06
-0.05
-0.04
-0.03
-0.04
-0.03
-0.025
-0.035
-0.03
-0.02
0.02
0.045
0.055
0.07
0.115
0.115
0.13
0.03
0.015
-0.065
-0.1
-0.105
-0.1
-0.11
-0.11
-0.115
-0.15
-0.165
0.015
0.355
0.13
-0.14
-0.08
-0.05
-0.085
-0.115
-0.115
-0.105
-0.115
-0.13
-0.11
-0.1
-0.08
-0.065
-0.06
-0.025
-0.015
0.005
0.045
0.075
0.095
0.13
0.175
0.175
0.185
0.2
0.195
0.19
0.14
0.08
0.025
-0.005
-0.04
-0.05
-0.025
-0.05
-0.045
-0.05
-0.055
-0.025
-0.025
-0.02
-0.06
-0.03
-0.03
0.005
0.065
0.045
0.065
0.135
0.11
0.105
0.015
0.0
-0.075
-0.105
-0.125
-0.115
-0.125
-0.1
-0.12
-0.155
-0.165
0.12
0.565
-0.04
-0.155
-0.085
-0.055
-0.11
-0.125
-0.11
-0.135
-0.105
-0.125
-0.095
-0.1
-0.075
-0.06
-0.02
-0.025
-0.01
0.02
0.06
0.065
0.105
0.135
0.17
0.175
0.19
0.185
0.18
0.185
0.14
0.085
0.025
-0.005
-0.03
-0.04
-0.035
-0.055
-0.03
-0.01
-0.055
-0.045
-0.025
-0.03
-0.02
-0.03
-0.035
0.0
0.055
0.065
0.09
0.125
0.105
0.11
0.05
0.02
-0.065
-0.105
-0.11
-0.12
-0.125
-0.09
-0.11
-0.155
-0.135
0.105
0.515
0.25
-0.135
-0.085
-0.045
-0.08
-0.125
-0.13
-0.135
-0.115
-0.105
-0.085
-0.085
-0.08
-0.065
-0.04
-0.05
-0.005
0.015
0.04
0.065
0.11
0.135
0.145
0.18
0.19
0.19
0.195
0.185
0.135
0.095
0.03
0.0
-0.015
-0.035
-0.025
-0.05
-0.045
-0.045
-0.025
-0.035
-0.05
-0.045
-0.035
-0.04
-0.04
0.01
0.06
0.065
0.07
0.12
0.105
0.11
0.03
0.01
-0.075
-0.105
-0.11
-0.12
-0.115
-0.12
-0.12
-0.16
-0.175
0.075
0.5
0.145
-0.16
-0.08
-0.015
-0.085
-0.12
-0.13
-0.12
-0.115
-0.12
-0.105
-0.09
-0.085
-0.06
-0.055
-0.035
-0.01
0.005
0.02
0.07
0.1
0.115
0.16
0.18
0.175
0.175
0.19
0.165
0.135
0.085
0.04
0.0
-0.02
-0.045
-0.04
-0.03
-0.035
-0.045
-0.025
-0.035
-0.025
-0.035
-0.03
-0.04
-0.04
-0.005
0.03
0.05
0.07
0.07
0.145
0.11
0.075
0.015
0.005
-0.09
-0.095
-0.125
-0.11
-0.12
-0.105
-0.14
-0.135
-0.135
0.17
0.57
-0.195
-0.155
-0.065
-0.04
-0.085
-0.125
-0.11
-0.13
-0.105
-0.105
-0.085
-0.09
-0.06
-0.07
-0.035
-0.02
0.02
0.02
0.07
0.085
0.135
0.135
0.16
0.175
0.185
0.175
0.195
0.145
0.12
0.065
0.015
-0.015
-0.04
-0.05
-0.045
-0.04
-0.035
-0.03
-0.045
-0.04
-0.035
-0.045
-0.04
-0.03
-0.04
0.0
0.04
0.035
0.06
0.115
0.115
0.12
0.025
0.005
-0.085
-0.12
-0.135
-0.12
-0.115
-0.135
-0.115
-0.155
-0.17
0.015
0.345
0.14
-0.145
-0.095
-0.04
-0.095
-0.115
-0.15
-0.145
-0.135
-0.12
-0.125
-0.105
-0.075
-0.09
-0.06
-0.045
-0.02
0.0
0.03
0.065
0.095
0.12
0.15
0.16
0.185
0.185
0.195
0.17
0.15
0.09
0.03
-0.01
-0.04
-0.045
-0.04
-0.03
-0.065
-0.065
-0.035
-0.015
-0.035
-0.055
-0.025
-0.04
-0.035
-0.04
0.005
0.05
0.045
0.06
0.125
0.115
0.12
0.015
0.01
-0.11
-0.1
-0.125
-0.1
-0.15
-0.1
-0.12
-0.145
-0.15
0.16
0.625
-0.06
-0.18
-0.085
-0.04
-0.105
-0.14
-0.135
-0.125
-0.105
-0.11
-0.105
-0.11
-0.055
-0.07
-0.03
-0.04
-0.01
0.015
0.025
0.065
0.09
0.12
0.15
0.165
0.195
0.17
0.19
0.18
0.14
0.07
0.02
-0.01
-0.005
-0.035
-0.055
-0.045
-0.035
-0.03
-0.035
-0.04
-0.04
-0.045
-0.02
-0.065
-0.05
-0.02
0.05
0.065
0.07
0.095
0.13
0.12
0.045
0.0
-0.02
-0.11
-0.125
-0.12
-0.115
-0.125
-0.11
-0.18
-0.125
0.035
0.425
0.45
-0.13
-0.09
-0.025
-0.065
-0.105
-0.12
-0.125
-0.125
-0.11
-0.13
-0.09
-0.075
-0.07
-0.06
-0.045
-0.02
0.01
0.02
0.055
0.08
0.12
0.15
0.145
0.16
0.185
0.185
0.17
0.155
0.11
0.035
0.0
-0.01
-0.03
-0.03
-0.045
-0.04
-0.035
-0.03
-0.035
-0.015
-0.035
-0.03
-0.045
-0.025
-0.035
0.01
0.07
0.07
0.08
0.155
0.095
0.11
0.04
0.02
-0.08
-0.11
-0.115
-0.095
-0.115
-0.11
-0.125
-0.15
-0.15
0.175
0.645
-0.085
-0.155
-0.06
-0.01
-0.1
-0.135
-0.105
-0.13
-0.11
-0.12
-0.09
-0.09
-0.065
-0.065
-0.04
-0.025
0.005
0.025
0.06
0.07
0.115
0.135
0.175
0.175
0.195
0.185
0.18
0.17
0.14
0.08
0.03
0.0
-0.005
-0.03
-0.02
-0.03
-0.03
-0.03
-0.04
-0.03
-0.02
-0.04
-0.03
-0.04
-0.035
-0.03
0.015
0.055
0.06
0.065
0.14
0.1
0.085
0.01
0.005
-0.11
-0.13
-0.145
-0.12
-0.13
-0.105
-0.14
-0.16
-0.175
0.11
0.56
-0.15
-0.175
-0.075
-0.04
-0.105
-0.135
-0.125
-0.145
-0.115
-0.13
-0.105
-0.1
-0.075
-0.07
-0.04
-0.04
0.0
0.02
0.055
0.085
0.11
0.125
0.16
0.17
0.185
0.185
0.2
0.175
0.125
0.075
0.03
0.0
-0.03
-0.035
-0.035
-0.025
-0.03
-0.03
-0.035
-0.03
-0.015
-0.005
-0.015
-0.035
-0.04
-0.035
0.005
0.065
0.055
0.095
0.11
0.11
0.125
0.05
0.025
-0.05
-0.09
-0.12
-0.115
-0.105
-0.115
-0.1
-0.14
-0.12
0.02
0.325
0.25
-0.155
-0.105
-0.05
-0.095
-0.09
-0.135
-0.13
-0.13
-0.11
-0.09
-0.09
-0.09
-0.065
-0.05
-0.035
-0.01
0.005
0.05
0.075
0.09
0.135
0.14
0.175
0.18
0.2
0.18
0.195
0.16
0.11
0.05
0.0
-0.02
-0.015
-0.03
-0.045
-0.055
-0.045
-0.02
-0.025
-0.03
-0.02
-0.03
-0.02
-0.04
-0.04
0.0
0.04
0.05
0.065
0.115
0.15
0.115
0.06
0.0
-0.04
-0.11
-0.12
-0.115
-0.11
-0.125
-0.09
-0.16
-0.125
0.02
0.355
0.455
-0.18
-0.12
-0.04
-0.085
-0.115
-0.14
-0.135
-0.115
-0.095
-0.12
-0.09
-0.1
-0.08
-0.065
-0.03
-0.01
0.0
0.02
0.06
0.09
0.125
0.145
0.185
0.16
0.195
0.18
0.18
0.145
0.145
0.06
0.01
-0.005
-0.035
-0.04
-0.05
-0.03
-0.04
-0.03
-0.03
-0.01
-0.025
-0.035
-0.025
-0.025
-0.035
-0.01
0.05
0.05
0.07
0.135
0.095
0.13
0.01
0.005
-0.08
-0.11
-0.135
-0.13
-0.125
-0.105
-0.145
-0.18
-0.155
0.175
0.64
0.07
-0.14
-0.045
-0.005
-0.12
-0.115
-0.12
-0.135
-0.13
-0.115
-0.095
-0.115
-0.065
-0.095
-0.06
-0.03
-0.01
0.0
0.04
0.065
0.12
0.135
0.135
0.145
0.17
0.175
0.2
0.17
0.135
0.08
0.055
0.01
-0.015
-0.03
-0.035
-0.03
-0.025
-0.025
-0.05
-0.03
-0.02
-0.03
-0.02
-0.05
-0.025
-0.025
0.02
0.055
0.07
0.06
0.17
0.115
0.075
0.0
0.005
-0.115
-0.115
-0.125
-0.115
-0.13
-0.11
-0.155
-0.17
-0.12
0.245
0.68
-0.185
-0.165
-0.04
-0.045
-0.125
-0.135
-0.115
-0.135
-0.11
-0.1
-0.08
-0.105
-0.065
-0.065
-0.04
-0.045
0.0
0.01
0.06
0.06
0.11
0.14
0.155
0.145
0.175
0.18
0.185
0.155
0.115
0.055
0.03
-0.01
-0.015
-0.03
-0.02
-0.04
-0.03
-0.025
-0.045
-0.04
-0.025
-0.025
-0.045
-0.035
-0.04
-0.015
0.045
0.04
0.065
0.1
0.125
0.125
0.04
0.02
-0.03
-0.115
-0.12
-0.125
-0.125
-0.12
-0.11
-0.16
-0.155
0.02
0.33
0.295
-0.16
-0.1
-0.02
-0.085
-0.125
-0.14
-0.11
-0.13
-0.125
-0.11
-0.085
-0.09
-0.07
-0.05
-0.035
-0.025
0.0
0.035
0.065
0.085
0.115
0.14
0.16
0.165
0.17
0.185
0.165
0.14
0.11
0.05
0.02
-0.01
-0.055
-0.045
-0.04
-0.015
-0.02
-0.045
-0.03
-0.02
-0.025
-0.025
-0.035
-0.04
-0.005
0.06
0.07
0.075
0.095
0.135
0.135
0.045
0.02
-0.065
-0.085
-0.115
-0.12
-0.105
-0.11
-0.12
-0.15
-0.13
0.055
0.4
0.215
-0.14
-0.075
-0.05
-0.085
-0.1
-0.115
-0.14
-0.135
-0.105
-0.08
-0.08
-0.08
-0.07
-0.045
-0.03
-0.01
0.025
0.03
0.08
0.1
0.125
0.16
0.175
0.15
0.19
0.21
0.175
0.145
0.1
0.03
0.0
-0.035
-0.035
-0.045
-0.045
-0.025
-0.04
-0.05
-0.04
-0.04
-0.015
-0.05
-0.03
-0.025
0.015
0.075
0.06
0.06
0.15
0.12
0.11
0.02
0.0
-0.105
-0.1
-0.13
-0.095
-0.13
-0.135
-0.14
-0.125
-0.095
0.255
0.7
-0.12
-0.155
-0.03
-0.04
-0.115
-0.14
-0.13
-0.135
-0.115
-0.125
-0.1
-0.09
-0.07
-0.075
-0.03
-0.005
0.02
0.005
0.05
0.065
0.115
0.145
0.15
0.155
0.17
0.175
0.185
0.155
0.11
0.06
0.03
-0.005
-0.025
-0.035
-0.025
-0.06
-0.05
-0.025
-0.02
-0.04
-0.02
-0.035
-0.03
-0.03
0.05
0.075
0.055
0.08
0.17
0.135
0.115
0.03
0.025
-0.085
-0.095
-0.135
-0.095
-0.11
-0.095
-0.135
-0.14
-0.11
0.245
0.69
-0.155
-0.155
-0.04
-0.015
-0.09
-0.125
-0.11
-0.13
-0.115
-0.12
-0.085
-0.105
-0.065
-0.065
-0.025
-0.035
0.0
0.035
0.065
0.06
0.105
0.115
0.145
0.175
0.19
0.175
0.2
0.175
0.12
0.06
0.01
0.0
-0.025
-0.035
-0.025
-0.045
-0.025
-0.03
-0.035
-0.03
-0.02
-0.025
-0.03
-0.01
0.055
0.08
0.075
0.09
0.15
0.125
0.085
0.03
0.01
-0.09
-0.105
-0.125
-0.11
-0.11
-0.095
-0.15
-0.145
-0.07
0.27
0.46
-0.19
-0.12
-0.04
-0.045
-0.09
-0.115
-0.105
-0.14
-0.11
-0.09
-0.085
-0.1
-0.05
-0.05
-0.03
0.0
0.02
0.04
0.065
0.09
0.135
0.145
0.165
0.19
0.205
0.195
0.18
0.145
0.1
0.04
0.015
-0.005
-0.02
-0.03
-0.03
-0.02
-0.035
-0.035
-0.035
-0.015
-0.04
-0.035
-0.03
0.035
0.07
0.08
0.055
0.155
0.125
0.13
0.045
0.02
-0.085
-0.08
-0.125
-0.105
-0.115
-0.085
-0.135
-0.155
-0.155
0.165
0.57
-0.21
-0.175
-0.055
-0.025
-0.095
-0.11
-0.12
-0.145
-0.11
-0.11
-0.09
-0.1
-0.065
-0.065
-0.04
-0.025
0.0
0.005
0.07
0.095
0.13
0.13
0.16
0.155
0.2
0.2
0.185
0.155
0.125
0.07
0.01
-0.03
-0.035
-0.04
-0.03
-0.015
-0.06
-0.05
-0.03
-0.005
-0.02
-0.03
-0.045
0.03
0.09
0.085
0.06
0.14
0.12
0.14
0.02
0.02
-0.08
-0.09
-0.125
-0.12
-0.115
-0.115
-0.12
-0.175
-0.175
0.145
0.595
-0.08
-0.17
-0.08
-0.05
-0.125
-0.125
-0.12
-0.15
-0.13
-0.11
-0.105
-0.085
-0.065
-0.08
-0.035
-0.035
-0.01
0.0
0.05
0.07
0.135
0.115
0.13
0.155
0.19
0.19
0.185
0.135
0.12
0.065
0.005
-0.03
-0.03
-0.055
-0.07
-0.04
-0.045
-0.035
-0.065
-0.055
-0.065
-0.02
-0.035
0.0
0.015
0.055
0.075
0.145
0.11
0.105
-0.02
0.005
-0.1
-0.095
-0.14
-0.115
-0.15
-0.12
-0.165
-0.18
-0.135
0.2
0.685
-0.135
-0.17
-0.075
-0.015
-0.115
-0.155
-0.125
-0.135
-0.12
-0.14
-0.095
-0.13
-0.075
-0.065
-0.025
-0.05
0.0
-0.01
0.07
0.07
0.085
0.145
0.145
0.18
0.205
0.175
0.175
0.16
0.12
0.06
0.02
-0.03
-0.02
-0.01
-0.02
-0.035
-0.055
-0.03
0.0
-0.02
-0.03
0.0
-0.015
0.055
0.09
0.09
0.125
0.175
0.13
0.15
0.03
0.06
-0.04
-0.05
-0.075
-0.065
-0.075
-0.05
-0.13
-0.12
-0.035
0.26
0.685
-0.15
-0.105
0.015
0.0
-0.04
-0.095
-0.07
-0.09
-0.085
-0.09
-0.055
-0.035
-0.005
-0.03
0.005
0.01
0.035
0.065
0.07
0.095
0.145
0.165
0.235
0.215
0.21
0.2
0.21
0.18
0.135
0.075
0.045
0.005
-0.015
-0.025
0.0
0.0
-0.015
-0.025
-0.05
-0.02
-0.025
-0.01
-0.03
0.055
0.055
0.095
0.06
0.165
0.11
0.16
0.01
0.04
-0.06
-0.085
-0.09
-0.1
-0.11
-0.11
-0.1
-0.15
-0.165
0.165
0.61
-0.2
-0.22
-0.055
0.025
-0.1
-0.12
-0.12
-0.125
-0.095
-0.12
-0.075
-0.08
-0.055
-0.055
-0.07
-0.01
0.0
0.015
0.065
0.045
0.135
0.105
0.155
0.135
0.15
0.185
0.18
0.125
0.14
0.08
0.05
-0.025
-0.015
-0.025
-0.055
-0.005
-0.05
-0.035
0.0
-0.03
-0.045
-0.025
-0.015
0.025
0.095
0.06
0.07
0.195
0.13
0.12
0.05
-0.03
-0.12
-0.1
-0.08
-0.085
-0.165
-0.115
-0.105
-0.12
-0.09
0.26
0.5
-0.245
-0.19
0.01
-0.02
-0.16
-0.135
-0.075
-0.115
-0.115
-0.135
-0.105
-0.135
-0.075
-0.045
-0.01
-0.04
-0.025
-0.025
0.05
0.075
0.085
0.12
0.125
0.16
0.07
0.15
0.2
0.09
0.065
0.065
-0.015
-0.035
-0.055
-0.035
-0.05
-0.095
-0.035
-0.045
-0.045
-0.085
-0.075
-0.075
-0.02
0.015
0.07
0.05
0.085
0.11
0.105
0.02
0.005
-0.035
-0.115
-0.115
-0.135
-0.155
-0.12
-0.14
-0.205
-0.195
0.135
0.49
0.105
-0.165
-0.11
0.015
-0.14
-0.13
-0.155
-0.15
-0.105
-0.16
-0.085
-0.125
-0.1
-0.05
-0.09
-0.065
0.01
0.0
-0.005
0.065
0.09
0.11
0.105
0.15
0.175
0.14
0.185
0.175
0.115
0.11
0.03
-0.01
-0.035
-0.065
-0.045
-0.045
-0.055
-0.05
-0.045
-0.065
-0.07
-0.045
-0.035
-0.015
0.045
0.065
0.08
0.135
0.08
0.13
0.02
0.01
-0.08
-0.115
-0.14
-0.105
-0.12
-0.115
-0.165
-0.15
-0.1
0.225
0.535
-0.27
-0.24
-0.075
-0.04
-0.105
-0.12
-0.08
-0.14
-0.135
-0.115
-0.08
-0.095
-0.085
-0.05
-0.01
-0.035
0.0
0.015
0.06
0.06
0.135
0.13
0.17
0.185
0.175
0.22
0.245
0.185
0.14
0.055
0.015
0.0
-0.04
-0.02
-0.035
-0.08
-0.015
-0.03
-0.04
-0.03
-0.02
-0.04
-0.035
0.025
0.07
0.06
0.095
0.155
0.11
0.1
0.025
0.0
-0.095
-0.105
-0.15
-0.115
-0.095
-0.155
-0.15
-0.12
0.075
0.295
0.285
-0.18
-0.125
-0.05
-0.11
-0.11
-0.145
-0.115
-0.14
-0.13
-0.1
-0.12
-0.1
-0.09
-0.06
-0.04
-0.03
0.015
0.005
0.065
0.075
0.145
0.14
0.155
0.185
0.21
0.2
0.18
0.17
0.11
0.03
0.0
-0.015
-0.035
-0.03
-0.035
-0.025
-0.01
-0.02
-0.06
-0.045
-0.025
0.0
0.015
0.025
0.07
0.065
0.13
0.125
0.17
0.05
0.01
-0.065
-0.09
-0.15
-0.085
-0.13
-0.095
-0.14
-0.165
-0.09
0.28
0.685
-0.15
-0.155
-0.065
-0.045
-0.09
-0.145
-0.125
-0.15
-0.115
-0.12
-0.1
-0.09
-0.085
-0.075
-0.05
-0.005
0.01
0.015
0.015
0.055
0.105
0.115
0.135
0.125
0.16
0.185
0.205
0.16
0.13
0.065
0.025
-0.02
-0.01
-0.03
-0.02
-0.02
-0.04
-0.025
-0.015
-0.035
-0.03
-0.03
0.015
0.05
0.09
0.075
0.09
0.14
0.185
0.025
0.04
-0.06
-0.08
-0.125
-0.105
-0.11
-0.095
-0.15
-0.165
-0.125
0.26
0.64
-0.165
-0.165
-0.075
-0.015
-0.095
-0.12
-0.095
-0.135
-0.08
-0.095
-0.1
-0.08
-0.055
-0.05
-0.005
-0.02
0.0
0.015
0.035
0.1
0.115
0.13
0.145
0.14
0.17
0.2
0.23
0.17
0.125
0.045
0.005
0.0
0.005
-0.025
-0.025
-0.055
-0.025
-0.02
-0.055
-0.035
-0.01
-0.055
0.005
0.095
0.06
0.075
0.14
0.14
0.13
0.005
0.02
-0.06
-0.055
-0.125
-0.13
-0.13
-0.09
-0.125
-0.16
-0.16
0.165
0.595
-0.235
-0.22
-0.045
-0.03
-0.13
-0.155
-0.07
-0.13
-0.13
-0.12
-0.095
-0.095
-0.055
-0.065
-0.02
-0.025
0.01
0.02
0.065
0.08
0.11
0.145
0.155
0.17
0.175
0.175
0.195
0.165
0.13
0.07
0.025
-0.02
-0.02
-0.015
-0.015
-0.06
-0.03
-0.025
-0.015
-0.025
-0.02
-0.015
0.0
0.045
0.11
0.105
0.16
0.15
0.125
0.025
0.005
-0.035
-0.105
-0.135
-0.065
-0.1
-0.115
-0.17
-0.175
-0.065
0.245
0.42
-0.235
-0.16
-0.045
-0.07
-0.09
-0.105
-0.11
-0.12
-0.115
-0.075
-0.075
-0.075
-0.065
-0.035
-0.035
-0.01
0.015
0.035
0.07
0.08
0.13
0.175
0.165
0.135
0.165
0.2
0.2
0.165
0.11
0.035
0.0
-0.03
-0.005
-0.015
-0.02
-0.04
-0.01
-0.005
-0.02
-0.035
-0.035
0.045
0.08
0.11
0.085
0.175
0.145
0.17
0.045
0.045
-0.01
-0.06
-0.1
-0.075
-0.145
-0.065
-0.095
-0.145
-0.125
0.185
0.575
-0.165
-0.15
-0.035
-0.005
-0.105
-0.115
-0.085
-0.12
-0.085
-0.095
-0.055
-0.08
-0.03
-0.025
-0.02
-0.025
0.035
0.055
0.075
0.09
0.13
0.15
0.155
0.19
0.195
0.2
0.195
0.15
0.1
0.075
0.035
-0.01
-0.03
-0.01
-0.04
-0.04
-0.02
-0.035
-0.015
-0.005
-0.07
0.015
0.075
0.075
0.07
0.1
0.15
0.135
0.035
0.035
-0.025
-0.07
-0.11
-0.125
-0.1
-0.085
-0.165
-0.16
-0.145
0.145
0.655
-0.09
-0.155
-0.04
-0.035
-0.075
-0.205
-0.115
-0.13
-0.115
-0.135
-0.1
-0.125
-0.055
-0.06
-0.055
-0.03
-0.015
0.015
0.03
0.07
0.095
0.13
0.105
0.155
0.15
0.18
0.165
0.155
0.115
0.04
0.0
-0.015
-0.05
-0.05
-0.06
-0.06
-0.02
-0.045
-0.045
-0.03
-0.065
0.005
0.045
0.085
0.02
0.135
0.135
0.125
0.065
0.015
-0.06
-0.12
-0.115
-0.11
-0.15
-0.1
-0.14
-0.22
-0.2
0.19
0.565
-0.23
-0.19
-0.075
-0.045
-0.14
-0.155
-0.135
-0.175
-0.12
-0.135
-0.145
-0.155
-0.15
-0.06
-0.03
-0.045
0.015
-0.01
0.04
0.09
0.11
0.125
0.17
0.13
0.085
0.125
0.225
0.22
0.125
0.055
0.015
-0.03
-0.065
-0.075
-0.035
-0.03
-0.05
-0.085
-0.07
-0.065
-0.06
-0.015
0.015
0.045
0.055
0.125
0.09
0.15
-0.005
0.0
0.045
-0.16
-0.21
-0.13
-0.16
-0.065
-0.13
-0.215
-0.245
0.17
0.48
-0.305
-0.22
-0.145
-0.08
-0.09
-0.135
-0.13
-0.19
-0.095
-0.045
-0.095
-0.11
-0.07
-0.06
0.0
-0.015
0.015
0.035
0.0
0.13
0.1
0.135
0.2
0.175
0.215
0.22
0.205
0.18
0.125
0.075
0.0
0.01
-0.015
-0.045
-0.065
-0.03
-0.01
-0.07
-0.01
-0.03
-0.01
-0.02
0.05
0.12
0.095
0.125
0.18
0.105
0.105
0.02
0.025
-0.06
-0.08
-0.095
-0.15
-0.08
-0.12
-0.12
-0.15
0.085
0.37
0.04
-0.305
-0.08
-0.035
-0.045
-0.09
-0.12
-0.085
-0.065
-0.055
-0.04
-0.035
-0.075
-0.03
0.005
0.04
0.04
0.075
0.12
0.1
0.155
0.1
0.285
0.255
0.21
0.3
0.235
0.205
0.205
0.205
0.145
0.04
0.055
0.06
0.02
0.06
0.14
0.07
0.015
0.025
0.16
0.07
0.0
0.255
0.235
0.095
0.245
0.3
0.245
0.055
0.095
0.075
0.085
-0.125
-0.055
-0.005
-0.13
-0.125
-0.005
0.065
0.445
0.38
-0.32
-0.155
0.07
-0.32
-0.135
-0.005
-0.15
-0.095
-0.31
-0.295
-0.1
-0.095
-0.165
-0.025
-0.16
-0.03
-0.16
-0.055
0.125
0.055
0.025
0.005
0.115
0.07
0.265
0.115
-0.045
0.17
0.065
0.04
-0.08
-0.085
-0.235
-0.1
-0.03
0.02
-0.04
-0.135
-0.01
-0.055
-0.005
-0.005
-0.07
0.2
0.085
0.065
0.125
0.17
0.145
0.02
-0.01
-0.115
-0.11
-0.075
-0.115
-0.09
-0.135
-0.215
-0.135
0.195
0.41
-0.23
-0.3
-0.16
-0.01
-0.16
-0.125
-0.175
-0.15
-0.075
-0.15
-0.13
-0.125
-0.085
-0.095
-0.01
-0.07
0.03
-0.005
0.015
0.03
0.09
0.045
0.14
0.18
0.16
0.155
0.085
0.12
0.125
0.035
-0.025
-0.065
-0.1
-0.11
-0.07
-0.065
-0.13
-0.08
-0.05
-0.04
-0.185
-0.105
-0.04
-0.02
0.025
0.11
0.07
0.065
0.115
-0.02
-0.025
-0.045
-0.14
-0.31
-0.11
-0.15
-0.155
-0.265
-0.215
-0.175
0.135
0.365
-0.35
-0.36
-0.125
-0.14
-0.12
-0.055
-0.295
-0.235
-0.11
-0.145
-0.1
-0.205
-0.03
-0.005
-0.185
-0.165
0.0
-0.04
0.0
-0.03
0.12
0.18
0.145
-0.02
0.075
0.0
0.2
0.195
0.155
0.025
-0.08
0.07
-0.025
-0.18
-0.035
0.015
-0.045
-0.09
-0.12
0.02
-0.015
0.01
-0.135
0.09
0.17
0.21
0.08
0.115
0.165
0.13
0.055
0.0
-0.09
-0.135
-0.05
-0.06
-0.065
-0.065
-0.09
-0.055
0.2
0.485
0.035
-0.19
-0.105
0.05
-0.065
-0.11
-0.115
-0.07
-0.14
-0.08
-0.015
-0.05
-0.005
-0.025
-0.02
-0.025
0.035
0.0
0.075
0.085
0.095
0.11
0.125
0.165
0.18
0.17
0.185
0.155
0.15
0.11
0.065
0.025
-0.025
0.0
-0.015
0.015
-0.03
-0.04
0.005
-0.02
-0.02
0.025
-0.005
0.085
0.115
0.105
0.175
0.22
0.2
0.13
0.05
0.055
0.0
-0.04
-0.07
-0.065
-0.025
-0.06
-0.095
0.005
0.175
0.465
0.405
-0.135
-0.175
0.13
-0.015
-0.035
-0.045
-0.035
-0.055
-0.02
-0.085
-0.165
0.045
0.025
0.06
0.055
0.07
0.02
0.105
0.14
0.18
0.19
0.18
0.2
0.075
0.345
0.275
0.225
0.165
0.025
0.18
0.1
-0.045
-0.02
0.005
-0.05
0.025
-0.055
-0.04
-0.04
-0.11
0.04
-0.045
-0.005
0.045
0.12
0.07
0.115
0.155
0.09
0.08
0.07
-0.035
-0.12
-0.095
-0.105
-0.135
-0.185
-0.115
-0.1
-0.095
0.13
0.525
-0.175
-0.245
-0.125
0.035
-0.115
-0.17
-0.045
-0.135
-0.075
-0.125
-0.09
-0.125
-0.075
-0.045
-0.02
-0.01
-0.005
0.01
0.07
0.05
0.115
0.095
0.17
0.16
0.155
0.19
0.2
0.195
0.145
0.075
0.04
0.035
-0.035
-0.1
-0.055
-0.04
-0.01
-0.06
-0.025
0.005
-0.025
-0.12
0.0
0.03
0.105
0.05
0.055
0.135
0.125
0.03
-0.055
0.0
-0.045
-0.15
-0.19
-0.135
-0.15
-0.165
-0.245
-0.215
0.07
0.38
-0.125
-0.305
-0.075
-0.05
-0.175
-0.19
-0.08
-0.275
-0.155
-0.165
-0.135
-0.185
-0.245
-0.13
-0.135
0.015
-0.155
0.0
-0.03
0.0
0.075
0.06
0.06
0.065
0.095
0.22
0.205
0.295
0.025
0.09
0.08
-0.045
0.0
-0.02
-0.055
-0.065
0.025
0.01
0.16
-0.025
-0.055
-0.14
-0.06
0.0
0.1
0.15
0.095
0.2
0.16
0.065
0.115
0.12
-0.06
-0.145
-0.145
-0.07
-0.12
-0.21
-0.16
-0.06
0.26
0.41
-0.015
-0.215
-0.11
0.025
-0.02
-0.165
-0.13
-0.185
-0.14
-0.045
-0.045
-0.1
-0.065
-0.11
0.0
-0.005
-0.055
0.0
0.02
0.015
0.055
0.075
0.135
0.105
0.155
0.15
0.17
0.13
0.12
0.015
0.005
-0.01
-0.07
-0.095
-0.06
-0.07
-0.065
-0.065
-0.07
-0.1
-0.075
-0.06
-0.03
0.035
0.055
0.045
0.125
0.135
0.12
0.04
0.05
-0.045
-0.08
-0.08
-0.075
-0.095
-0.05
-0.17
0.0
0.06
0.39
0.805
-0.115
-0.105
0.025
-0.02
-0.1
-0.025
-0.05
-0.05
-0.025
-0.025
-0.155
-0.04
-0.035
-0.025
0.155
-0.01
0.08
0.1
0.14
0.2
0.115
0.065
0.21
0.325
0.195
0.1
0.29
0.305
0.075
0.06
0.0
-0.04
0.1
0.02
-0.1
-0.19
0.035
0.04
-0.08
-0.035
-0.015
0.045
-0.03
-0.055
0.075
0.195
0.17
0.105
-0.025
0.03
-0.055
-0.03
-0.12
-0.09
-0.18
-0.115
-0.115
-0.19
-0.015
0.27
0.545
-0.135
-0.2
-0.105
-0.025
-0.09
-0.24
-0.145
-0.095
-0.08
-0.12
-0.255
-0.11
0.0
-0.125
-0.05
-0.065
-0.06
0.01
0.005
0.065
0.12
0.11
0.15
0.125
0.255
0.255
0.245
0.125
0.06
0.115
0.095
-0.03
-0.115
-0.03
-0.04
-0.04
-0.03
0.01
-0.08
-0.085
-0.01
-0.01
0.01
0.03
0.09
0.125
0.175
0.125
0.025
0.03
-0.035
-0.07
-0.095
-0.11
-0.125
-0.16
-0.135
-0.155
-0.2
0.165
0.4
-0.13
-0.295
-0.115
0.0
-0.1
-0.13
-0.16
-0.21
-0.12
-0.16
-0.13
-0.155
-0.115
-0.025
-0.055
-0.065
-0.055
-0.02
-0.04
0.04
0.075
0.08
0.085
0.15
0.165
0.18
0.21
0.15
0.09
0.06
-0.01
-0.03
-0.035
-0.025
-0.05
-0.03
-0.05
-0.06
-0.05
-0.055
-0.115
-0.045
0.04
0.115
0.11
0.055
0.14
0.145
0.01
0.055
0.0
-0.085
-0.105
-0.09
-0.12
-0.14
-0.165
-0.145
-0.05
0.2
0.435
-0.235
-0.2
-0.035
0.03
-0.095
-0.12
-0.1
-0.165
-0.13
-0.12
-0.04
-0.08
-0.055
-0.075
-0.025
-0.02
0.015
0.015
0.07
0.055
0.095
0.13
0.13
0.18
0.205
0.185
0.23
0.145
0.15
0.085
0.03
-0.02
-0.01
-0.005
0.0
-0.03
-0.04
0.005
-0.035
-0.06
0.02
0.035
0.105
0.075
0.06
0.175
0.16
0.075
0.035
-0.005
-0.075
-0.11
-0.11
-0.1
-0.12
-0.13
-0.165
-0.115
0.165
0.38
-0.01
-0.1
-0.085
-0.04
-0.105
-0.135
-0.1
-0.13
-0.15
-0.14
-0.12
-0.095
-0.025
-0.115
-0.055
-0.025
-0.01
-0.025
0.05
0.045
0.135
0.11
0.13
0.16
0.245
0.21
0.195
0.235
0.12
0.105
0.03
0.055
-0.01
-0.03
0.0
-0.01
-0.025
0.0
0.015
-0.03
0.03
-0.01
0.13
0.13
0.12
0.14
0.165
0.13
0.085
0.07
-0.025
-0.1
-0.105
-0.09
-0.04
-0.045
-0.145
-0.08
0.295
0.605
0.045
-0.21
-0.235
-0.04
-0.025
-0.1
-0.115
-0.06
-0.06
-0.105
0.0
-0.09
-0.005
-0.045
0.0
0.05
0.005
0.04
0.015
0.165
0.09
0.1
0.16
0.16
0.205
0.17
0.235
0.2
0.15
0.065
0.035
-0.005
-0.025
-0.01
-0.065
-0.01
-0.065
-0.025
0.0
-0.07
0.03
0.03
0.09
0.08
0.07
0.165
0.09
0.0
0.005
-0.09
-0.09
-0.135
-0.155
-0.125
-0.155
-0.18
-0.075
0.205
0.42
-0.15
-0.45
-0.315
-0.145
-0.1
-0.18
-0.105
-0.16
-0.13
-0.1
-0.135
-0.09
-0.07
-0.075
-0.04
-0.03
0.0
0.015
0.05
0.07
0.11
0.145
0.2
0.18
0.25
0.26
0.31
0.19
0.155
0.09
0.0
0.0
-0.05
-0.04
-0.05
-0.035
-0.035
-0.06
-0.005
-0.045
-0.01
0.01
0.105
0.09
0.075
0.13
0.11
0.05
0.005
0.005
-0.105
-0.15
-0.13
-0.135
-0.1
-0.205
-0.17
0.035
0.26
0.37
-0.405
-0.305
-0.135
-0.095
-0.1
-0.145
-0.1
-0.135
-0.12
-0.09
-0.085
-0.095
-0.045
-0.075
-0.005
-0.025
0.005
0.045
0.045
0.105
0.145
0.145
0.18
0.205
0.26
0.255
0.26
0.21
0.105
0.05
-0.005
-0.01
-0.03
-0.01
-0.05
-0.05
-0.025
-0.015
-0.035
-0.01
0.015
0.09
0.06
0.11
0.12
0.125
0.075
0.03
0.0
-0.055
-0.125
-0.125
-0.135
-0.11
-0.155
-0.18
-0.145
0.175
0.46
-0.305
-0.26
-0.14
-0.095
-0.12
-0.14
-0.115
-0.12
-0.095
-0.12
-0.085
-0.105
-0.05
-0.075
-0.035
-0.04
0.0
0.02
0.05
0.105
0.115
0.115
0.165
0.17
0.195
0.215
0.21
0.19
0.105
0.055
0.01
-0.045
-0.04
-0.01
-0.03
-0.035
-0.025
-0.025
-0.065
0.01
0.025
0.105
0.095
0.11
0.12
0.14
0.07
0.045
-0.005
-0.065
-0.12
-0.11
-0.12
-0.095
-0.13
-0.2
-0.16
0.185
0.49
-0.315
-0.23
-0.105
-0.075
-0.105
-0.125
-0.115
-0.135
-0.095
-0.125
-0.075
-0.095
-0.065
-0.08
-0.035
-0.015
0.015
0.02
0.06
0.09
0.115
0.145
0.18
0.155
0.18
0.195
0.175
0.125
0.095
0.035
0.0
-0.035
-0.045
-0.06
-0.055
-0.05
-0.055
-0.04
-0.055
-0.005
0.03
0.055
0.05
0.075
0.085
0.09
0.0
0.005
-0.05
-0.11
-0.15
-0.12
-0.14
-0.135
-0.18
-0.24
-0.17
0.2
0.345
-0.2
-0.2
-0.11
-0.1
-0.14
-0.14
-0.13
-0.135
-0.115
-0.15
-0.1
-0.105
-0.1
-0.06
-0.055
-0.03
0.0
0.04
0.065
0.1
0.135
0.175
0.19
0.215
0.205
0.205
0.18
0.11
0.09
0.01
-0.03
-0.06
-0.035
-0.04
-0.035
-0.045
-0.035
-0.05
-0.035
0.0
0.055
0.065
0.095
0.1
0.11
0.11
0.05
0.04
-0.03
-0.095
-0.12
-0.1
-0.105
-0.11
-0.17
-0.205
-0.105
0.28
0.285
-0.22
-0.21
-0.12
-0.08
-0.13
-0.12
-0.125
-0.095
-0.105
-0.095
-0.12
-0.1
-0.055
-0.04
-0.015
-0.025
0.02
0.035
0.08
0.145
0.175
0.235
0.235
0.22
0.275
0.265
0.22
0.115
0.095
0.025
0.01
-0.03
-0.055
-0.04
-0.055
-0.035
-0.045
-0.08
-0.045
-0.035
-0.03
0.045
0.05
0.085
0.1
0.095
0.09
0.03
0.0
-0.03
-0.1
-0.12
-0.145
-0.11
-0.12
-0.155
-0.2
-0.06
0.415
0.23
-0.25
-0.205
-0.115
-0.085
-0.11
-0.105
-0.115
-0.125
-0.115
-0.09
-0.06
-0.07
-0.065
-0.04
-0.025
0.005
0.025
0.06
0.105
0.15
0.195
0.235
0.25
0.275
0.285
0.28
0.215
0.175
0.1
0.04
0.01
-0.02
-0.045
-0.05
-0.045
-0.045
-0.055
-0.06
-0.035
-0.06
-0.06
-0.025
-0.005
0.09
0.065
0.085
0.13
0.11
0.085
0.025
0.0
-0.08
-0.105
-0.105
-0.135
-0.12
-0.115
-0.16
-0.2
-0.005
0.455
0.11
-0.28
-0.205
-0.08
-0.085
-0.13
-0.115
-0.14
-0.105
-0.12
-0.115
-0.1
-0.065
-0.07
-0.055
-0.035
-0.015
0.0
0.04
0.08
0.135
0.165
0.205
0.23
0.275
0.26
0.255
0.21
0.145
0.065
0.02
0.0
-0.01
-0.025
-0.045
-0.06
-0.07
-0.05
-0.05
-0.075
-0.065
-0.065
-0.045
-0.075
-0.035
-0.02
-0.065
-0.065
0.025
0.075
0.06
0.085
0.12
0.095
0.115
0.025
0.02
-0.075
-0.11
-0.125
-0.085
-0.095
-0.11
-0.115
-0.1
-0.055
0.29
0.43
-0.275
-0.27
-0.15
-0.07
-0.105
-0.105
-0.1
-0.1
-0.085
-0.095
-0.08
-0.07
-0.04
-0.055
-0.005
-0.025
0.025
0.065
0.085
0.12
0.175
0.245
0.26
0.27
0.29
0.31
0.29
0.205
0.135
0.08
0.04
0.0
-0.02
-0.04
-0.03
-0.025
-0.045
-0.06
-0.04
-0.04
-0.065
-0.055
-0.045
-0.04
-0.02
-0.05
-0.04
-0.045
-0.04
-0.03
-0.05
-0.075
-0.065
-0.015
0.0
0.055
0.04
0.08
0.115
0.085
-0.005
0.005
0.0
-0.125
-0.12
-0.095
-0.11
-0.11
-0.1
-0.125
-0.15
0.085
0.545
0.155
-0.295
-0.24
-0.135
-0.1
-0.08
-0.115
-0.105
-0.095
-0.11
-0.085
-0.06
-0.07
-0.05
-0.045
-0.03
-0.01
0.03
0.065
0.07
0.125
0.16
0.225
0.255
0.275
0.29
0.31
0.29
0.235
0.155
0.09
0.025
0.0
-0.025
-0.025
-0.055
-0.04
-0.025
-0.075
-0.045
-0.045
-0.045
-0.065
-0.03
-0.035
-0.02
-0.025
-0.03
-0.03
-0.04
-0.055
-0.025
-0.06
-0.03
-0.065
-0.055
-0.055
-0.03
-0.025
0.04
0.02
0.065
0.05
0.015
0.01
0.0
-0.085
-0.11
-0.11
-0.095
-0.115
-0.095
-0.115
-0.115
-0.065
0.32
0.625
-0.255
-0.24
-0.115
-0.04
-0.09
-0.11
-0.075
-0.115
-0.08
-0.105
-0.085
-0.09
-0.065
-0.06
-0.035
-0.04
0.005
0.01
0.075
0.08
0.14
0.17
0.215
0.25
0.27
0.275
0.275
0.22
0.165
0.1
0.05
0.01
-0.015
-0.04
-0.06
-0.055
-0.055
-0.085
-0.07
-0.05
-0.065
-0.07
-0.06
-0.05
-0.04
-0.05
-0.04
-0.05
-0.04
-0.08
-0.055
-0.08
-0.065
-0.085
-0.07
-0.09
-0.075
-0.085
-0.065
-0.065
0.0
0.0
0.04
0.015
0.0
-0.03
-0.035
-0.13
-0.12
-0.145
-0.12
-0.14
-0.1
-0.15
-0.13
-0.12
0.21
0.645
-0.265
-0.32
-0.175
-0.06
-0.09
-0.13
-0.115
-0.14
-0.105
-0.115
-0.095
-0.105
-0.075
-0.085
-0.045
-0.05
-0.015
0.005
0.045
0.085
0.125
0.15
0.205
0.215
0.26
0.275
0.27
0.23
0.205
0.095
0.06
0.015
-0.01
-0.05
-0.055
-0.055
-0.045
-0.06
-0.055
-0.05
-0.04
-0.05
-0.05
-0.035
-0.03
-0.035
-0.04
-0.015
-0.04
-0.045
-0.04
-0.05
-0.045
-0.055
-0.045
-0.05
-0.065
-0.06
-0.045
-0.06
-0.04
0.01
0.035
0.045
0.06
0.035
-0.005
-0.005
-0.03
-0.09
-0.105
-0.1
-0.09
-0.11
-0.09
-0.1
-0.105
0.02
0.405
0.245
-0.24
-0.215
-0.135
-0.075
-0.09
-0.095
-0.095
-0.085
-0.08
-0.085
-0.065
-0.065
-0.055
-0.035
-0.04
-0.015
0.015
0.04
0.075
0.1
0.155
0.19
0.235
0.235
0.27
0.28
0.27
0.235
0.175
0.095
0.03
0.01
-0.02
-0.04
-0.025
-0.04
-0.045
-0.04
-0.025
-0.035
-0.025
-0.03
-0.02
-0.02
-0.01
-0.01
-0.01
-0.02
0.0
-0.025
-0.04
-0.045
-0.02
-0.035
-0.03
-0.045
-0.05
-0.045
-0.025
-0.05
-0.035
-0.03
0.02
0.04
0.065
0.05
0.035
-0.01
0.01
-0.055
-0.095
-0.12
-0.085
-0.105
-0.07
-0.09
-0.09
-0.15
0.155
0.67
-0.125
-0.265
-0.175
-0.095
-0.1
-0.115
-0.075
-0.105
-0.09
-0.1
-0.075
-0.065
-0.05
-0.055
-0.05
-0.035
0.005
0.005
0.055
0.075
0.155
0.175
0.21
0.23
0.27
0.25
0.265
0.255
0.195
0.145
0.1
0.01
-0.02
-0.04
-0.04
-0.025
-0.025
-0.06
-0.04
-0.05
-0.035
-0.02
-0.02
-0.005
-0.02
-0.035
-0.025
-0.04
-0.005
-0.025
-0.055
-0.04
-0.035
-0.055
-0.045
-0.05
-0.045
-0.075
-0.055
-0.04
-0.03
-0.05
0.03
0.03
0.045
0.045
0.055
-0.01
0.0
-0.05
-0.065
-0.12
-0.095
-0.1
-0.08
-0.105
-0.115
-0.13
0.205
0.74
-0.12
-0.245
-0.175
-0.09
-0.055
-0.115
-0.1
-0.125
-0.07
-0.09
-0.06
-0.09
-0.055
-0.04
-0.025
-0.07
0.005
0.005
0.07
0.11
0.12
0.185
0.175
0.235
0.265
0.26
0.28
0.265
0.225
0.14
0.065
0.045
0.0
-0.03
-0.025
-0.05
-0.02
-0.03
-0.06
-0.045
-0.02
-0.02
-0.025
-0.025
-0.01
-0.04
-0.02
-0.005
-0.015
-0.02
-0.055
-0.02
-0.05
-0.015
-0.02
-0.045
-0.055
-0.075
-0.07
-0.04
0.0
-0.01
0.01
0.035
0.06
0.1
0.0
0.015
-0.03
-0.06
-0.14
-0.095
-0.075
-0.065
-0.11
-0.15
-0.125
0.215
0.765
-0.075
-0.305
-0.165
-0.085
-0.075
-0.12
-0.08
-0.095
-0.1
-0.115
-0.08
-0.105
-0.045
-0.075
-0.045
-0.015
-0.03
0.005
0.055
0.07
0.125
0.145
0.18
0.22
0.23
0.245
0.235
0.23
0.235
0.145
0.08
0.035
0.0
-0.02
-0.03
-0.045
-0.03
-0.04
-0.055
-0.03
-0.04
-0.055
-0.035
-0.02
-0.03
-0.01
-0.03
-0.03
-0.04
-0.06
-0.04
-0.05
-0.04
-0.07
-0.05
-0.06
-0.04
-0.065
-0.04
-0.05
0.01
0.05
0.075
0.08
0.055
0.01
0.015
-0.045
-0.065
-0.11
-0.095
-0.105
-0.075
-0.115
-0.1
-0.045
0.345
0.67
-0.17
-0.2
-0.085
-0.025
-0.085
-0.1
-0.095
-0.115
-0.09
-0.1
-0.075
-0.095
-0.08
-0.065
-0.03
-0.04
-0.005
0.005
0.045
0.075
0.125
0.135
0.175
0.195
0.21
0.21
0.215
0.185
0.145
0.105
0.055
0.005
-0.01
-0.035
-0.035
-0.035
-0.04
-0.035
-0.045
-0.025
-0.03
-0.03
-0.025
-0.025
-0.02
-0.025
-0.025
-0.035
-0.04
-0.035
-0.04
-0.045
-0.045
-0.055
-0.05
-0.065
-0.045
-0.065
-0.045
-0.06
0.005
0.035
0.06
0.06
0.06
0.005
0.025
-0.04
-0.065
-0.105
-0.085
-0.105
-0.08
-0.115
-0.11
-0.08
0.265
0.615
-0.285
-0.325
-0.15
-0.045
-0.07
-0.11
-0.085
-0.095
-0.085
-0.085
-0.085
-0.065
-0.045
-0.06
-0.035
-0.025
0.005
0.025
0.055
0.08
0.12
0.145
0.18
0.19
0.205
0.19
0.195
0.175
0.16
0.09
0.05
0.015
-0.015
-0.035
-0.025
-0.04
-0.05
-0.03
-0.04
-0.03
-0.025
-0.03
0.0
-0.025
-0.025
-0.02
-0.025
-0.035
-0.025
-0.04
-0.04
-0.04
-0.035
-0.05
-0.045
-0.055
-0.05
-0.04
-0.005
0.04
0.06
0.08
0.08
0.04
0.015
0.0
-0.065
-0.095
-0.095
-0.095
-0.075
-0.09
-0.11
-0.11
0.07
0.425
0.03
-0.27
-0.215
-0.085
-0.06
-0.095
-0.09
-0.105
-0.09
-0.09
-0.08
-0.095
-0.065
-0.065
-0.04
-0.03
-0.005
0.005
0.04
0.07
0.11
0.135
0.17
0.18
0.185
0.2
0.195
0.185
0.16
0.115
0.075
0.045
0.0
-0.035
-0.03
-0.025
-0.035
-0.035
-0.035
-0.03
-0.015
-0.01
-0.02
-0.005
-0.025
-0.01
-0.015
-0.03
-0.02
-0.035
-0.04
-0.05
-0.045
-0.05
-0.03
-0.055
-0.055
-0.06
-0.06
-0.02
0.04
0.06
0.08
0.075
0.05
0.0
0.005
-0.05
-0.09
-0.09
-0.095
-0.09
-0.085
-0.105
-0.095
0.005
0.315
0.34
-0.2
-0.215
-0.135
-0.07
-0.1
-0.09
-0.095
-0.1
-0.085
-0.095
-0.06
-0.095
-0.055
-0.055
-0.03
-0.005
0.02
0.025
0.06
0.105
0.14
0.175
0.16
0.195
0.185
0.19
0.185
0.18
0.15
0.08
0.05
0.02
-0.005
-0.035
-0.045
-0.025
-0.025
-0.005
-0.025
-0.015
0.005
0.005
-0.01
-0.02
-0.01
-0.01
-0.02
0.0
-0.04
-0.045
-0.015
-0.055
-0.05
-0.055
-0.025
-0.05
-0.04
0.005
0.055
0.065
0.1
0.1
0.05
0.045
0.0
-0.06
-0.07
-0.1
-0.075
-0.09
-0.075
-0.13
-0.065
0.05
0.365
0.38
-0.22
-0.185
-0.115
-0.075
-0.1
-0.12
-0.08
-0.085
-0.06
-0.085
-0.08
-0.055
-0.085
-0.05
0.0
-0.02
0.005
0.03
0.06
0.1
0.14
0.18
0.17
0.175
0.19
0.175
0.2
0.19
0.165
0.085
0.035
-0.005
-0.005
0.005
-0.025
-0.015
-0.005
-0.04
-0.035
-0.005
-0.02
0.015
-0.02
-0.05
-0.01
-0.06
-0.045
-0.025
-0.04
-0.03
-0.065
-0.07
-0.03
0.0
0.05
0.055
0.135
0.135
0.135
0.01
-0.005
-0.045
-0.1
-0.125
-0.115
-0.115
-0.12
-0.14
-0.1
-0.1
0.225
0.72
-0.1
-0.23
-0.13
-0.065
-0.105
-0.125
-0.095
-0.125
-0.07
-0.125
-0.1
-0.095
-0.055
-0.075
-0.04
-0.035
-0.015
0.005
0.06
0.09
0.095
0.115
0.155
0.15
0.16
0.155
0.185
0.15
0.14
0.1
0.065
0.02
0.005
-0.025
-0.035
-0.015
-0.035
-0.03
-0.015
-0.03
0.0
-0.03
-0.025
-0.03
-0.025
-0.03
-0.045
-0.05
-0.045
-0.06
-0.015
0.035
0.075
0.085
0.115
0.11
0.135
0.04
0.045
-0.025
-0.075
-0.115
-0.09
-0.115
-0.09
-0.125
-0.125
-0.115
0.195
0.665
-0.14
-0.22
-0.125
-0.04
-0.08
-0.105
-0.1
-0.12
-0.1
-0.12
-0.085
-0.095
-0.07
-0.08
-0.03
-0.025
0.005
0.0
0.045
0.07
0.095
0.12
0.155
0.14
0.15
0.145
0.135
0.13
0.115
0.07
0.03
0.005
-0.025
-0.04
-0.035
-0.05
-0.045
-0.04
-0.045
-0.025
-0.045
-0.045
-0.04
-0.05
-0.05
-0.05
-0.055
-0.05
-0.055
-0.015
0.04
0.055
0.065
0.13
0.1
0.1
0.005
0.015
-0.085
-0.125
-0.135
-0.12
-0.135
-0.12
-0.15
-0.125
-0.09
0.2
0.48
-0.26
-0.265
-0.13
-0.075
-0.12
-0.145
-0.12
-0.14
-0.12
-0.13
-0.095
-0.105
-0.09
-0.08
-0.06
-0.06
0.0
0.01
0.04
0.065
0.095
0.1
0.135
0.14
0.14
0.14
0.135
0.125
0.12
0.065
0.02
0.005
-0.015
-0.03
-0.05
-0.05
-0.035
-0.02
-0.02
-0.025
-0.04
-0.03
-0.035
-0.01
-0.04
-0.04
-0.055
-0.01
0.06
0.07
0.085
0.16
0.13
0.17
0.025
0.02
-0.085
-0.085
-0.115
-0.095
-0.13
-0.125
-0.145
-0.11
-0.085
0.185
0.61
-0.165
-0.205
-0.11
-0.05
-0.13
-0.115
-0.12
-0.135
-0.095
-0.115
-0.09
-0.12
-0.09
-0.06
-0.05
-0.015
0.0
0.01
0.045
0.055
0.09
0.115
0.13
0.155
0.14
0.135
0.19
0.145
0.145
0.085
0.035
0.0
0.005
-0.045
-0.055
-0.035
-0.035
-0.035
0.0
-0.025
-0.035
-0.04
-0.015
-0.025
-0.04
-0.04
-0.015
0.015
0.075
0.06
0.115
0.135
0.155
0.045
0.035
-0.05
-0.1
-0.13
-0.1
-0.115
-0.095
-0.135
-0.155
-0.125
0.19
0.66
-0.025
-0.145
-0.07
-0.04
-0.11
-0.135
-0.105
-0.12
-0.115
-0.12
-0.1
-0.11
-0.07
-0.075
-0.055
-0.04
-0.01
0.0
0.025
0.05
0.08
0.085
0.1
0.12
0.13
0.13
0.155
0.145
0.12
0.085
0.055
0.015
-0.015
-0.02
-0.03
-0.03
-0.02
-0.02
-0.025
-0.025
-0.02
-0.035
-0.03
-0.035
-0.03
-0.035
0.01
0.07
0.06
0.08
0.155
0.115
0.105
0.04
0.02
-0.065
-0.105
-0.115
-0.1
-0.115
-0.105
-0.145
-0.125
-0.005
0.31
0.4
-0.19
-0.17
-0.065
-0.075
-0.115
-0.12
-0.12
-0.125
-0.105
-0.095
-0.085
-0.075
-0.07
-0.065
-0.035
-0.02
0.015
0.03
0.065
0.075
0.11
0.115
0.14
0.135
0.14
0.14
0.14
0.125
0.105
0.07
0.02
0.005
-0.01
-0.03
-0.025
-0.015
-0.025
-0.025
-0.02
-0.015
-0.015
-0.015
-0.02
-0.035
-0.005
0.025
0.085
0.065
0.09
0.145
0.13
0.095
0.03
0.015
-0.085
-0.12
-0.115
-0.105
-0.115
-0.12
-0.155
-0.15
-0.005
0.29
0.185
-0.21
-0.185
-0.085
-0.085
-0.125
-0.135
-0.115
-0.125
-0.11
-0.09
-0.095
-0.09
-0.07
-0.05
-0.045
-0.02
0.01
0.035
0.065
0.085
0.105
0.12
0.125
0.135
0.15
0.145
0.145
0.125
0.08
0.05
0.025
-0.025
-0.025
-0.03
-0.035
-0.03
-0.01
-0.03
-0.03
-0.015
-0.02
-0.035
-0.025
-0.03
0.05
0.085
0.085
0.085
0.145
0.165
0.13
0.045
0.02
-0.075
-0.115
-0.115
-0.09
-0.11
-0.105
-0.125
-0.135
-0.03
0.255
0.415
-0.21
-0.17
-0.085
-0.065
-0.09
-0.13
-0.11
-0.135
-0.105
-0.115
-0.07
-0.09
-0.08
-0.045
-0.03
-0.03
0.01
0.04
0.05
0.07
0.12
0.1
0.155
0.15
0.17
0.145
0.17
0.155
0.09
0.065
0.045
-0.005
-0.035
-0.02
-0.04
-0.03
-0.03
-0.015
-0.025
-0.02
-0.025
-0.025
-0.03
0.0
0.01
0.065
0.085
0.1
0.14
0.135
0.055
0.035
-0.015
-0.1
-0.14
-0.11
-0.14
-0.105
-0.13
-0.165
-0.18
0.12
0.575
0.07
-0.135
-0.095
-0.035
-0.105
-0.155
-0.13
-0.145
-0.105
-0.14
-0.12
-0.08
-0.095
-0.1
-0.06
-0.05
-0.02
-0.02
0.065
0.03
0.055
0.07
0.08
0.115
0.135
0.13
0.14
0.13
0.105
0.065
0.035
0.0
-0.005
-0.04
-0.05
0.0
-0.015
-0.02
-0.02
0.0
-0.015
-0.015
-0.015
0.02
0.045
0.06
0.065
0.09
0.145
0.135
0.095
0.03
0.01
-0.06
-0.105
-0.11
-0.1
-0.1
-0.1
-0.135
-0.155
0.045
0.415
0.205
-0.15
-0.13
-0.04
-0.065
-0.1
-0.08
-0.09
-0.085
-0.1
-0.095
-0.085
-0.075
-0.055
-0.04
-0.015
0.0
0.015
0.04
0.065
0.11
0.14
0.13
0.135
0.145
0.16
0.165
0.17
0.135
0.095
0.06
0.015
0.02
-0.01
-0.025
-0.01
-0.015
-0.01
-0.03
0.005
-0.015
-0.025
0.02
0.045
0.075
0.095
0.1
0.185
0.15
0.115
0.05
0.03
-0.05
-0.085
-0.09
-0.09
-0.135
-0.1
-0.14
-0.2
-0.115
0.285
0.385
-0.17
-0.145
-0.11
-0.105
-0.09
-0.105
-0.1
-0.09
-0.075
-0.11
-0.07
-0.04
-0.045
-0.03
-0.03
-0.035
-0.02
0.025
0.085
0.07
0.09
0.14
0.14
0.13
0.16
0.135
0.17
0.095
0.085
0.035
-0.005
-0.02
-0.03
-0.015
-0.04
-0.03
0.0
-0.035
-0.02
-0.03
-0.03
-0.005
-0.01
0.025
0.06
0.105
0.15
0.105
0.07
0.0
0.01
-0.105
-0.125
-0.135
-0.1
-0.11
-0.11
-0.16
-0.165
-0.095
0.25
0.375
-0.215
-0.2
-0.125
-0.12
-0.1
-0.105
-0.12
-0.125
-0.085
-0.07
-0.075
-0.035
-0.045
-0.03
0.0
-0.005
0.075
0.07
0.105
0.12
0.15
0.18
0.16
0.205
0.2
0.175
0.195
0.17
0.095
0.06
-0.01
-0.005
-0.005
-0.03
-0.04
-0.055
-0.02
-0.025
-0.02
-0.03
-0.03
0.045
0.09
0.095
0.075
0.14
0.15
0.14
0.035
0.02
-0.075
-0.13
-0.13
-0.05
-0.085
-0.08
-0.14
-0.18
-0.115
0.265
0.485
-0.165
-0.165
-0.16
-0.13
-0.1
-0.115
-0.105
-0.065
-0.075
-0.11
-0.08
-0.07
-0.05
-0.055
-0.03
-0.015
0.005
0.025
0.07
0.09
0.115
0.16
0.195
0.195
0.195
0.2
0.19
0.145
0.065
0.035
0.005
-0.055
-0.05
-0.06
-0.085
-0.02
-0.03
-0.02
-0.05
-0.02
-0.015
-0.005
0.045
0.04
0.065
0.115
0.12
0.12
0.015
0.02
-0.06
-0.12
-0.13
-0.15
-0.135
-0.11
-0.13
-0.18
-0.18
0.19
0.585
-0.275
-0.3
-0.175
-0.1
-0.145
-0.155
-0.11
-0.155
-0.11
-0.13
-0.11
-0.135
-0.09
-0.13
-0.055
-0.075
0.0
-0.01
0.09
0.02
0.14
0.135
0.135
0.08
0.185
0.14
0.09
0.105
0.05
0.03
-0.05
0.075
0.035
0.0
-0.02
-0.025
-0.01
-0.035
-0.1
-0.075
-0.09
0.005
0.09
0.09
0.045
0.085
0.08
0.035
0.02
0.095
0.005
-0.095
-0.105
-0.055
-0.13
-0.11
-0.14
-0.145
-0.14
0.075
0.665
-0.21
-0.055
-0.01
-0.035
0.56
0.2
-0.275
-0.235
-0.125
-0.12
-0.04
-0.1
-0.1
-0.06
0.025
0.075
0.135
-0.02
0.19
0.15
0.16
0.18
0.205
0.245
0.37
0.375
0.31
0.325
0.01
0.11
-0.12
-0.01
-0.035
-0.085
-0.115
-0.175
-0.15
-0.085
-0.085
-0.09
-0.07
-0.1
-0.005
0.01
0.05
0.05
0.13
0.09
0.12
-0.02
-0.03
-0.065
-0.04
-0.25
-0.235
-0.185
-0.16
-0.36
-0.205
-0.415
0.095
0.645
-0.08
-0.205
-0.11
-0.08
-0.11
-0.06
-0.185
-0.165
-0.215
-0.2
-0.12
-0.08
-0.06
0.11
0.01
-0.065
0.085
-0.02
0.1
0.255
0.12
0.165
0.18
0.255
0.245
0.255
0.465
0.11
0.045
0.545
-0.06
-0.16
0.07
-0.06
0.03
0.135
0.25
-0.29
-0.195
-0.085
0.1
0.0
0.365
0.09
0.035
0.515
0.26
0.01
0.155
0.06
0.12
0.295
0.13
-0.08
-0.06
-0.335
-0.145
-0.155
-0.185
-0.065
0.395
0.39
0.09
0.08
-0.395
-0.155
-0.15
-0.255
-0.29
-0.175
-0.045
0.02
-0.32
0.295
-0.27
-0.145
-0.065
-0.04
0.01
0.055
0.025
0.15
0.75
0.02
0.245
0.25
0.12
0.025
0.35
0.595
0.005
0.2
0.165
0.0
-0.05
-0.035
-0.12
0.01
0.225
-0.06
0.16
0.06
-0.16
0.03
0.215
0.22
0.06
0.065
0.185
0.02
0.015
0.07
0.02
-0.03
-0.035
-0.21
-0.02
-0.065
-0.03
-0.06
-0.425
-0.235
0.04
0.635
-0.15
-0.2
-0.085
-0.105
-0.025
-0.21
-0.17
-0.24
-0.22
-0.115
-0.02
-0.2
-0.05
-0.06
-0.06
-0.145
-0.02
0.055
0.075
0.085
-0.025
0.26
0.3
-0.14
0.01
0.21
0.02
0.145
0.07
0.02
0.19
0.275
-0.02
-0.37
-0.145
-0.175
-0.14
-0.095
-0.1
-0.06
0.015
0.085
-0.04
-0.15
-0.16
-0.075
-0.06
-0.06
0.425
0.27
-0.115
0.185
-0.13
-0.205
-0.125
-0.08
-0.135
-0.135
-0.2
-0.165
0.155
0.04
0.12
0.415
-0.21
-0.285
-0.145
-0.085
-0.09
-0.025
0.045
-0.15
0.04
-0.185
-0.155
-0.16
0.025
-0.085
-0.03
0.01
0.065
0.24
0.195
-0.015
0.12
0.125
0.18
0.13
0.205
0.365
0.105
0.075
0.055
-0.02
0.06
0.41
-0.2
-0.22
0.0
0.135
-0.165
0.075
0.195
-0.265
-0.15
-0.04
-0.025
-0.065
0.02
0.36
0.325
0.085
-0.115
0.14
0.045
-0.02
-0.06
-0.08
-0.09
-0.085
-0.03
-0.12
0.07
-0.235
-0.245
-0.025
0.595
0.285
-0.145
-0.15
-0.025
-0.205
-0.2
-0.045
-0.025
-0.255
-0.285
-0.1
-0.055
-0.08
0.0
-0.195
-0.14
0.09
0.045
0.0
0.025
0.215
-0.04
0.22
0.205
0.025
0.235
0.34
-0.05
0.13
0.09
0.06
-0.025
-0.02
0.06
-0.025
0.15
-0.04
-0.055
-0.065
0.115
0.06
-0.055
0.12
-0.04
0.025
0.18
0.125
0.135
0.13
0.065
0.2
0.05
0.13
-0.02
0.075
0.045
-0.175
-0.03
-0.32
-0.425
-0.175
0.0
0.41
0.515
0.29
-0.175
-0.165
0.045
-0.245
-0.025
-0.025
0.055
-0.045
-0.165
-0.14
-0.2
-0.04
-0.04
-0.09
-0.23
-0.03
0.0
-0.01
0.03
0.02
0.16
0.02
0.04
0.13
0.14
0.075
0.0
-0.13
0.045
-0.035
-0.17
0.06
-0.065
-0.085
-0.05
0.03
-0.355
-0.145
0.0
0.02
0.025
-0.04
-0.04
-0.075
0.115
-0.12
-0.015
0.15
0.12
0.07
0.085
0.06
-0.035
-0.1
-0.015
-0.125
-0.09
-0.085
-0.125
-0.05
-0.26
0.045
0.58
0.095
-0.095
-0.07
-0.17
-0.11
-0.19
-0.225
-0.095
-0.085
-0.14
-0.15
-0.045
0.165
-0.295
-0.185
-0.025
-0.02
0.005
0.065
0.13
0.065
0.035
0.1
0.065
0.085
0.1
0.175
0.31
-0.04
-0.07
0.0
-0.01
-0.06
-0.075
0.005
-0.04
-0.025
-0.03
0.06
0.07
-0.095
-0.09
0.0
-0.045
-0.005
0.015
0.08
0.06
0.11
0.195
0.215
-0.015
0.005
-0.1
-0.105
-0.135
-0.125
-0.13
-0.055
-0.135
-0.165
-0.045
0.015
0.595
0.08
-0.155
-0.115
-0.095
-0.085
-0.145
-0.095
-0.04
-0.12
-0.15
-0.095
-0.14
-0.14
-0.06
-0.05
0.0
-0.035
0.05
0.095
0.0
0.1
0.125
0.19
0.13
0.185
0.16
0.21
0.115
0.15
0.09
-0.015
-0.03
-0.045
-0.11
-0.04
-0.04
-0.05
-0.055
-0.045
-0.055
-0.1
-0.075
-0.08
-0.06
-0.03
0.07
0.045
0.045
0.145
0.065
0.06
-0.025
-0.025
-0.12
-0.115
-0.185
-0.12
-0.14
-0.085
-0.16
-0.265
-0.195
0.16
0.635
-0.11
-0.18
-0.175
-0.07
-0.105
-0.175
-0.105
-0.14
-0.125
-0.12
-0.09
-0.04
-0.075
-0.045
0.03
-0.06
0.015
0.005
0.065
0.11
0.09
0.125
0.21
0.175
0.185
0.195
0.165
0.14
0.145
0.045
0.03
-0.03
-0.04
-0.02
-0.06
-0.045
-0.045
-0.055
-0.055
-0.025
-0.005
-0.03
-0.045
-0.03
0.01
0.045
0.1
0.12
0.105
0.095
0.11
0.05
0.015
-0.045
-0.03
-0.08
-0.12
-0.155
-0.11
-0.145
-0.11
-0.085
0.34
0.545
-0.175
-0.25
-0.175
-0.05
-0.085
-0.12
-0.04
-0.12
-0.095
-0.055
-0.07
-0.105
-0.085
-0.09
-0.035
0.085
0.0
-0.04
0.04
0.085
0.115
0.12
0.17
0.155
0.19
0.185
0.175
0.08
0.055
0.03
-0.005
-0.05
-0.04
-0.04
-0.015
-0.13
-0.07
-0.075
-0.005
0.005
0.01
0.0
-0.085
-0.065
-0.01
0.085
0.025
0.055
0.095
0.115
0.075
0.005
0.005
-0.125
-0.17
-0.14
-0.145
-0.135
-0.185
-0.225
-0.23
-0.11
0.375
0.36
-0.175
-0.28
-0.135
-0.08
-0.165
-0.18
-0.155
-0.095
-0.125
-0.18
-0.135
-0.09
-0.095
-0.085
-0.06
-0.035
0.01
0.065
0.075
0.08
0.08
0.2
0.225
0.1
0.155
0.15
0.12
0.1
0.115
0.04
0.045
-0.01
-0.05
-0.005
-0.005
-0.03
-0.015
0.005
-0.015
-0.035
-0.03
-0.01
-0.06
-0.005
0.08
0.09
0.095
0.245
0.14
0.065
0.025
0.04
-0.055
-0.085
-0.1
-0.08
-0.12
-0.1
-0.115
-0.14
-0.19
0.11
0.58
-0.2
-0.235
-0.195
-0.145
-0.085
-0.12
-0.085
-0.125
-0.055
-0.04
-0.075
-0.09
-0.085
-0.03
0.0
0.005
0.045
0.055
0.135
0.135
0.165
0.155
0.22
0.27
0.225
0.22
0.265
0.21
0.155
0.105
0.03
0.0
0.0
-0.01
-0.005
-0.055
-0.09
0.005
-0.025
0.01
-0.025
-0.035
-0.015
0.01
-0.01
0.055
0.035
0.09
0.085
0.105
0.04
0.0
-0.125
-0.07
-0.13
-0.15
-0.105
-0.12
-0.19
-0.185
-0.205
0.135
0.71
-0.17
-0.16
-0.195
-0.205
-0.13
-0.14
-0.07
-0.16
-0.095
-0.065
-0.045
-0.065
-0.065
-0.055
0.01
-0.015
0.03
0.045
0.1
0.11
0.16
0.19
0.2
0.185
0.205
0.21
0.23
0.195
0.09
0.04
0.05
0.005
-0.03
-0.05
-0.025
-0.035
-0.01
-0.025
-0.04
-0.03
-0.045
-0.025
0.02
-0.005
0.0
0.07
0.055
0.075
0.1
0.14
0.035
0.01
-0.035
-0.06
-0.135
-0.11
-0.15
-0.1
-0.125
-0.16
-0.215
0.085
0.7
0.065
-0.185
-0.24
-0.13
-0.11
-0.105
-0.11
-0.135
-0.12
-0.115
-0.1
-0.125
-0.06
-0.055
-0.06
-0.025
0.01
-0.005
0.055
0.1
0.145
0.145
0.19
0.18
0.205
0.22
0.195
0.21
0.1
0.065
0.02
0.01
-0.04
-0.025
-0.045
-0.05
-0.06
-0.07
-0.02
-0.065
-0.04
-0.02
-0.07
-0.005
0.025
0.09
0.055
0.055
0.115
0.14
0.0
0.02
-0.015
-0.095
-0.15
-0.095
-0.11
-0.12
-0.145
-0.2
-0.245
0.08
0.75
0.085
-0.22
-0.225
-0.075
-0.08
-0.12
-0.13
-0.1
-0.11
-0.165
-0.055
-0.115
-0.11
-0.1
-0.03
-0.04
-0.01
-0.01
0.075
0.075
0.095
0.145
0.2
0.21
0.2
0.185
0.175
0.16
0.135
0.08
0.065
0.01
-0.035
-0.045
-0.065
-0.055
-0.02
-0.055
-0.075
-0.03
-0.025
-0.065
-0.05
-0.025
0.03
0.065
0.03
0.075
0.115
0.13
0.07
0.035
-0.005
-0.095
-0.12
-0.085
-0.13
-0.15
-0.13
-0.16
-0.24
-0.03
0.56
0.3
-0.155
-0.25
-0.085
-0.065
-0.15
-0.125
-0.135
-0.14
-0.105
-0.11
-0.08
-0.095
-0.06
-0.05
-0.035
-0.035
-0.015
0.07
0.06
0.135
0.125
0.145
0.185
0.18
0.205
0.225
0.175
0.105
0.085
0.055
0.0
0.0
-0.04
-0.03
-0.045
-0.05
-0.065
-0.05
-0.015
-0.04
-0.05
-0.06
-0.05
0.0
0.02
0.075
0.065
0.115
0.095
0.11
0.05
0.03
-0.045
-0.09
-0.135
-0.135
-0.145
-0.125
-0.115
-0.19
-0.26
0.01
0.57
-0.015
-0.275
-0.21
-0.09
-0.125
-0.12
-0.13
-0.165
-0.13
-0.11
-0.075
-0.08
-0.085
-0.105
-0.06
-0.055
-0.03
0.0
0.045
0.1
0.09
0.115
0.145
0.155
0.165
0.185
0.18
0.105
0.105
0.06
0.015
-0.03
-0.005
-0.03
-0.045
-0.045
-0.035
-0.055
-0.045
-0.04
-0.015
-0.035
-0.035
-0.005
0.035
0.065
0.095
0.06
0.16
0.135
0.105
0.01
-0.005
-0.095
-0.12
-0.095
-0.085
-0.11
-0.13
-0.13
-0.16
-0.14
0.22
0.48
-0.24
-0.215
-0.135
-0.105
-0.12
-0.11
-0.14
-0.11
-0.09
-0.1
-0.095
-0.065
-0.015
-0.09
-0.01
0.005
0.02
0.04
0.075
0.12
0.165
0.21
0.22
0.195
0.205
0.215
0.205
0.145
0.14
0.015
-0.04
-0.03
-0.025
-0.03
-0.06
-0.04
-0.04
0.005
-0.055
-0.02
-0.05
-0.025
-0.03
-0.01
0.035
0.095
0.065
0.13
0.105
0.1
0.005
0.005
-0.045
-0.105
-0.15
-0.095
-0.105
-0.14
-0.175
-0.16
-0.205
0.14
0.715
-0.17
-0.16
-0.16
-0.1
-0.11
-0.15
-0.115
-0.15
-0.125
-0.145
-0.11
-0.125
-0.03
-0.08
-0.025
-0.04
0.025
0.015
0.09
0.09
0.145
0.175
0.195
0.175
0.205
0.22
0.18
0.17
0.135
0.02
-0.01
-0.01
-0.055
-0.065
-0.06
-0.025
-0.045
-0.07
-0.06
-0.03
-0.03
-0.035
-0.045
-0.02
0.025
0.03
0.06
0.075
0.135
0.1
0.07
0.025
-0.015
-0.095
-0.145
-0.12
-0.155
-0.1
-0.125
-0.165
-0.22
-0.025
0.485
0.285
-0.175
-0.135
-0.085
-0.115
-0.12
-0.14
-0.145
-0.115
-0.09
-0.105
-0.11
-0.085
-0.075
-0.075
-0.03
0.0
0.01
0.015
0.085
0.125
0.155
0.17
0.185
0.205
0.25
0.215
0.175
0.13
0.085
0.02
0.005
-0.04
-0.05
-0.03
-0.06
-0.025
-0.03
-0.01
-0.06
-0.01
-0.05
-0.025
-0.055
-0.005
0.09
0.07
0.06
0.155
0.105
0.1
0.005
0.02
-0.085
-0.11
-0.14
-0.1
-0.105
-0.11
-0.16
-0.175
-0.18
0.155
0.595
-0.21
-0.31
-0.21
-0.09
-0.105
-0.14
-0.13
-0.125
-0.105
-0.13
-0.105
-0.09
-0.07
-0.05
-0.015
-0.035
0.01
0.02
0.1
0.1
0.14
0.16
0.23
0.245
0.24
0.23
0.25
0.16
0.12
0.08
-0.03
-0.03
-0.035
-0.035
-0.055
-0.06
-0.065
-0.05
-0.055
-0.02
-0.06
0.0
-0.035
-0.005
0.055
0.06
0.05
0.13
0.12
0.13
0.03
0.06
-0.075
-0.085
-0.14
-0.12
-0.095
-0.085
-0.105
-0.125
-0.185
0.025
0.62
-0.115
-0.26
-0.185
-0.13
-0.115
-0.1
-0.125
-0.13
-0.11
-0.1
-0.055
-0.05
-0.035
-0.085
-0.055
0.005
0.035
0.025
0.095
0.105
0.18
0.215
0.245
0.245
0.255
0.25
0.245
0.205
0.125
0.055
0.075
0.0
-0.025
-0.045
-0.07
-0.06
-0.055
-0.045
-0.035
-0.065
-0.035
-0.03
-0.03
-0.01
0.035
0.025
0.06
0.05
0.135
0.12
0.085
0.01
-0.005
-0.07
-0.125
-0.145
-0.125
-0.11
-0.105
-0.15
-0.17
-0.15
0.315
0.6
-0.175
-0.22
-0.19
-0.095
-0.1
-0.15
-0.105
-0.085
-0.135
-0.08
-0.09
-0.11
-0.075
-0.04
-0.015
-0.035
0.005
0.035
0.125
0.13
0.16
0.225
0.215
0.25
0.23
0.225
0.25
0.195
0.13
0.025
-0.005
-0.04
0.005
-0.06
-0.075
-0.065
-0.05
-0.02
-0.025
-0.065
-0.025
-0.055
-0.02
-0.05
-0.01
0.055
0.06
0.065
0.165
0.11
0.105
-0.015
0.03
-0.075
-0.085
-0.16
-0.125
-0.11
-0.115
-0.155
-0.145
-0.11
0.24
0.705
-0.185
-0.11
-0.14
-0.105
-0.095
-0.11
-0.155
-0.125
-0.11
-0.11
-0.05
-0.135
-0.085
-0.055
-0.04
-0.025
0.02
0.0
0.085
0.1
0.15
0.19
0.24
0.2
0.23
0.245
0.255
0.18
0.11
0.055
0.005
0.0
-0.025
-0.055
-0.065
-0.045
-0.035
-0.075
-0.04
-0.03
-0.05
-0.025
-0.08
-0.06
-0.06
0.0
0.02
0.06
0.045
0.1
0.155
0.1
-0.01
-0.01
-0.05
-0.085
-0.115
-0.13
-0.12
-0.125
-0.14
-0.175
-0.185
0.095
0.605
-0.02
-0.28
-0.165
-0.1
-0.115
-0.165
-0.075
-0.155
-0.11
-0.125
-0.085
-0.12
-0.105
-0.085
-0.04
-0.02
0.015
-0.01
0.03
0.075
0.125
0.195
0.185
0.225
0.21
0.25
0.215
0.205
0.125
0.09
0.025
-0.03
-0.02
-0.065
-0.035
-0.065
-0.07
-0.055
-0.045
-0.065
-0.045
-0.07
-0.055
-0.04
-0.035
-0.045
0.0
0.065
0.085
0.02
0.12
0.105
0.085
0.01
0.045
-0.125
-0.115
-0.135
-0.07
-0.095
-0.13
-0.1
-0.195
-0.21
0.11
0.56
-0.275
-0.335
-0.225
-0.14
-0.11
-0.105
-0.11
-0.145
-0.12
-0.135
-0.085
-0.08
-0.08
-0.035
0.025
-0.085
-0.01
0.025
0.09
0.105
0.165
0.19
0.225
0.22
0.26
0.28
0.24
0.2
0.16
0.1
0.04
-0.04
-0.08
-0.06
-0.04
-0.05
-0.06
-0.035
-0.035
-0.07
-0.02
-0.05
-0.055
-0.03
-0.06
-0.03
0.005
0.055
0.135
0.095
0.135
0.12
0.035
0.0
-0.03
-0.075
-0.135
-0.11
-0.07
-0.145
-0.16
-0.115
-0.125
-0.065
0.33
0.3
-0.265
-0.19
-0.195
-0.115
-0.125
-0.115
-0.165
-0.125
-0.065
-0.09
-0.07
-0.135
-0.05
-0.1
-0.005
0.015
0.005
0.105
0.12
0.085
0.19
0.195
0.245
0.26
0.28
0.255
0.265
0.195
0.09
0.075
-0.01
-0.065
-0.045
-0.05
-0.03
-0.035
-0.075
-0.01
-0.05
-0.065
-0.03
-0.055
-0.03
0.0
-0.055
-0.025
0.01
0.035
0.045
0.075
0.24
0.085
0.02
0.015
-0.01
-0.06
-0.155
-0.115
-0.12
-0.09
-0.14
-0.185
-0.115
0.015
0.495
0.255
-0.23
-0.16
-0.145
-0.14
-0.125
-0.075
-0.135
-0.14
-0.115
-0.075
-0.1
-0.12
-0.07
-0.045
-0.045
0.0
0.01
0.065
0.085
0.13
0.15
0.19
0.27
0.25
0.29
0.28
0.225
0.185
0.11
0.045
0.0
0.0
-0.025
-0.07
-0.04
-0.03
-0.025
-0.035
-0.02
-0.085
-0.05
-0.02
0.0
-0.025
-0.08
-0.01
0.025
0.06
0.075
0.115
0.165
0.135
0.045
0.04
0.02
-0.08
-0.05
-0.155
-0.14
-0.085
-0.115
-0.155
-0.14
0.055
0.52
0.265
-0.25
-0.155
-0.09
-0.07
-0.085
-0.11
-0.115
-0.09
-0.1
-0.08
-0.1
-0.065
-0.025
-0.05
-0.035
0.0
0.035
0.055
0.105
0.135
0.17
0.19
0.225
0.23
0.26
0.29
0.245
0.16
0.09
0.04
0.02
-0.03
-0.035
-0.035
-0.02
-0.08
-0.075
-0.055
-0.04
-0.04
-0.035
-0.065
-0.04
-0.05
-0.05
0.0
0.015
0.06
0.035
0.055
0.135
0.105
0.065
0.0
-0.005
-0.025
-0.115
-0.17
-0.13
-0.125
-0.115
-0.17
-0.175
-0.065
0.405
0.45
-0.24
-0.23
-0.1
-0.08
-0.115
-0.145
-0.115
-0.105
-0.08
-0.12
-0.075
-0.06
-0.105
-0.065
-0.035
-0.02
-0.015
0.035
0.1
0.13
0.115
0.175
0.215
0.22
0.245
0.22
0.215
0.185
0.105
0.02
0.0
-0.025
-0.02
-0.04
-0.04
-0.065
-0.06
-0.06
-0.065
-0.055
-0.02
-0.06
-0.065
-0.095
-0.055
-0.015
0.005
0.025
0.05
0.065
0.115
0.125
0.0
-0.005
-0.06
-0.13
-0.14
-0.05
-0.125
-0.195
-0.16
-0.175
-0.22
-0.04
0.395
0.06
-0.295
-0.23
-0.1
-0.095
-0.125
-0.105
-0.125
-0.125
-0.11
-0.11
-0.125
-0.085
-0.08
-0.045
-0.015
-0.01
0.075
0.07
0.045
0.105
0.15
0.17
0.195
0.21
0.26
0.24
0.195
0.175
0.12
0.1
0.03
-0.01
-0.01
-0.03
-0.025
0.0
-0.025
-0.06
-0.02
-0.025
0.0
-0.025
-0.025
-0.04
0.015
0.06
0.1
0.04
0.105
0.135
0.11
0.03
0.0
-0.04
-0.09
-0.145
-0.09
-0.105
-0.13
-0.09
-0.17
-0.21
0.0
0.545
0.065
-0.195
-0.135
-0.115
-0.1
-0.105
-0.09
-0.13
-0.145
-0.145
-0.085
-0.12
-0.085
-0.06
-0.03
-0.025
0.0
0.05
0.065
0.06
0.1
0.13
0.175
0.19
0.21
0.24
0.215
0.195
0.21
0.065
-0.015
0.0
-0.01
-0.055
-0.05
-0.065
-0.05
-0.03
0.0
-0.055
-0.03
-0.015
-0.02
-0.045
-0.04
-0.015
0.0
0.065
0.05
0.075
0.155
0.15
0.04
0.02
-0.03
-0.09
-0.11
-0.14
-0.135
-0.125
-0.1
-0.135
-0.17
0.115
0.605
0.175
-0.195
-0.15
-0.06
-0.065
-0.115
-0.14
-0.165
-0.115
-0.12
-0.095
-0.13
-0.09
-0.055
-0.06
-0.02
0.005
0.005
0.01
0.095
0.11
0.125
0.165
0.185
0.2
0.205
0.23
0.16
0.135
0.1
0.035
0.0
-0.03
-0.055
-0.035
-0.03
-0.06
-0.04
-0.065
-0.04
-0.03
-0.02
-0.05
-0.04
-0.03
0.01
0.025
0.06
0.05
0.09
0.13
0.15
0.05
0.01
-0.03
-0.095
-0.145
-0.1
-0.145
-0.11
-0.14
-0.18
-0.18
0.125
0.63
0.025
-0.24
-0.135
-0.035
-0.08
-0.14
-0.09
-0.15
-0.12
-0.1
-0.1
-0.1
-0.095
-0.085
-0.035
-0.05
-0.01
0.015
0.045
0.08
0.115
0.12
0.165
0.165
0.17
0.21
0.2
0.185
0.14
0.06
0.03
-0.04
0.0
-0.02
-0.07
-0.03
-0.03
-0.045
-0.04
-0.02
-0.035
-0.04
-0.05
-0.04
-0.085
-0.005
0.05
0.075
0.065
0.12
0.12
0.135
0.04
0.005
-0.035
-0.09
-0.12
-0.115
-0.11
-0.13
-0.11
-0.17
-0.2
0.07
0.46
-0.065
-0.27
-0.18
-0.075
-0.095
-0.12
-0.12
-0.12
-0.105
-0.11
-0.1
-0.1
-0.085
-0.07
-0.045
-0.035
0.0
0.01
0.04
0.065
0.11
0.13
0.16
0.145
0.17
0.175
0.18
0.17
0.11
0.06
0.015
0.005
-0.045
-0.035
-0.045
-0.05
-0.03
-0.02
-0.035
0.0
-0.03
-0.015
-0.045
-0.04
0.01
0.065
0.09
0.045
0.1
0.17
0.17
0.115
0.03
0.025
-0.105
-0.085
-0.1
-0.09
-0.11
-0.095
-0.13
-0.12
-0.04
0.3
0.53
-0.15
-0.165
-0.07
-0.04
-0.115
-0.095
-0.095
-0.12
-0.08
-0.11
-0.11
-0.06
-0.05
-0.04
-0.025
-0.025
0.02
0.06
0.11
0.085
0.15
0.17
0.225
0.175
0.245
0.19
0.205
0.195
0.125
0.06
0.005
0.005
-0.02
-0.02
-0.045
-0.045
-0.005
-0.005
-0.025
-0.06
-0.01
0.0
-0.025
-0.045
0.06
0.03
0.07
0.06
0.16
0.135
0.14
-0.02
0.005
-0.08
-0.065
-0.11
-0.13
-0.09
-0.175
-0.08
-0.16
-0.005
0.43
0.58
-0.24
-0.16
-0.105
-0.075
-0.11
-0.17
-0.065
-0.15
-0.14
-0.05
-0.105
-0.055
-0.1
-0.06
-0.005
-0.055
0.035
0.015
0.085
0.11
0.125
0.165
0.2
0.185
0.205
0.225
0.24
0.1
0.14
0.07
0.025
0.025
-0.03
-0.055
-0.035
-0.055
0.02
-0.025
-0.055
-0.02
0.0
-0.035
-0.05
-0.005
0.09
0.11
0.055
0.145
0.155
0.065
0.025
0.005
-0.04
-0.115
-0.13
-0.135
-0.12
-0.12
-0.165
-0.19
0.13
0.63
0.19
-0.36
-0.25
-0.12
-0.13
-0.135
-0.12
-0.1
-0.135
-0.11
-0.11
-0.105
-0.06
-0.075
-0.02
-0.06
-0.05
0.005
0.065
0.06
0.095
0.115
0.145
0.195
0.21
0.215
0.24
0.19
0.125
0.085
0.01
-0.015
-0.04
-0.05
-0.05
-0.055
-0.085
-0.06
-0.055
-0.06
-0.06
-0.055
-0.045
-0.075
-0.01
0.03
0.085
0.04
0.11
0.09
0.135
0.025
0.02
-0.08
-0.11
-0.145
-0.115
-0.14
-0.125
-0.155
-0.17
-0.085
0.255
0.495
-0.275
-0.215
-0.105
-0.045
-0.1
-0.14
-0.095
-0.13
-0.1
-0.105
-0.065
-0.095
-0.04
-0.055
-0.035
-0.01
0.0
0.015
0.06
0.085
0.11
0.14
0.145
0.155
0.17
0.195
0.2
0.155
0.115
0.06
0.005
-0.005
-0.02
-0.03
-0.035
-0.04
-0.02
-0.035
-0.015
-0.025
-0.03
-0.035
-0.03
-0.05
0.005
0.05
0.05
0.09
0.11
0.1
0.09
0.015
0.005
-0.08
-0.105
-0.115
-0.105
-0.115
-0.115
-0.17
-0.18
-0.03
0.33
0.345
-0.23
-0.21
-0.065
-0.075
-0.115
-0.12
-0.105
-0.115
-0.105
-0.115
-0.085
-0.09
-0.085
-0.065
-0.02
-0.025
-0.01
0.025
0.07
0.085
0.12
0.13
0.15
0.145
0.165
0.155
0.155
0.12
0.07
0.03
-0.005
-0.02
-0.035
-0.035
-0.05
-0.035
-0.045
-0.035
-0.03
-0.035
-0.025
-0.04
-0.005
0.025
0.055
0.06
0.075
0.145
0.105
0.075
0.025
0.0
-0.08
-0.12
-0.11
-0.115
-0.095
-0.125
-0.15
-0.175
-0.02
0.285
0.185
-0.265
-0.22
-0.06
-0.075
-0.11
-0.12
-0.11
-0.115
-0.11
-0.1
-0.09
-0.075
-0.075
-0.055
-0.035
-0.005
0.01
0.035
0.07
0.115
0.14
0.15
0.17
0.18
0.185
0.18
0.165
0.115
0.07
0.0
-0.01
-0.03
-0.035
-0.07
-0.045
-0.035
-0.04
-0.04
-0.03
-0.04
-0.025
-0.035
0.005
0.06
0.06
0.06
0.095
0.12
0.135
0.05
0.05
-0.03
-0.065
-0.1
-0.09
-0.095
-0.09
-0.095
-0.15
-0.175
0.055
0.53
0.005
-0.175
-0.12
-0.03
-0.065
-0.09
-0.1
-0.13
-0.09
-0.08
-0.075
-0.07
-0.04
-0.075
-0.035
-0.01
0.01
0.03
0.07
0.1
0.14
0.155
0.19
0.22
0.215
0.195
0.205
0.155
0.145
0.085
0.03
-0.02
-0.04
0.01
-0.02
-0.055
-0.035
-0.025
-0.015
-0.015
-0.035
-0.02
-0.01
0.04
0.03
0.09
0.09
0.15
0.13
0.14
0.03
0.035
-0.105
-0.09
-0.1
-0.11
-0.135
-0.1
-0.14
-0.15
-0.13
0.165
0.595
-0.135
-0.16
-0.1
-0.075
-0.14
-0.115
-0.1
-0.115
-0.11
-0.135
-0.08
-0.08
-0.035
-0.085
-0.05
-0.03
0.005
0.01
0.1
0.1
0.105
0.115
0.21
0.16
0.25
0.185
0.18
0.155
0.095
0.05
-0.035
-0.005
-0.055
-0.075
-0.035
-0.05
-0.08
-0.03
-0.065
-0.035
-0.055
-0.06
-0.015
-0.02
0.02
0.105
0.07
0.12
0.11
0.075
0.01
-0.03
-0.09
-0.13
-0.12
-0.14
-0.12
-0.13
-0.16
-0.215
0.03
0.5
0.235
-0.235
-0.19
-0.085
-0.09
-0.135
-0.12
-0.15
-0.12
-0.105
-0.135
-0.085
-0.055
-0.105
-0.06
-0.04
0.0
0.02
0.025
0.085
0.085
0.11
0.18
0.165
0.225
0.225
0.21
0.185
0.12
0.105
0.015
0.01
-0.02
-0.05
-0.035
-0.09
-0.03
-0.07
-0.04
-0.025
-0.03
-0.08
-0.035
0.03
0.02
0.1
0.04
0.175
0.11
0.15
-0.01
0.035
-0.06
-0.09
-0.14
-0.065
-0.17
-0.14
-0.165
-0.22
-0.17
0.36
0.64
-0.36
-0.295
-0.155
-0.12
-0.115
-0.11
-0.16
-0.115
-0.155
-0.06
-0.1
-0.1
-0.05
-0.09
-0.045
-0.005
0.0
0.03
0.03
0.115
0.135
0.19
0.195
0.185
0.27
0.205
0.265
0.16
0.125
0.03
-0.01
-0.02
0.005
-0.055
-0.045
-0.045
-0.045
-0.035
-0.025
-0.065
-0.025
-0.07
0.01
0.04
0.08
0.07
0.065
0.145
0.145
0.05
0.02
-0.035
-0.075
-0.125
-0.09
-0.145
-0.11
-0.135
-0.185
-0.23
0.215
0.74
-0.26
-0.35
-0.17
-0.095
-0.115
-0.135
-0.115
-0.125
-0.095
-0.085
-0.085
-0.095
-0.055
-0.075
-0.025
-0.02
0.025
0.03
0.06
0.08
0.15
0.145
0.165
0.165
0.22
0.23
0.235
0.175
0.125
0.06
0.02
-0.02
-0.005
-0.025
-0.04
-0.08
-0.045
-0.045
-0.04
-0.055
-0.03
-0.06
-0.04
-0.04
-0.025
0.02
0.065
0.05
0.095
0.11
0.12
0.05
0.0
-0.045
-0.09
-0.125
-0.11
-0.135
-0.1
-0.135
-0.165
-0.16
0.195
0.765
-0.145
-0.195
-0.08
-0.035
-0.085
-0.145
-0.095
-0.135
-0.095
-0.125
-0.06
-0.105
-0.085
-0.07
-0.045
-0.03
-0.005
0.01
0.055
0.09
0.12
0.13
0.145
0.145
0.175
0.175
0.18
0.135
0.11
0.045
0.035
-0.025
-0.02
-0.04
-0.035
-0.045
-0.03
-0.045
-0.02
-0.02
-0.025
-0.015
-0.03
-0.055
0.015
0.045
0.065
0.07
0.11
0.1
0.105
0.045
0.025
-0.05
-0.08
-0.105
-0.1
-0.125
-0.075
-0.13
-0.145
-0.185
0.09
0.595
-0.14
-0.225
-0.13
-0.05
-0.1
-0.11
-0.11
-0.13
-0.085
-0.12
-0.075
-0.1
-0.07
-0.07
-0.035
-0.02
0.0
0.015
0.055
0.08
0.13
0.16
0.15
0.175
0.175
0.2
0.185
0.13
0.11
0.04
0.005
-0.04
-0.055
-0.06
-0.04
-0.065
-0.065
-0.06
-0.055
-0.04
-0.02
-0.025
-0.065
-0.04
-0.03
0.015
0.02
0.05
0.055
0.125
0.085
0.11
0.0
0.015
-0.095
-0.105
-0.13
-0.12
-0.12
-0.09
-0.125
-0.115
-0.16
0.085
0.61
-0.18
-0.245
-0.135
-0.065
-0.1
-0.12
-0.09
-0.11
-0.105
-0.12
-0.09
-0.09
-0.055
-0.07
-0.02
-0.005
0.03
0.04
0.075
0.105
0.145
0.16
0.2
0.19
0.23
0.215
0.205
0.175
0.095
0.05
0.0
-0.015
-0.025
-0.025
-0.045
-0.045
-0.04
-0.035
-0.035
-0.035
-0.04
-0.025
0.0
0.0
-0.035
-0.01
0.03
0.055
0.07
0.135
0.135
0.105
0.005
0.035
-0.065
-0.06
-0.135
-0.085
-0.115
-0.105
-0.115
-0.145
-0.16
0.105
0.68
-0.07
-0.18
-0.08
-0.085
-0.075
-0.13
-0.125
-0.12
-0.07
-0.075
-0.09
-0.065
-0.085
-0.05
-0.005
-0.02
0.005
0.035
0.09
0.115
0.115
0.14
0.2
0.21
0.225
0.195
0.225
0.185
0.13
0.005
0.035
-0.005
-0.025
-0.025
-0.01
-0.085
-0.09
-0.055
-0.03
-0.045
-0.02
-0.01
-0.06
-0.055
-0.025
-0.06
-0.01
0.0
0.035
0.075
0.085
0.11
0.08
0.035
0.0
-0.095
-0.13
-0.09
-0.14
-0.13
-0.135
-0.18
-0.12
-0.17
0.145
0.67
-0.08
-0.29
-0.17
-0.055
-0.13
-0.185
-0.095
-0.165
-0.08
-0.135
-0.1
-0.105
-0.055
-0.085
-0.065
-0.02
0.0
0.015
0.0
0.12
0.12
0.145
0.13
0.22
0.245
0.165
0.21
0.225
0.165
-0.045
0.065
0.015
-0.04
-0.07
-0.05
-0.04
-0.02
-0.03
-0.1
-0.025
-0.045
-0.045
-0.045
-0.04
-0.01
-0.075
-0.065
0.03
0.045
0.035
0.075
0.1
0.13
0.07
0.005
-0.045
-0.13
-0.115
-0.125
-0.105
-0.12
-0.15
-0.195
-0.135
0.065
0.48
0.275
-0.285
-0.2
-0.085
-0.14
-0.13
-0.11
-0.13
-0.105
-0.135
-0.14
-0.04
-0.1
-0.07
-0.075
-0.045
-0.005
-0.015
0.055
0.065
0.095
0.12
0.16
0.19
0.175
0.195
0.235
0.195
0.145
0.12
0.04
0.0
-0.005
-0.025
-0.02
-0.04
-0.04
-0.04
-0.015
-0.04
-0.025
-0.045
-0.04
-0.035
-0.025
-0.06
-0.03
-0.04
-0.015
0.035
0.06
0.06
0.095
0.13
0.12
0.02
0.04
-0.025
-0.035
-0.135
-0.125
-0.13
-0.1
-0.105
-0.135
-0.165
0.21
0.775
-0.045
-0.225
-0.12
-0.02
-0.075
-0.125
-0.075
-0.12
-0.085
-0.08
-0.1
-0.11
-0.045
-0.06
-0.03
-0.025
0.01
0.015
0.04
0.09
0.095
0.135
0.165
0.175
0.17
0.195
0.19
0.165
0.12
0.07
0.045
0.005
0.015
-0.03
-0.015
-0.025
-0.03
-0.04
-0.04
-0.035
-0.025
-0.005
0.0
-0.01
-0.025
-0.035
-0.045
-0.035
-0.04
0.005
0.07
0.07
0.065
0.15
0.11
0.085
0.045
-0.015
-0.095
-0.11
-0.095
-0.105
-0.11
-0.115
-0.145
-0.125
0.01
0.33
0.295
-0.28
-0.23
-0.07
-0.07
-0.105
-0.11
-0.105
-0.115
-0.07
-0.08
-0.09
-0.075
-0.065
-0.03
-0.05
-0.005
0.01
0.06
0.095
0.085
0.125
0.135
0.17
0.165
0.17
0.155
0.165
0.125
0.09
0.05
0.0
0.0
-0.025
-0.03
-0.03
-0.035
-0.03
-0.03
-0.035
-0.035
-0.025
-0.03
-0.04
-0.04
-0.015
-0.055
-0.05
0.005
0.02
0.035
0.065
0.1
0.115
0.11
0.04
0.025
-0.045
-0.1
-0.11
-0.1
-0.14
-0.1
-0.13
-0.16
-0.135
0.045
0.41
0.015
-0.235
-0.145
-0.065
-0.085
-0.135
-0.115
-0.125
-0.11
-0.11
-0.105
-0.09
-0.06
-0.04
-0.035
-0.04
-0.03
0.005
0.045
0.08
0.115
0.13
0.16
0.195
0.17
0.16
0.175
0.175
0.14
0.085
0.035
-0.005
-0.005
-0.015
-0.04
-0.03
-0.02
-0.04
-0.03
-0.015
-0.02
0.0
-0.02
-0.005
-0.03
-0.035
-0.01
0.005
0.035
0.06
0.075
0.16
0.115
0.135
0.04
0.05
-0.055
-0.085
-0.135
-0.1
-0.115
-0.09
-0.135
-0.13
-0.13
0.13
0.61
-0.145
-0.215
-0.115
-0.06
-0.115
-0.12
-0.09
-0.12
-0.115
-0.115
-0.095
-0.095
-0.07
-0.05
-0.05
-0.035
0.0
0.02
0.05
0.065
0.12
0.115
0.155
0.135
0.165
0.18
0.17
0.16
0.12
0.055
0.005
-0.015
-0.025
-0.055
-0.05
-0.055
-0.02
-0.005
-0.02
-0.025
-0.015
-0.06
-0.035
-0.03
-0.03
-0.05
-0.015
0.045
0.075
0.04
0.07
0.145
0.125
0.05
0.005
-0.025
-0.08
-0.095
-0.13
-0.155
-0.115
-0.1
-0.135
-0.13
0.005
0.35
0.24
-0.18
-0.15
-0.09
-0.085
-0.1
-0.11
-0.1
-0.12
-0.105
-0.115
-0.095
-0.08
-0.06
-0.045
-0.03
-0.01
0.025
0.05
0.065
0.105
0.135
0.135
0.155
0.155
0.165
0.2
0.175
0.135
0.08
0.035
0.0
-0.02
-0.04
-0.06
-0.055
-0.045
-0.035
-0.015
-0.015
-0.02
-0.045
-0.005
-0.035
-0.025
-0.04
0.015
0.06
0.06
0.07
0.13
0.11
0.14
0.055
0.02
-0.08
-0.095
-0.125
-0.11
-0.125
-0.12
-0.125
-0.135
-0.165
0.09
0.595
-0.08
-0.2
-0.12
-0.045
-0.1
-0.115
-0.125
-0.145
-0.115
-0.115
-0.075
-0.1
-0.09
-0.09
-0.015
-0.025
-0.005
0.0
0.045
0.065
0.13
0.125
0.175
0.16
0.17
0.18
0.21
0.125
0.09
0.06
0.0
0.0
-0.04
-0.06
-0.06
-0.025
-0.045
-0.045
-0.045
-0.03
-0.04
-0.02
-0.04
-0.035
-0.045
-0.015
0.045
0.065
0.055
0.105
0.13
0.135
0.045
0.035
-0.05
-0.09
-0.14
-0.095
-0.12
-0.1
-0.12
-0.135
-0.15
0.075
0.55
0.04
-0.16
-0.1
-0.08
-0.09
-0.09
-0.125
-0.12
-0.11
-0.09
-0.08
-0.095
-0.06
-0.07
-0.06
-0.02
0.005
0.02
0.085
0.11
0.125
0.13
0.16
0.165
0.19
0.185
0.21
0.175
0.115
0.07
0.02
0.02
-0.025
-0.04
-0.045
-0.045
-0.01
-0.06
-0.035
-0.015
-0.015
-0.015
-0.035
-0.04
0.0
0.04
0.1
0.05
0.06
0.165
0.12
0.12
0.01
-0.015
-0.08
-0.09
-0.125
-0.12
-0.125
-0.095
-0.165
-0.165
-0.02
0.35
0.41
-0.195
-0.16
-0.115
-0.095
-0.07
-0.11
-0.105
-0.115
-0.16
-0.11
-0.07
-0.085
-0.07
-0.065
-0.015
-0.015
0.03
0.02
0.055
0.115
0.13
0.165
0.165
0.16
0.225
0.21
0.19
0.115
0.11
0.05
-0.02
0.015
-0.02
-0.03
-0.015
-0.065
0.0
-0.02
-0.01
-0.04
-0.045
0.025
-0.085
-0.005
0.04
0.06
0.02
0.115
0.105
0.125
0.06
0.035
0.01
-0.125
-0.145
-0.105
-0.115
-0.11
-0.1
-0.165
-0.18
0.105
0.635
0.145
-0.19
-0.115
-0.125
-0.115
-0.135
-0.095
-0.115
-0.115
-0.175
-0.055
-0.08
-0.12
-0.07
-0.05
-0.025
-0.035
0.03
-0.005
0.07
0.165
0.12
0.145
0.175
0.205
0.155
0.23
0.185
0.16
0.1
0.01
0.0
-0.035
-0.01
-0.015
-0.04
-0.04
-0.005
-0.03
-0.025
-0.005
-0.01
0.005
-0.07
0.045
0.05
0.11
0.105
0.1
0.09
0.19
0.05
0.05
-0.01
-0.05
-0.105
-0.055
-0.1
-0.085
-0.095
-0.14
-0.155
0.245
0.83
-0.19
-0.23
-0.11
-0.05
-0.095
-0.13
-0.075
-0.13
-0.11
-0.095
-0.08
-0.115
-0.055
-0.065
-0.03
-0.025
0.015
0.02
0.07
0.095
0.11
0.125
0.16
0.17
0.18
0.16
0.175
0.16
0.125
0.05
0.03
0.0
-0.01
-0.035
-0.02
-0.04
-0.015
-0.045
-0.05
-0.025
-0.03
-0.035
-0.03
-0.03
0.03
0.065
0.085
0.07
0.125
0.105
0.11
0.03
0.02
-0.06
-0.11
-0.095
-0.105
-0.12
-0.085
-0.155
-0.185
-0.105
0.31
0.59
-0.195
-0.19
-0.045
-0.04
-0.11
-0.135
-0.095
-0.095
-0.1
-0.115
-0.07
-0.085
-0.06
-0.065
-0.04
-0.01
0.025
0.02
0.065
0.095
0.11
0.135
0.145
0.15
0.15
0.14
0.17
0.125
0.08
0.04
0.045
-0.01
-0.035
-0.025
-0.02
-0.04
-0.03
-0.01
-0.005
-0.02
-0.01
-0.03
-0.03
-0.03
0.005
0.03
0.075
0.09
0.115
0.125
0.145
0.055
0.04
-0.025
-0.08
-0.115
-0.085
-0.105
-0.08
-0.11
-0.15
-0.17
0.075
0.515
-0.03
-0.25
-0.135
-0.02
-0.085
-0.115
-0.11
-0.12
-0.1
-0.105
-0.075
-0.09
-0.065
-0.06
-0.025
-0.015
-0.01
0.01
0.06
0.075
0.105
0.145
0.165
0.16
0.17
0.165
0.15
0.14
0.105
0.06
0.01
0.0
-0.02
-0.035
-0.035
-0.04
-0.055
-0.04
-0.02
-0.02
-0.025
-0.025
-0.04
-0.01
-0.05
0.005
0.055
0.065
0.075
0.12
0.105
0.11
0.0
0.015
-0.1
-0.09
-0.115
-0.125
-0.145
-0.105
-0.125
-0.15
-0.135
0.12
0.51
-0.25
-0.25
-0.12
-0.05
-0.095
-0.12
-0.115
-0.105
-0.095
-0.095
-0.08
-0.085
-0.055
-0.065
0.0
0.0
0.015
0.06
0.06
0.09
0.13
0.145
0.17
0.16
0.185
0.185
0.195
0.135
0.1
0.035
0.01
-0.02
-0.03
-0.045
-0.04
-0.04
-0.025
-0.07
-0.03
-0.015
-0.02
-0.01
-0.015
-0.05
0.02
0.045
0.05
0.09
0.155
0.11
0.135
0.005
0.005
-0.075
-0.065
-0.1
-0.12
-0.105
-0.105
-0.15
-0.14
-0.15
0.09
0.575
-0.205
-0.235
-0.135
-0.07
-0.105
-0.12
-0.095
-0.12
-0.13
-0.14
-0.075
-0.045
-0.04
-0.08
-0.035
-0.02
0.0
0.035
0.105
0.11
0.125
0.14
0.185
0.18
0.175
0.195
0.21
0.18
0.175
0.03
0.005
0.01
-0.045
-0.01
-0.045
-0.02
-0.03
-0.03
0.0
-0.015
-0.025
-0.03
-0.015
-0.02
-0.065
0.05
0.075
0.085
0.06
0.11
0.15
0.135
0.015
0.015
-0.085
-0.105
-0.055
-0.095
-0.13
-0.09
-0.14
-0.1
-0.07
0.275
0.63
-0.24
-0.21
-0.115
-0.095
-0.075
-0.155
-0.075
-0.095
-0.065
-0.11
-0.1
-0.075
-0.07
-0.045
-0.035
0.03
-0.005
0.01
0.075
0.065
0.105
0.1
0.21
0.145
0.225
0.125
0.13
0.145
0.085
0.05
0.01
-0.035
-0.045
-0.065
-0.04
-0.07
-0.03
-0.005
-0.03
-0.06
-0.035
0.025
-0.055
-0.05
-0.03
0.0
0.065
0.035
0.055
0.145
0.085
0.065
0.03
-0.02
-0.095
-0.12
-0.12
-0.105
-0.135
-0.12
-0.145
-0.27
0.18
0.655
0.13
-0.3
-0.175
-0.1
-0.105
-0.09
-0.13
-0.13
-0.14
-0.12
-0.085
-0.11
-0.085
-0.065
-0.055
-0.035
0.0
0.01
0.02
0.075
0.06
0.185
0.17
0.175
0.205
0.175
0.255
0.185
0.145
0.04
0.04
0.0
0.0
-0.045
-0.05
-0.02
-0.005
-0.045
-0.05
-0.015
-0.015
0.0
-0.025
-0.02
-0.05
0.015
0.035
0.075
0.08
0.15
0.115
0.12
0.01
0.005
-0.07
-0.115
-0.11
-0.12
-0.13
-0.105
-0.17
-0.145
-0.065
0.35
0.59
-0.265
-0.225
-0.09
-0.085
-0.11
-0.105
-0.12
-0.115
-0.08
-0.1
-0.075
-0.08
-0.065
-0.04
-0.02
0.0
0.0
0.025
0.065
0.095
0.12
0.12
0.155
0.145
0.19
0.175
0.17
0.16
0.095
0.04
0.015
-0.015
-0.01
-0.025
-0.035
-0.025
-0.03
-0.03
-0.035
-0.03
-0.02
-0.015
-0.02
-0.04
-0.04
0.01
0.07
0.07
0.075
0.145
0.1
0.105
0.04
0.015
-0.065
-0.115
-0.13
-0.1
-0.105
-0.11
-0.16
-0.14
-0.01
0.395
0.53
-0.18
-0.135
-0.04
-0.07
-0.09
-0.125
-0.085
-0.115
-0.09
-0.09
-0.085
-0.085
-0.055
-0.05
-0.005
-0.01
0.02
0.055
0.065
0.075
0.11
0.125
0.15
0.155
0.15
0.145
0.14
0.125
0.08
0.045
0.01
0.01
-0.035
-0.03
-0.03
-0.01
-0.035
-0.045
-0.025
-0.015
-0.015
-0.015
-0.02
-0.025
-0.01
0.0
0.08
0.045
0.05
0.145
0.11
0.12
0.025
0.025
-0.06
-0.09
-0.125
-0.1
-0.125
-0.105
-0.135
-0.135
-0.115
0.215
0.605
-0.22
-0.215
-0.075
-0.065
-0.11
-0.11
-0.095
-0.125
-0.08
-0.11
-0.08
-0.06
-0.055
-0.065
-0.025
-0.02
0.015
0.025
0.075
0.095
0.125
0.135
0.18
0.16
0.16
0.15
0.155
0.13
0.09
0.05
0.0
-0.02
-0.03
-0.02
-0.045
-0.03
-0.045
-0.045
-0.035
-0.035
-0.04
-0.025
-0.02
-0.04
-0.035
0.02
0.05
0.055
0.06
0.11
0.09
0.085
0.01
0.005
-0.1
-0.1
-0.115
-0.115
-0.125
-0.12
-0.155
-0.16
-0.085
0.21
0.32
-0.275
-0.215
-0.105
-0.095
-0.095
-0.125
-0.125
-0.115
-0.105
-0.1
-0.09
-0.095
-0.06
-0.06
-0.025
-0.02
0.005
0.045
0.055
0.11
0.13
0.175
0.165
0.165
0.185
0.195
0.18
0.125
0.11
0.035
0.03
-0.02
-0.01
-0.045
-0.025
-0.04
-0.02
-0.03
-0.02
-0.02
-0.02
-0.025
-0.015
-0.025
0.015
0.065
0.065
0.075
0.16
0.115
0.13
0.02
0.035
-0.08
-0.085
-0.11
-0.1
-0.13
-0.105
-0.135
-0.125
-0.15
0.11
0.58
-0.21
-0.155
-0.125
-0.08
-0.12
-0.155
-0.095
-0.13
-0.08
-0.115
-0.055
-0.1
-0.075
-0.065
-0.03
-0.01
0.015
0.045
0.06
0.055
0.135
0.135
0.17
0.165
0.175
0.165
0.19
0.175
0.09
0.04
0.01
-0.015
-0.035
-0.05
-0.03
-0.045
-0.04
-0.025
-0.01
-0.035
-0.025
-0.015
0.0
-0.025
-0.015
0.045
0.085
0.045
0.13
0.125
0.165
0.01
0.04
-0.045
-0.06
-0.125
-0.09
-0.11
-0.1
-0.11
-0.135
-0.14
0.07
0.64
-0.09
-0.205
-0.14
-0.095
-0.13
-0.105
-0.12
-0.135
-0.135
-0.085
-0.07
-0.1
-0.06
-0.09
0.005
-0.005
0.005
0.02
0.01
0.115
0.14
0.125
0.22
0.155
0.165
0.165
0.225
0.16
0.14
0.02
0.05
-0.045
-0.01
-0.07
-0.05
-0.05
-0.035
-0.02
-0.005
-0.04
-0.04
-0.06
-0.05
-0.025
-0.005
0.035
0.07
0.06
0.08
0.095
0.135
0.015
0.0
-0.04
-0.1
-0.115
-0.11
-0.135
-0.1
-0.075
-0.225
-0.205
0.19
0.785
-0.16
-0.25
-0.095
-0.11
-0.065
-0.185
-0.08
-0.105
-0.11
-0.12
-0.075
-0.075
-0.08
-0.075
-0.045
-0.005
0.015
0.0
0.08
0.065
0.13
0.165
0.185
0.17
0.225
0.2
0.215
0.195
0.11
0.06
0.055
0.015
-0.03
-0.065
-0.01
-0.055
-0.045
-0.035
-0.025
-0.045
-0.06
-0.05
-0.035
-0.06
-0.01
0.02
0.08
0.05
0.09
0.095
0.115
0.015
0.025
-0.045
-0.105
-0.14
-0.095
-0.15
-0.105
-0.135
-0.165
-0.165
0.215
0.74
-0.14
-0.205
-0.105
-0.035
-0.105
-0.125
-0.1
-0.115
-0.08
-0.105
-0.06
-0.095
-0.05
-0.045
-0.03
-0.015
0.005
0.005
0.065
0.085
0.125
0.135
0.17
0.165
0.19
0.175
0.2
0.15
0.105
0.045
0.025
-0.005
-0.01
-0.03
-0.01
-0.03
-0.025
-0.04
-0.01
-0.035
-0.015
-0.025
-0.02
-0.03
0.02
0.055
0.075
0.095
0.13
0.095
0.125
0.035
0.03
-0.05
-0.075
-0.13
-0.09
-0.105
-0.055
-0.14
-0.19
-0.185
0.18
0.695
-0.21
-0.24
-0.11
-0.02
-0.1
-0.11
-0.11
-0.13
-0.11
-0.105
-0.065
-0.09
-0.07
-0.07
-0.015
-0.025
0.005
0.02
0.06
0.06
0.12
0.12
0.165
0.15
0.16
0.15
0.175
0.12
0.095
0.04
0.015
-0.02
-0.02
-0.02
-0.03
-0.04
-0.02
-0.03
-0.025
-0.045
-0.015
-0.03
-0.02
-0.03
0.015
0.055
0.09
0.08
0.13
0.105
0.135
0.025
0.045
-0.04
-0.075
-0.12
-0.095
-0.105
-0.085
-0.145
-0.14
-0.15
0.13
0.6
-0.27
-0.235
-0.08
-0.035
-0.08
-0.115
-0.07
-0.12
-0.08
-0.095
-0.07
-0.075
-0.04
-0.045
-0.02
-0.015
0.03
0.04
0.085
0.105
0.145
0.165
0.18
0.185
0.185
0.18
0.2
0.14
0.11
0.06
0.015
0.0
-0.005
-0.045
-0.04
-0.04
-0.02
-0.035
-0.025
-0.035
-0.025
-0.025
-0.01
-0.02
0.03
0.07
0.08
0.085
0.165
0.105
0.1
0.03
0.025
-0.08
-0.09
-0.11
-0.095
-0.11
-0.09
-0.135
-0.165
-0.115
0.18
0.435
-0.275
-0.23
-0.06
-0.06
-0.1
-0.12
-0.105
-0.11
-0.085
-0.08
-0.08
-0.08
-0.06
-0.055
-0.02
-0.02
0.01
0.03
0.06
0.09
0.14
0.13
0.16
0.175
0.17
0.15
0.155
0.125
0.07
0.025
-0.005
-0.035
-0.045
-0.035
-0.055
-0.045
-0.055
-0.05
-0.045
-0.025
-0.05
-0.04
-0.03
0.0
0.045
0.045
0.055
0.125
0.095
0.09
0.005
0.005
-0.095
-0.105
-0.135
-0.115
-0.13
-0.12
-0.155
-0.175
-0.16
0.09
0.475
-0.295
-0.27
-0.115
-0.07
-0.1
-0.13
-0.115
-0.125
-0.11
-0.11
-0.07
-0.09
-0.08
-0.08
-0.04
-0.03
0.005
0.03
0.065
0.08
0.12
0.125
0.145
0.15
0.165
0.175
0.165
0.115
0.08
0.025
-0.005
-0.01
-0.055
-0.055
-0.045
-0.035
-0.03
-0.045
-0.025
-0.04
-0.01
-0.025
0.0
0.035
0.07
0.095
0.1
0.14
0.12
0.085
0.04
0.0
-0.095
-0.12
-0.115
-0.095
-0.095
-0.1
-0.145
-0.155
0.0
0.315
0.1
-0.265
-0.165
-0.105
-0.07
-0.105
-0.095
-0.13
-0.105
-0.06
-0.09
-0.095
-0.07
-0.05
-0.025
0.0
-0.02
0.045
0.06
0.09
0.13
0.155
0.17
0.185
0.175
0.205
0.195
0.165
0.135
0.065
0.01
-0.005
-0.025
-0.03
-0.04
-0.025
-0.065
-0.03
-0.01
-0.005
-0.025
-0.04
0.03
0.045
0.06
0.035
0.075
0.18
0.115
0.13
0.025
0.02
-0.115
-0.105
-0.13
-0.075
-0.12
-0.13
-0.15
-0.165
-0.05
0.24
0.44
-0.27
-0.215
-0.125
-0.1
-0.11
-0.15
-0.13
-0.155
-0.075
-0.15
-0.09
-0.085
-0.04
-0.09
-0.045
-0.03
0.015
0.06
0.025
0.13
0.115
0.16
0.195
0.195
0.19
0.135
0.22
0.165
0.07
0.06
-0.025
-0.035
-0.01
-0.01
-0.07
-0.055
-0.015
-0.025
-0.06
-0.04
-0.01
0.005
0.03
0.045
0.03
0.115
0.165
0.13
0.08
0.025
-0.025
-0.06
-0.17
-0.08
-0.095
-0.095
-0.12
-0.175
-0.27
0.185
0.685
0.025
-0.36
-0.255
-0.105
-0.195
-0.05
-0.105
-0.13
-0.105
-0.15
-0.095
-0.105
-0.09
-0.03
0.01
-0.085
0.01
0.045
-0.015
0.095
0.12
0.22
0.185
0.22
0.25
0.315
0.255
0.16
0.145
0.04
0.01
0.005
-0.03
-0.045
-0.005
-0.05
-0.03
-0.005
-0.035
-0.025
0.01
-0.05
0.025
0.1
0.105
0.115
0.145
0.165
0.11
0.055
0.055
-0.045
-0.08
-0.12
-0.1
-0.095
-0.095
-0.15
-0.19
0.0
0.45
0.33
-0.38
-0.225
-0.105
-0.105
-0.105
-0.12
-0.095
-0.12
-0.1
-0.11
-0.11
-0.06
-0.07
-0.055
-0.02
-0.005
0.0
0.015
0.085
0.14
0.13
0.145
0.19
0.22
0.22
0.225
0.205
0.13
0.085
0.01
0.0
-0.02
-0.01
-0.02
-0.03
-0.045
-0.035
-0.02
-0.01
-0.025
-0.025
-0.045
0.025
0.075
0.105
0.095
0.13
0.15
0.135
0.03
0.025
-0.035
-0.08
-0.13
-0.11
-0.115
-0.1
-0.14
-0.19
-0.1
0.28
0.52
-0.285
-0.225
-0.065
-0.055
-0.095
-0.125
-0.115
-0.13
-0.105
-0.11
-0.09
-0.095
-0.06
-0.055
-0.025
-0.03
0.01
0.035
0.065
0.09
0.125
0.125
0.15
0.165
0.17
0.165
0.15
0.13
0.075
0.04
0.0
-0.02
-0.02
-0.035
-0.01
-0.015
-0.04
-0.03
0.0
-0.02
-0.015
-0.03
0.0
0.055
0.11
0.08
0.105
0.135
0.145
0.1
0.035
0.01
-0.065
-0.1
-0.09
-0.095
-0.11
-0.09
-0.135
-0.16
0.07
0.39
0.065
-0.3
-0.225
-0.035
-0.065
-0.105
-0.1
-0.105
-0.1
-0.09
-0.07
-0.075
-0.065
-0.045
-0.045
-0.02
0.0
0.015
0.05
0.07
0.105
0.13
0.155
0.165
0.17
0.17
0.17
0.15
0.095
0.07
0.015
0.01
-0.03
-0.035
-0.035
-0.03
-0.035
-0.025
-0.035
-0.02
-0.035
-0.025
-0.02
0.0
0.06
0.075
0.075
0.11
0.135
0.12
0.06
0.025
-0.045
-0.08
-0.135
-0.09
-0.125
-0.11
-0.13
-0.155
-0.205
0.06
0.43
-0.195
-0.285
-0.165
-0.045
-0.1
-0.12
-0.12
-0.125
-0.1
-0.105
-0.09
-0.11
-0.07
-0.07
-0.015
-0.03
0.0
0.02
0.045
0.06
0.12
0.11
0.145
0.175
0.175
0.165
0.195
0.135
0.105
0.045
0.01
-0.01
-0.01
-0.04
-0.03
-0.035
-0.025
-0.02
-0.025
-0.02
-0.03
-0.01
-0.045
-0.025
0.04
0.09
0.09
0.09
0.165
0.12
0.14
0.01
0.03
-0.085
-0.085
-0.08
-0.105
-0.105
-0.105
-0.135
-0.11
-0.04
0.2
0.44
-0.275
-0.195
-0.105
-0.06
-0.09
-0.145
-0.11
-0.135
-0.095
-0.09
-0.075
-0.09
-0.075
-0.06
0.0
-0.025
0.02
0.05
0.085
0.07
0.1
0.125
0.14
0.18
0.205
0.195
0.18
0.13
0.065
0.035
0.005
-0.025
-0.02
-0.03
-0.015
-0.06
-0.05
-0.005
0.0
-0.025
-0.005
-0.04
-0.005
-0.005
0.035
0.045
0.07
0.065
0.165
0.155
0.105
0.02
0.01
-0.055
-0.11
-0.12
-0.14
-0.09
-0.1
-0.165
-0.15
0.0
0.325
0.41
-0.225
-0.17
-0.115
-0.09
-0.115
-0.145
-0.085
-0.155
-0.115
-0.125
-0.08
-0.06
-0.05
-0.095
-0.04
0.0
0.01
0.0
0.04
0.06
0.095
0.175
0.14
0.13
0.18
0.18
0.19
0.145
0.05
0.005
-0.015
0.005
-0.055
-0.05
0.01
-0.035
-0.07
-0.055
-0.005
-0.02
-0.02
0.005
-0.055
-0.035
0.015
0.06
0.075
0.065
0.13
0.15
0.075
0.04
-0.02
-0.085
-0.16
-0.11
-0.125
-0.13
-0.13
-0.155
-0.18
0.18
0.655
0.055
-0.32
-0.155
-0.045
-0.14
-0.14
-0.13
-0.105
-0.115
-0.115
-0.105
-0.1
-0.11
-0.08
-0.09
-0.05
-0.005
0.0
0.055
0.08
0.13
0.05
0.13
0.15
0.17
0.18
0.2
0.225
0.115
0.075
0.035
-0.025
-0.035
-0.04
-0.03
-0.01
-0.015
-0.025
-0.005
-0.015
-0.025
-0.025
-0.015
-0.06
0.04
0.04
0.09
0.07
0.12
0.13
0.14
0.045
0.035
-0.035
-0.08
-0.11
-0.08
-0.115
-0.085
-0.165
-0.15
-0.11
0.305
0.79
-0.255
-0.26
-0.1
-0.07
-0.085
-0.115
-0.09
-0.115
-0.09
-0.11
-0.06
-0.1
-0.055
-0.05
-0.01
0.005
0.02
0.035
0.055
0.095
0.13
0.14
0.18
0.175
0.2
0.18
0.205
0.165
0.11
0.06
0.035
0.0
-0.005
-0.02
-0.015
-0.025
-0.02
-0.025
-0.015
-0.015
-0.01
-0.03
-0.01
-0.02
0.02
0.075
0.09
0.08
0.135
0.105
0.145
0.045
0.03
-0.02
-0.06
-0.12
-0.085
-0.11
-0.085
-0.14
-0.18
-0.13
0.25
0.655
-0.205
-0.245
-0.11
-0.03
-0.1
-0.12
-0.095
-0.125
-0.075
-0.11
-0.07
-0.09
-0.06
-0.06
-0.03
-0.005
0.01
0.03
0.07
0.085
0.135
0.11
0.145
0.15
0.175
0.165
0.175
0.125
0.1
0.055
0.025
-0.005
-0.03
-0.025
-0.03
-0.015
-0.02
-0.035
-0.03
-0.03
0.005
-0.025
-0.025
-0.04
0.02
0.085
0.075
0.065
0.145
0.115
0.145
0.03
0.02
-0.06
-0.085
-0.125
-0.1
-0.105
-0.095
-0.145
-0.15
-0.155
0.145
0.565
-0.3
-0.305
-0.125
-0.055
-0.105
-0.12
-0.11
-0.125
-0.1
-0.08
-0.075
-0.09
-0.055
-0.08
-0.03
-0.005
0.025
0.02
0.08
0.1
0.11
0.115
0.16
0.15
0.15
0.15
0.17
0.13
0.08
0.03
0.0
-0.025
-0.035
-0.045
-0.035
-0.035
-0.04
-0.05
-0.025
-0.02
-0.03
-0.045
-0.02
-0.03
0.05
0.06
0.065
0.09
0.14
0.11
0.095
0.035
0.01
-0.07
-0.1
-0.12
-0.11
-0.115
-0.115
-0.125
-0.155
-0.02
0.225
0.255
-0.245
-0.205
-0.07
-0.08
-0.12
-0.11
-0.11
-0.105
-0.095
-0.09
-0.075
-0.075
-0.055
-0.04
-0.005
0.01
0.03
0.055
0.08
0.105
0.145
0.155
0.185
0.22
0.185
0.185
0.19
0.12
0.08
0.055
0.015
0.01
-0.045
-0.055
-0.02
-0.03
-0.005
-0.005
-0.035
-0.01
-0.03
-0.035
-0.01
0.035
0.085
0.075
0.055
0.16
0.125
0.115
0.015
0.01
-0.1
-0.115
-0.145
-0.11
-0.105
-0.105
-0.145
-0.17
-0.095
0.16
0.44
-0.28
-0.17
-0.13
-0.085
-0.09
-0.125
-0.13
-0.17
-0.085
-0.1
-0.07
-0.095
-0.05
-0.04
-0.04
-0.045
0.025
0.03
0.07
0.095
0.11
0.135
0.175
0.195
0.235
0.195
0.185
0.13
0.11
0.06
-0.02
0.0
-0.01
-0.04
-0.03
-0.035
-0.035
-0.005
-0.035
-0.01
-0.055
-0.01
-0.01
-0.005
0.05
0.08
0.04
0.17
0.125
0.135
0.045
-0.025
-0.06
-0.08
-0.11
-0.115
-0.12
-0.105
-0.165
-0.135
-0.07
0.28
0.6
-0.275
-0.22
-0.13
-0.08
-0.13
-0.12
-0.115
-0.135
-0.105
-0.13
-0.06
-0.09
-0.075
-0.08
-0.005
-0.03
0.02
0.02
0.04
0.1
0.12
0.135
0.12
0.145
0.205
0.2
0.195
0.085
0.08
0.03
0.01
-0.06
-0.035
-0.065
-0.06
-0.04
-0.075
-0.035
-0.035
-0.045
-0.055
-0.02
-0.055
-0.045
0.07
0.095
0.05
0.13
0.105
0.15
0.025
0.005
-0.07
-0.105
-0.105
-0.085
-0.165
-0.085
-0.145
-0.2
0.005
0.47
0.44
-0.28
-0.255
-0.08
-0.105
-0.08
-0.185
-0.185
-0.085
-0.105
-0.085
-0.13
-0.065
-0.085
-0.05
-0.025
-0.005
-0.025
0.03
0.105
0.135
0.07
0.16
0.195
0.2
0.24
0.19
0.215
0.17
0.08
0.07
0.01
0.005
-0.035
-0.03
0.02
-0.005
-0.035
-0.055
0.01
-0.02
0.0
-0.015
0.01
0.055
0.125
0.065
0.13
0.145
0.145
0.045
0.02
-0.045
-0.03
-0.135
-0.1
-0.125
-0.11
-0.15
-0.21
-0.155
0.27
0.67
-0.36
-0.295
-0.1
-0.095
-0.115
-0.16
-0.105
-0.115
-0.125
-0.11
-0.06
-0.07
-0.06
-0.055
-0.035
-0.02
0.015
0.03
0.075
0.095
0.125
0.13
0.165
0.165
0.2
0.195
0.18
0.155
0.11
0.035
0.02
-0.005
-0.01
-0.01
-0.015
-0.02
-0.035
-0.015
-0.01
0.0
-0.02
-0.005
-0.02
0.02
0.085
0.085
0.085
0.16
0.1
0.125
0.035
0.045
-0.055
-0.065
-0.095
-0.105
-0.11
-0.085
-0.145
-0.165
-0.09
0.26
0.52
-0.29
-0.235
-0.08
-0.075
-0.1
-0.11
-0.105
-0.125
-0.085
-0.11
-0.06
-0.085
-0.065
-0.06
-0.03
0.0
0.01
0.025
0.085
0.09
0.11
0.135
0.16
0.15
0.155
0.17
0.175
0.12
0.06
0.025
0.005
-0.015
-0.04
-0.035
-0.04
-0.02
-0.045
-0.025
-0.03
-0.03
-0.025
-0.02
-0.01
0.025
0.09
0.07
0.075
0.15
0.09
0.12
0.05
0.02
-0.065
-0.095
-0.13
-0.09
-0.11
-0.11
-0.15
-0.155
-0.1
0.195
0.45
-0.335
-0.245
-0.09
-0.06
-0.105
-0.13
-0.125
-0.135
-0.085
-0.1
-0.075
-0.085
-0.065
-0.06
-0.015
-0.01
0.02
0.035
0.08
0.09
0.125
0.135
0.145
0.16
0.175
0.18
0.17
0.115
0.095
0.04
0.0
-0.025
-0.05
-0.05
-0.05
-0.03
-0.045
-0.015
-0.04
-0.02
-0.025
-0.025
-0.005
0.025
0.09
0.065
0.08
0.135
0.13
0.105
0.025
0.02
-0.08
-0.08
-0.12
-0.11
-0.095
-0.11
-0.135
-0.15
-0.06
0.18
0.27
-0.25
-0.195
-0.09
-0.075
-0.095
-0.115
-0.105
-0.12
-0.09
-0.09
-0.065
-0.085
-0.06
-0.03
-0.025
-0.01
0.02
0.045
0.075
0.12
0.15
0.14
0.17
0.16
0.19
0.19
0.155
0.12
0.065
0.015
-0.005
-0.025
-0.025
-0.04
-0.035
-0.04
-0.02
-0.045
-0.04
-0.015
-0.025
-0.015
-0.03
0.01
0.065
0.075
0.065
0.135
0.11
0.14
0.03
0.035
-0.075
-0.085
-0.13
-0.105
-0.125
-0.09
-0.13
-0.135
-0.175
0.07
0.525
-0.285
-0.26
-0.105
-0.05
-0.11
-0.135
-0.11
-0.125
-0.1
-0.1
-0.09
-0.095
-0.075
-0.075
-0.035
-0.005
0.005
0.02
0.06
0.085
0.13
0.145
0.165
0.175
0.185
0.185
0.185
0.12
0.07
0.035
0.0
-0.03
-0.025
-0.045
-0.045
-0.035
-0.05
-0.035
-0.025
-0.025
-0.04
-0.03
-0.015
0.04
0.07
0.07
0.06
0.14
0.115
0.145
0.035
0.03
-0.06
-0.105
-0.12
-0.1
-0.115
-0.09
-0.135
-0.14
-0.17
0.06
0.51
-0.235
-0.25
-0.145
-0.07
-0.105
-0.12
-0.1
-0.13
-0.085
-0.11
-0.065
-0.11
-0.05
-0.06
-0.025
-0.025
0.015
0.03
0.07
0.095
0.13
0.15
0.19
0.175
0.19
0.195
0.18
0.14
0.09
0.035
0.0
-0.03
-0.045
-0.06
-0.055
-0.035
-0.045
-0.045
-0.025
-0.04
-0.03
-0.025
-0.03
0.01
0.045
0.06
0.075
0.105
0.13
0.12
0.075
0.03
0.0
-0.105
-0.11
-0.105
-0.11
-0.1
-0.125
-0.16
-0.15
-0.035
0.27
0.13
-0.23
-0.17
-0.075
-0.105
-0.125
-0.12
-0.125
-0.11
-0.105
-0.095
-0.105
-0.085
-0.05
-0.045
-0.02
-0.005
0.015
0.055
0.105
0.115
0.13
0.15
0.205
0.185
0.205
0.215
0.16
0.125
0.045
0.015
-0.03
-0.04
-0.055
-0.055
-0.055
-0.05
-0.05
-0.025
-0.055
-0.025
-0.03
-0.02
-0.04
0.02
0.06
0.04
0.085
0.125
0.115
0.135
0.02
0.015
-0.08
-0.085
-0.11
-0.13
-0.135
-0.095
-0.12
-0.145
-0.165
0.055
0.525
-0.235
-0.265
-0.145
-0.065
-0.105
-0.14
-0.09
-0.135
-0.11
-0.115
-0.085
-0.085
-0.06
-0.055
-0.03
-0.025
0.005
0.02
0.065
0.1
0.14
0.17
0.2
0.195
0.2
0.19
0.19
0.145
0.105
0.045
0.015
-0.025
-0.035
-0.05
-0.05
-0.055
-0.015
-0.04
-0.035
-0.065
-0.025
-0.02
-0.015
-0.015
0.04
0.075
0.07
0.105
0.13
0.1
0.13
0.045
0.015
-0.085
-0.085
-0.125
-0.105
-0.115
-0.105
-0.135
-0.13
-0.135
0.14
0.525
-0.245
-0.2
-0.14
-0.07
-0.115
-0.145
-0.14
-0.125
-0.105
-0.115
-0.09
-0.1
-0.05
-0.06
-0.045
-0.01
0.025
0.02
0.075
0.095
0.155
0.18
0.175
0.19
0.225
0.21
0.185
0.135
0.125
0.055
-0.02
-0.01
-0.02
-0.02
-0.005
-0.035
-0.04
-0.03
-0.025
-0.025
-0.015
0.01
-0.005
0.0
0.06
0.065
0.09
0.105
0.2
0.15
0.095
0.06
0.005
-0.085
-0.115
-0.105
-0.08
-0.06
-0.125
-0.14
-0.145
0.085
0.4
0.23
-0.195
-0.12
-0.055
-0.095
-0.115
-0.105
-0.12
-0.1
-0.1
-0.075
-0.08
-0.045
-0.075
-0.055
0.005
0.025
-0.015
0.05
0.085
0.11
0.18
0.14
0.215
0.165
0.225
0.235
0.225
0.1
0.1
0.02
-0.035
0.04
-0.045
-0.035
-0.02
-0.04
-0.055
0.015
-0.045
-0.03
-0.065
-0.02
-0.04
0.015
0.045
0.065
0.06
0.12
0.13
0.165
0.025
0.005
-0.06
-0.055
-0.13
-0.05
-0.15
-0.175
-0.095
-0.155
-0.12
0.375
0.87
-0.16
-0.305
-0.16
-0.06
-0.095
-0.13
-0.06
-0.145
-0.105
-0.05
-0.075
-0.06
-0.045
-0.005
-0.04
-0.025
0.065
0.035
0.105
0.1
0.175
0.13
0.215
0.175
0.34
0.225
0.2
0.26
0.245
-0.025
0.065
0.085
-0.02
0.055
-0.085
0.025
0.035
0.02
-0.04
-0.015
0.045
0.005
0.0
0.03
0.125
0.1
0.185
0.14
0.115
0.085
0.0
0.095
-0.145
-0.145
-0.075
-0.2
-0.145
-0.075
-0.14
-0.12
0.26
0.415
-0.345
-0.37
-0.2
-0.08
-0.04
-0.16
-0.02
-0.19
-0.08
-0.14
-0.01
0.005
-0.06
-0.075
-0.055
0.02
-0.02
0.13
0.08
0.095
0.13
0.19
0.24
0.225
0.27
0.23
0.24
0.17
0.1
0.07
0.0
-0.025
-0.035
0.035
-0.065
-0.04
0.065
-0.085
-0.09
0.015
-0.025
0.025
-0.035
-0.015
0.07
0.085
0.135
0.08
0.175
0.19
0.005
-0.035
-0.065
-0.045
-0.115
-0.095
-0.135
-0.095
-0.1
-0.195
0.1
0.295
0.04
-0.395
-0.345
-0.13
-0.075
-0.115
-0.09
-0.135
-0.115
-0.09
-0.08
-0.12
-0.025
-0.065
-0.01
-0.005
0.0
-0.005
0.015
0.12
0.125
0.14
0.17
0.175
0.235
0.255
0.29
0.24
0.1
0.135
0.015
-0.015
-0.075
0.02
-0.01
-0.09
0.015
0.02
-0.01
-0.075
0.055
-0.03
0.015
0.0
-0.035
0.015
0.14
0.065
0.105
0.16
0.18
0.05
0.02
-0.04
-0.065
-0.07
-0.12
-0.1
-0.16
-0.11
-0.17
0.01
0.27
0.49
-0.39
-0.355
-0.165
-0.075
-0.07
-0.15
-0.09
-0.135
-0.095
-0.085
-0.06
-0.125
-0.03
-0.07
-0.005
0.0
-0.02
0.05
0.04
0.025
0.14
0.11
0.125
0.2
0.275
0.21
0.19
0.165
0.135
-0.015
0.0
-0.01
-0.035
-0.02
-0.04
-0.025
-0.045
-0.025
-0.015
0.01
-0.05
-0.02
0.0
-0.005
-0.025
0.02
0.155
0.085
0.08
0.16
0.14
-0.01
-0.03
-0.045
-0.13
-0.105
-0.15
-0.08
-0.16
-0.165
-0.08
0.245
0.56
-0.165
-0.385
-0.225
-0.1
-0.095
-0.155
-0.115
-0.15
-0.12
-0.095
-0.06
-0.11
-0.095
-0.07
-0.04
-0.015
-0.035
-0.02
0.075
0.07
0.04
0.07
0.1
0.185
0.165
0.18
0.255
0.195
0.085
0.075
0.015
0.01
-0.055
-0.035
0.0
-0.07
-0.04
-0.04
0.005
-0.02
-0.01
-0.005
-0.055
-0.03
0.0
-0.035
0.04
0.095
0.085
0.12
0.135
0.115
0.045
-0.015
-0.01
-0.145
-0.105
-0.125
-0.09
-0.075
-0.18
-0.16
0.24
0.515
0.04
-0.325
-0.24
-0.1
-0.105
-0.095
-0.11
-0.1
-0.1
-0.105
-0.085
-0.065
-0.065
-0.03
-0.03
-0.04
0.0
0.0
0.03
0.045
0.075
0.135
0.115
0.14
0.13
0.21
0.215
0.215
0.11
0.07
0.06
0.025
-0.065
-0.015
-0.005
-0.035
-0.03
-0.025
-0.005
0.01
-0.055
-0.005
-0.015
-0.01
-0.02
-0.045
0.005
0.085
0.07
0.125
0.13
0.105
0.045
0.035
-0.01
-0.13
-0.145
-0.105
-0.13
-0.12
-0.175
-0.155
-0.005
0.395
0.535
-0.4
-0.285
-0.135
-0.095
-0.135
-0.07
-0.125
-0.145
-0.08
-0.11
-0.09
-0.065
-0.055
-0.095
-0.03
-0.045
0.0
0.025
0.025
0.045
0.14
0.06
0.105
0.14
0.19
0.205
0.195
0.135
0.095
0.07
0.025
-0.055
-0.01
-0.025
-0.02
-0.02
-0.05
0.0
0.01
-0.025
-0.02
-0.045
-0.005
-0.035
-0.035
0.02
0.095
0.025
0.1
0.17
0.165
0.085
0.01
-0.015
-0.065
-0.105
-0.095
-0.135
-0.095
-0.12
-0.175
-0.125
0.37
0.64
-0.275
-0.325
-0.215
-0.08
-0.075
-0.13
-0.115
-0.105
-0.12
-0.11
-0.045
-0.14
-0.055
-0.035
-0.035
-0.03
-0.02
0.025
0.025
0.04
0.125
0.065
0.15
0.105
0.195
0.215
0.205
0.18
0.1
0.08
0.025
0.0
-0.025
-0.03
-0.03
-0.035
-0.015
0.0
-0.015
-0.045
-0.005
-0.03
0.0
-0.02
-0.05
0.005
0.075
0.045
0.08
0.14
0.14
0.145
0.0
0.03
-0.06
-0.09
-0.11
-0.105
-0.13
-0.095
-0.175
-0.155
0.24
0.49
0.15
-0.335
-0.225
-0.075
-0.12
-0.12
-0.14
-0.11
-0.06
-0.1
-0.08
-0.075
-0.04
-0.055
-0.06
-0.045
0.0
0.01
0.015
0.055
0.09
0.085
0.135
0.14
0.13
0.225
0.245
0.145
0.15
0.09
0.045
0.0
-0.045
-0.01
0.01
-0.05
-0.025
-0.025
-0.025
-0.025
0.005
-0.06
-0.03
0.025
-0.075
0.01
0.015
0.085
0.12
0.09
0.125
0.13
0.03
0.035
-0.08
-0.11
-0.085
-0.09
-0.11
-0.12
-0.155
-0.175
0.18
0.49
0.13
-0.38
-0.21
-0.075
-0.1
-0.15
-0.125
-0.095
-0.08
-0.135
-0.095
-0.06
-0.06
-0.055
-0.03
-0.01
-0.045
0.01
0.055
0.055
0.07
0.105
0.115
0.175
0.145
0.225
0.205
0.205
0.135
0.09
0.04
-0.015
-0.005
-0.025
-0.05
-0.02
-0.03
-0.035
-0.025
-0.01
0.0
-0.045
-0.02
-0.045
-0.015
0.015
0.05
0.07
0.09
0.135
0.145
0.08
0.035
0.015
-0.035
-0.12
-0.105
-0.09
-0.125
-0.105
-0.15
-0.165
0.205
0.545
0.065
-0.36
-0.205
-0.11
-0.075
-0.14
-0.12
-0.105
-0.12
-0.08
-0.085
-0.115
-0.06
-0.07
-0.065
0.0
-0.025
0.0
0.06
0.03
0.06
0.145
0.12
0.125
0.165
0.21
0.24
0.17
0.135
0.1
0.005
0.02
-0.04
-0.03
-0.045
-0.035
-0.015
-0.035
-0.005
-0.05
-0.02
-0.05
-0.04
-0.045
0.01
-0.015
0.075
0.02
0.115
0.14
0.105
0.11
0.02
-0.015
-0.04
-0.12
-0.13
-0.115
-0.1
-0.13
-0.18
-0.165
0.245
0.62
-0.09
-0.345
-0.24
-0.085
-0.09
-0.11
-0.13
-0.145
-0.095
-0.085
-0.09
-0.08
-0.105
-0.055
-0.035
-0.055
0.005
0.005
0.065
0.02
0.095
0.125
0.13
0.175
0.205
0.17
0.22
0.205
0.18
0.07
0.01
-0.015
-0.02
0.01
-0.05
-0.03
-0.015
-0.025
-0.015
-0.04
-0.005
-0.005
-0.02
-0.03
-0.04
0.0
0.115
0.055
0.115
0.125
0.165
0.085
0.03
-0.01
-0.04
-0.105
-0.105
-0.12
-0.115
-0.125
-0.175
-0.175
0.26
0.635
-0.17
-0.38
-0.215
-0.08
-0.07
-0.15
-0.115
-0.145
-0.1
-0.09
-0.065
-0.105
-0.07
-0.035
-0.05
-0.02
-0.02
0.025
0.09
0.04
0.115
0.14
0.155
0.175
0.185
0.21
0.245
0.25
0.12
0.04
0.02
0.01
-0.01
-0.035
-0.04
-0.025
-0.025
-0.015
-0.02
-0.01
-0.05
-0.02
-0.005
-0.01
-0.07
0.015
0.03
0.11
0.11
0.07
0.135
0.135
0.045
0.045
-0.09
-0.065
-0.13
-0.08
-0.09
-0.125
-0.16
-0.165
0.085
0.39
0.4
-0.365
-0.28
-0.15
-0.07
-0.13
-0.11
-0.13
-0.11
-0.075
-0.11
-0.095
-0.055
-0.065
-0.035
-0.045
-0.02
0.045
0.005
0.065
0.09
0.095
0.16
0.165
0.17
0.185
0.2
0.215
0.14
0.115
0.005
-0.02
-0.03
-0.02
-0.045
-0.025
-0.055
-0.06
-0.05
-0.005
-0.025
0.0
-0.06
-0.05
-0.045
-0.005
-0.01
0.09
0.045
0.09
0.105
0.125
0.045
0.025
0.0
-0.075
-0.155
-0.1
-0.14
-0.13
-0.13
-0.215
-0.145
0.255
0.645
-0.295
-0.38
-0.205
-0.095
-0.125
-0.125
-0.13
-0.15
-0.105
-0.125
-0.11
-0.09
-0.065
-0.105
-0.05
-0.045
-0.015
0.005
0.045
0.05
0.1
0.095
0.155
0.145
0.18
0.175
0.195
0.165
0.12
0.075
0.01
-0.005
-0.04
-0.03
-0.04
-0.03
-0.045
-0.025
-0.055
-0.02
-0.025
-0.025
-0.055
0.0
-0.05
0.0
0.025
0.07
0.055
0.095
0.125
0.11
0.06
0.025
-0.025
-0.1
-0.12
-0.09
-0.15
-0.105
-0.135
-0.17
-0.125
0.245
0.665
-0.31
-0.275
-0.125
-0.06
-0.09
-0.13
-0.095
-0.13
-0.085
-0.105
-0.08
-0.105
-0.04
-0.055
-0.025
-0.045
0.025
0.03
0.06
0.105
0.135
0.135
0.155
0.185
0.2
0.205
0.19
0.16
0.11
0.05
0.015
-0.015
-0.03
-0.03
-0.05
-0.055
-0.04
-0.035
-0.04
-0.05
-0.015
-0.035
-0.04
-0.04
-0.035
0.005
0.065
0.05
0.055
0.12
0.08
0.145
0.02
-0.005
-0.065
-0.085
-0.135
-0.12
-0.115
-0.12
-0.165
-0.165
-0.02
0.3
0.42
-0.245
-0.2
-0.065
-0.08
-0.11
-0.115
-0.115
-0.135
-0.1
-0.105
-0.09
-0.065
-0.07
-0.075
-0.045
-0.01
0.005
0.04
0.07
0.1
0.14
0.16
0.165
0.18
0.205
0.2
0.175
0.12
0.06
0.025
0.005
-0.015
-0.035
-0.04
-0.055
-0.045
-0.055
-0.04
-0.045
-0.03
-0.04
-0.04
-0.045
-0.035
-0.055
-0.005
0.015
0.06
0.05
0.08
0.105
0.11
0.035
0.005
-0.025
-0.08
-0.14
-0.11
-0.13
-0.1
-0.13
-0.165
-0.19
0.11
0.585
-0.06
-0.185
-0.11
-0.035
-0.11
-0.125
-0.115
-0.135
-0.115
-0.115
-0.08
-0.1
-0.055
-0.065
-0.04
-0.04
0.0
0.02
0.065
0.08
0.135
0.16
0.18
0.185
0.22
0.195
0.195
0.15
0.105
0.035
0.0
-0.02
-0.045
-0.045
-0.05
-0.065
-0.045
-0.05
-0.045
-0.055
-0.045
-0.045
-0.04
-0.04
-0.045
-0.055
0.0
0.025
0.035
0.035
0.08
0.11
0.11
0.035
0.015
-0.04
-0.1
-0.13
-0.115
-0.135
-0.12
-0.13
-0.155
-0.185
0.035
0.48
-0.01
-0.22
-0.165
-0.065
-0.11
-0.125
-0.12
-0.145
-0.125
-0.125
-0.1
-0.095
-0.065
-0.09
-0.045
-0.04
0.0
0.025
0.075
0.095
0.125
0.145
0.21
0.22
0.255
0.235
0.23
0.15
0.115
0.05
0.01
-0.025
-0.03
-0.02
-0.06
-0.075
-0.035
-0.035
-0.045
-0.045
-0.035
-0.035
-0.04
-0.025
-0.025
-0.035
-0.035
-0.04
-0.005
0.025
0.055
0.07
0.145
0.09
0.12
0.02
0.0
-0.1
-0.095
-0.135
-0.105
-0.12
-0.1
-0.12
-0.13
-0.125
0.145
0.645
-0.155
-0.22
-0.15
-0.07
-0.1
-0.115
-0.085
-0.13
-0.105
-0.1
-0.07
-0.085
-0.03
-0.07
-0.025
-0.04
0.035
0.045
0.085
0.12
0.16
0.17
0.215
0.22
0.25
0.27
0.25
0.19
0.125
0.08
0.015
0.0
-0.015
-0.035
-0.03
-0.05
-0.015
-0.035
-0.035
-0.025
-0.02
-0.035
-0.02
-0.02
-0.025
-0.035
-0.025
-0.04
-0.03
-0.04
-0.06
-0.02
0.01
0.05
0.055
0.065
0.125
0.11
0.06
0.01
-0.03
-0.08
-0.11
-0.125
-0.105
-0.105
-0.11
-0.145
-0.145
-0.035
0.36
0.455
-0.14
-0.15
-0.07
-0.06
-0.115
-0.135
-0.135
-0.135
-0.11
-0.11
-0.095
-0.095
-0.07
-0.07
-0.045
-0.025
0.0
0.03
0.08
0.095
0.135
0.17
0.19
0.205
0.24
0.235
0.19
0.155
0.095
0.025
0.005
-0.01
-0.035
-0.045
-0.04
-0.065
-0.045
-0.045
-0.04
-0.045
-0.04
-0.025
-0.045
-0.015
-0.055
-0.03
-0.04
-0.04
-0.04
-0.05
-0.06
-0.055
-0.065
0.0
0.03
0.05
0.05
0.12
0.1
0.1
0.005
0.0
-0.1
-0.095
-0.115
-0.1
-0.115
-0.1
-0.14
-0.14
-0.14
0.21
0.705
-0.155
-0.205
-0.115
-0.055
-0.1
-0.13
-0.11
-0.14
-0.09
-0.11
-0.095
-0.11
-0.055
-0.08
-0.05
-0.035
0.005
0.02
0.065
0.085
0.155
0.165
0.195
0.21
0.235
0.23
0.23
0.165
0.115
0.07
0.015
-0.01
-0.02
-0.055
-0.06
-0.03
-0.075
-0.035
-0.025
-0.06
-0.04
-0.04
-0.035
-0.005
-0.03
-0.04
-0.06
-0.03
-0.05
-0.025
-0.04
-0.06
-0.055
0.01
0.075
0.075
0.06
0.135
0.095
0.095
0.035
0.01
-0.09
-0.085
-0.13
-0.11
-0.115
-0.085
-0.145
-0.08
-0.09
0.235
0.655
-0.12
-0.175
-0.12
-0.075
-0.105
-0.14
-0.12
-0.105
-0.11
-0.095
-0.095
-0.06
-0.07
-0.075
-0.05
-0.03
0.005
0.055
0.095
0.05
0.16
0.165
0.24
0.24
0.28
0.225
0.265
0.2
0.165
0.12
0.015
0.0
-0.035
-0.005
-0.025
-0.085
-0.055
-0.015
0.005
-0.08
-0.045
-0.03
-0.04
-0.015
-0.05
-0.02
-0.06
-0.035
-0.04
-0.07
-0.03
-0.09
-0.025
0.005
0.065
0.045
0.085
0.165
0.135
-0.03
0.0
-0.015
-0.105
-0.14
-0.07
-0.16
-0.105
-0.075
-0.165
-0.11
0.315
0.855
-0.21
-0.32
-0.195
-0.11
-0.07
-0.14
-0.105
-0.14
-0.1
-0.09
-0.085
-0.1
-0.055
-0.08
-0.015
-0.035
0.005
0.045
0.0
0.125
0.14
0.14
0.21
0.23
0.28
0.235
0.3
0.205
0.145
0.12
0.03
-0.03
0.02
-0.035
-0.01
-0.055
-0.04
-0.03
-0.03
-0.04
-0.07
-0.005
-0.06
-0.055
-0.015
-0.03
-0.045
-0.075
-0.015
-0.005
-0.095
-0.03
0.065
0.06
0.055
0.135
0.085
0.13
0.015
0.0
-0.04
-0.105
-0.145
-0.095
-0.065
-0.15
-0.12
-0.11
0.07
0.56
0.5
-0.365
-0.34
-0.21
-0.085
-0.125
-0.11
-0.1
-0.115
-0.07
-0.15
-0.075
-0.105
-0.02
-0.115
-0.01
0.0
-0.02
0.04
0.045
0.035
0.195
0.135
0.195
0.23
0.27
0.27
0.23
0.19
0.1
0.075
0.0
0.025
-0.07
0.0
-0.01
-0.055
-0.015
-0.09
-0.02
-0.015
-0.02
-0.04
-0.055
0.025
-0.06
-0.075
0.0
-0.05
-0.06
-0.015
-0.025
-0.055
0.11
0.13
0.015
0.12
0.115
0.06
0.04
0.01
-0.035
-0.09
-0.125
-0.09
-0.135
-0.14
-0.12
-0.075
0.3
0.67
-0.03
-0.39
-0.235
-0.135
-0.105
-0.135
-0.06
-0.125
-0.13
-0.105
-0.11
-0.05
-0.02
-0.11
-0.055
-0.05
0.01
0.015
0.03
0.075
0.085
0.13
0.125
0.205
0.265
0.135
0.18
0.22
0.18
0.07
0.085
0.03
-0.055
-0.015
0.0
-0.065
-0.03
-0.01
-0.035
0.03
-0.055
0.0
-0.035
0.015
-0.01
-0.02
-0.035
-0.045
-0.045
-0.025
-0.025
-0.05
0.01
0.1
0.045
0.055
0.145
0.16
0.05
0.04
0.01
-0.065
-0.095
-0.095
-0.105
-0.12
-0.095
-0.175
-0.085
0.33
0.73
-0.085
-0.385
-0.22
-0.11
-0.06
-0.145
-0.095
-0.06
-0.115
-0.105
-0.1
-0.08
-0.02
-0.08
-0.045
-0.025
0.025
-0.005
0.01
0.055
0.095
0.115
0.15
0.125
0.155
0.215
0.145
0.21
0.155
0.085
0.05
0.0
-0.03
-0.045
0.0
-0.05
0.005
-0.045
-0.015
0.01
-0.025
-0.035
-0.02
-0.005
-0.015
0.02
-0.025
-0.035
-0.055
-0.03
-0.035
-0.025
-0.02
0.08
0.09
0.15
0.125
0.09
0.02
0.025
-0.025
-0.1
-0.1
-0.095
-0.105
-0.07
-0.145
-0.155
0.095
0.48
0.53
-0.35
-0.325
-0.145
-0.1
-0.1
-0.15
-0.09
-0.07
-0.1
-0.15
