signal
0.11
0.2
0.29
0.195
0.145
0.04
-0.015
-0.09
-0.055
-0.115
-0.08
-0.11
-0.17
-0.68
-0.895
-0.53
0.63
2.875
2.085
1.345
0.545
-0.105
-0.1
-0.16
-0.14
-0.175
-0.145
-0.175
-0.14
-0.17
-0.15
-0.18
-0.155
-0.195
-0.18
-0.2
-0.19
-0.22
-0.2
-0.22
-0.205
-0.195
-0.16
-0.12
-0.055
0.0
0.085
0.13
0.15
0.135
0.115
0.085
0.065
0.03
0.015
0.0
0.0
-0.01
-0.015
-0.035
-0.06
-0.075
-0.09
-0.11
-0.12
-0.11
-0.11
-0.11
-0.115
-0.105
-0.1
-0.095
-0.085
-0.095
-0.065
-0.075
-0.065
-0.09
-0.065
-0.09
-0.055
-0.07
0.015
0.065
0.115
0.195
0.27
0.2
0.145
0.075
-0.025
-0.09
-0.065
-0.105
-0.085
-0.115
-0.14
-0.625
-0.835
-0.67
0.155
2.675
2.31
1.41
0.7
-0.07
-0.1
-0.16
-0.145
-0.175
-0.15
-0.17
-0.15
-0.16
-0.135
-0.145
-0.14
-0.18
-0.17
-0.19
-0.18
-0.195
-0.205
-0.215
-0.205
-0.2
-0.165
-0.125
-0.06
0.0
0.075
0.135
0.16
0.145
0.145
0.11
0.075
0.055
0.04
0.03
0.01
0.0
-0.005
-0.015
-0.04
-0.065
-0.075
-0.09
-0.095
-0.105
-0.1
-0.11
-0.085
-0.085
-0.075
-0.08
-0.075
-0.075
-0.05
-0.07
-0.05
-0.07
-0.05
-0.075
-0.055
-0.07
-0.05
-0.06
0.04
0.08
0.11
0.215
0.265
0.165
0.135
-0.005
-0.045
-0.095
-0.07
-0.125
-0.085
-0.13
-0.205
-0.71
-0.94
-0.555
0.695
2.845
1.95
1.28
0.445
-0.15
-0.12
-0.185
-0.16
-0.195
-0.155
-0.18
-0.15
-0.18
-0.15
-0.18
-0.155
-0.2
-0.18
-0.205
-0.19
-0.225
-0.21
-0.23
-0.2
-0.195
-0.14
-0.115
-0.06
0.005
0.095
0.145
0.17
0.155
0.14
0.105
0.075
0.06
0.035
0.025
0.015
0.005
-0.015
-0.03
-0.05
-0.06
-0.09
-0.095
-0.115
-0.11
-0.12
-0.11
-0.11
-0.08
-0.095
-0.075
-0.08
-0.065
-0.08
-0.055
-0.08
-0.05
-0.07
-0.045
-0.075
-0.04
-0.075
-0.045
-0.065
0.05
0.08
0.115
0.21
0.28
0.19
0.15
0.015
-0.02
-0.095
-0.06
-0.125
-0.07
-0.125
-0.18
-0.72
-0.945
-0.58
0.53
2.85
2.1
1.31
0.44
-0.165
-0.115
-0.18
-0.155
-0.18
-0.135
-0.175
-0.135
-0.18
-0.155
-0.19
-0.155
-0.18
-0.165
-0.21
-0.19
-0.225
-0.215
-0.235
-0.215
-0.23
-0.17
-0.135
-0.085
-0.06
0.03
0.105
0.13
0.115
0.125
0.1
0.085
0.05
0.05
0.02
0.02
0.0
0.0
-0.02
-0.045
-0.055
-0.085
-0.095
-0.105
-0.11
-0.105
-0.11
-0.115
-0.095
-0.09
-0.085
-0.09
-0.08
-0.085
-0.06
-0.085
-0.07
-0.09
-0.06
-0.08
-0.055
-0.07
-0.055
-0.055
0.045
0.075
0.125
0.225
0.265
0.165
0.145
-0.025
-0.045
-0.085
-0.055
-0.115
-0.085
-0.14
-0.3
-0.775
-0.995
-0.44
1.205
3.035
1.965
1.255
0.24
-0.165
-0.12
-0.18
-0.145
-0.195
-0.15
-0.19
-0.175
-0.205
-0.18
-0.195
-0.18
-0.21
-0.205
-0.22
-0.21
-0.26
-0.2
-0.245
-0.25
-0.25
-0.21
-0.17
-0.12
-0.075
-0.01
0.065
0.1
0.095
0.06
0.065
0.06
0.035
0.02
0.015
0.015
-0.01
-0.015
-0.035
-0.055
-0.07
-0.105
-0.115
-0.12
-0.13
-0.12
-0.125
-0.13
-0.1
-0.1
-0.115
-0.1
-0.08
-0.08
-0.09
-0.09
-0.095
-0.07
-0.105
-0.08
-0.07
-0.075
-0.11
0.015
0.06
0.08
0.2
0.21
0.11
0.11
-0.06
-0.075
-0.1
-0.07
-0.125
-0.105
-0.135
-0.415
-0.775
-0.955
-0.37
1.76
2.96
1.76
1.17
0.14
-0.16
-0.125
-0.19
-0.15
-0.165
-0.15
-0.165
-0.15
-0.17
-0.155
-0.18
-0.15
-0.175
-0.17
-0.195
-0.18
-0.195
-0.195
-0.2
-0.205
-0.17
-0.14
-0.11
-0.045
0.01
0.095
0.12
0.135
0.135
0.12
0.11
0.08
0.055
0.045
0.03
0.035
0.015
0.01
-0.01
-0.03
-0.055
-0.075
-0.07
-0.08
-0.1
-0.11
-0.085
-0.07
-0.08
-0.075
-0.09
-0.06
-0.075
-0.065
-0.065
-0.05
-0.075
-0.06
-0.065
-0.04
-0.06
-0.02
-0.055
0.035
0.085
0.115
0.21
0.27
0.175
0.145
0.005
-0.01
-0.075
-0.06
-0.11
-0.065
-0.115
-0.22
-0.695
-0.925
-0.45
0.975
2.99
1.965
1.3
0.415
-0.14
-0.115
-0.185
-0.155
-0.2
-0.16
-0.19
-0.155
-0.19
-0.15
-0.185
-0.16
-0.195
-0.18
-0.21
-0.18
-0.22
-0.205
-0.225
-0.205
-0.19
-0.15
-0.11
-0.045
0.005
0.085
0.13
0.145
0.13
0.11
0.08
0.06
0.05
0.03
0.025
0.02
0.015
-0.005
-0.02
-0.045
-0.055
-0.065
-0.08
-0.1
-0.11
-0.105
-0.1
-0.105
-0.095
-0.095
-0.08
-0.075
-0.075
-0.065
-0.07
-0.06
-0.065
-0.055
-0.06
-0.055
-0.065
-0.06
-0.065
-0.05
-0.04
0.07
0.105
0.13
0.24
0.255
0.16
0.13
-0.005
-0.05
-0.09
-0.085
-0.11
-0.085
-0.12
-0.35
-0.73
-0.905
-0.335
1.675
2.885
1.665
1.135
0.28
-0.125
-0.125
-0.17
-0.155
-0.18
-0.155
-0.17
-0.15
-0.165
-0.145
-0.16
-0.155
-0.175
-0.165
-0.19
-0.185
-0.2
-0.195
-0.205
-0.185
-0.165
-0.125
-0.08
-0.015
0.05
0.13
0.17
0.175
0.145
0.13
0.09
0.065
0.04
0.025
0.02
0.0
-0.005
-0.02
-0.03
-0.055
-0.06
-0.085
-0.1
-0.105
-0.11
-0.11
-0.1
-0.095
-0.065
-0.095
-0.075
-0.095
-0.08
-0.08
-0.07
-0.1
-0.07
-0.075
-0.07
-0.09
-0.07
-0.085
-0.07
-0.08
-0.05
-0.09
0.01
0.05
0.115
0.175
0.26
0.18
0.14
0.02
-0.035
-0.1
-0.07
-0.125
-0.085
-0.12
-0.15
-0.665
-0.88
-0.67
0.245
2.8
2.285
1.38
0.61
-0.11
-0.125
-0.185
-0.16
-0.2
-0.165
-0.195
-0.15
-0.185
-0.155
-0.2
-0.175
-0.215
-0.185
-0.22
-0.22
-0.245
-0.22
-0.245
-0.21
-0.235
-0.19
-0.155
-0.085
-0.04
0.04
0.095
0.125
0.12
0.115
0.08
0.05
0.03
0.035
0.0
0.0
0.0
0.0
-0.01
-0.06
-0.07
-0.075
-0.08
-0.115
-0.125
-0.125
-0.11
-0.115
-0.105
-0.105
-0.105
-0.11
-0.07
-0.1
-0.08
-0.085
-0.07
-0.085
-0.08
-0.075
-0.045
-0.095
-0.05
-0.07
-0.05
-0.065
0.02
0.065
0.105
0.205
0.25
0.175
0.17
-0.01
-0.04
-0.08
-0.055
-0.1
-0.095
-0.115
-0.195
-0.73
-0.935
-0.57
0.52
2.965
2.26
1.405
0.5
-0.18
-0.125
-0.165
-0.13
-0.195
-0.135
-0.19
-0.16
-0.185
-0.165
-0.18
-0.175
-0.185
-0.165
-0.22
-0.205
-0.225
-0.215
-0.24
-0.23
-0.22
-0.195
-0.195
-0.13
-0.07
-0.005
0.07
0.1
0.12
0.095
0.075
0.045
0.035
0.035
0.005
0.01
0.0
-0.025
-0.02
-0.035
-0.07
-0.095
-0.09
-0.09
-0.1
-0.125
-0.11
-0.115
-0.11
-0.085
-0.105
-0.105
-0.085
-0.09
-0.08
-0.085
-0.08
-0.09
-0.08
-0.075
-0.05
-0.085
-0.07
-0.07
-0.05
-0.06
0.045
0.085
0.125
0.215
0.245
0.145
0.135
-0.015
-0.03
-0.065
-0.05
-0.095
-0.05
-0.115
-0.365
-0.73
-0.92
-0.305
1.845
2.99
1.775
1.19
0.185
-0.135
-0.11
-0.15
-0.125
-0.155
-0.13
-0.16
-0.13
-0.15
-0.14
-0.17
-0.16
-0.195
-0.175
-0.195
-0.185
-0.225
-0.205
-0.23
-0.205
-0.22
-0.175
-0.135
-0.08
-0.015
0.06
0.11
0.15
0.115
0.11
0.09
0.045
0.03
0.035
0.015
0.015
0.005
0.005
-0.015
-0.025
-0.045
-0.07
-0.075
-0.075
-0.085
-0.095
-0.095
-0.08
-0.075
-0.085
-0.08
-0.085
-0.085
-0.085
-0.075
-0.07
-0.075
-0.075
-0.07
-0.08
-0.075
-0.075
-0.06
-0.065
-0.08
-0.065
-0.03
0.065
0.105
0.16
0.26
0.225
0.15
0.11
-0.015
-0.055
-0.075
-0.1
-0.1
-0.095
-0.12
-0.525
-0.775
-0.785
-0.115
2.41
2.67
1.5
0.93
0.04
-0.115
-0.13
-0.155
-0.17
-0.17
-0.155
-0.16
-0.15
-0.155
-0.155
-0.165
-0.155
-0.18
-0.195
-0.185
-0.195
-0.2
-0.21
-0.215
-0.195
-0.175
-0.145
-0.095
-0.025
0.04
0.125
0.16
0.155
0.13
0.12
0.09
0.065
0.04
0.025
0.015
0.01
-0.01
-0.01
-0.02
-0.035
-0.055
-0.07
-0.085
-0.08
-0.09
-0.1
-0.1
-0.095
-0.085
-0.085
-0.085
-0.08
-0.08
-0.085
-0.07
-0.08
-0.065
-0.08
-0.075
-0.08
-0.065
-0.075
-0.065
-0.075
-0.06
-0.08
-0.055
-0.06
0.045
0.08
0.115
0.23
0.255
0.155
0.13
0.0
-0.035
-0.085
-0.075
-0.12
-0.085
-0.14
-0.26
-0.72
-0.93
-0.445
1.135
2.945
1.855
1.255
0.425
-0.13
-0.115
-0.17
-0.15
-0.18
-0.145
-0.17
-0.14
-0.17
-0.145
-0.165
-0.15
-0.185
-0.17
-0.19
-0.185
-0.22
-0.205
-0.225
-0.21
-0.205
-0.165
-0.125
-0.07
0.0
0.075
0.135
0.175
0.155
0.125
0.1
0.075
0.05
0.03
0.01
0.005
0.0
-0.015
-0.03
-0.04
-0.04
-0.075
-0.07
-0.09
-0.085
-0.1
-0.085
-0.095
-0.085
-0.09
-0.08
-0.09
-0.075
-0.075
-0.075
-0.07
-0.075
-0.08
-0.07
-0.08
-0.065
-0.085
-0.055
-0.075
-0.065
-0.075
-0.055
-0.065
-0.025
0.06
0.11
0.185
0.255
0.22
0.15
0.105
-0.03
-0.065
-0.09
-0.105
-0.105
-0.105
-0.11
-0.51
-0.795
-0.875
-0.245
2.29
2.705
1.52
0.95
0.035
-0.135
-0.135
-0.17
-0.17
-0.175
-0.18
-0.18
-0.16
-0.175
-0.19
-0.185
-0.2
-0.19
-0.225
-0.21
-0.235
-0.23
-0.24
-0.255
-0.24
-0.235
-0.2
-0.15
-0.105
-0.035
0.05
0.1
0.105
0.1
0.075
0.07
0.035
0.01
-0.01
0.0
0.0
-0.01
-0.02
-0.05
-0.05
-0.065
-0.08
-0.085
-0.09
-0.115
-0.115
-0.11
-0.095
-0.09
-0.09
-0.095
-0.08
-0.08
-0.07
-0.08
-0.07
-0.065
-0.075
-0.07
-0.065
-0.07
-0.06
-0.085
0.01
0.045
0.085
0.185
0.245
0.19
0.16
0.07
-0.02
-0.065
-0.075
-0.095
-0.085
-0.095
-0.15
-0.63
-0.835
-0.77
-0.095
2.625
2.65
1.51
0.79
-0.07
-0.125
-0.155
-0.165
-0.185
-0.145
-0.185
-0.16
-0.18
-0.18
-0.17
-0.165
-0.19
-0.185
-0.195
-0.21
-0.2
-0.225
-0.245
-0.24
-0.23
-0.215
-0.215
-0.165
-0.1
-0.04
0.03
0.075
0.085
0.065
0.09
0.055
0.025
0.01
0.005
-0.005
-0.02
-0.04
-0.02
-0.035
-0.06
-0.1
-0.115
-0.085
-0.115
-0.115
-0.11
-0.115
-0.105
-0.11
-0.1
-0.1
-0.09
-0.075
-0.085
-0.09
-0.085
-0.08
-0.095
-0.065
-0.08
-0.08
-0.07
0.04
0.065
0.11
0.215
0.23
0.135
0.125
-0.015
-0.05
-0.085
-0.085
-0.115
-0.085
-0.12
-0.415
-0.745
-0.9
-0.275
1.96
2.975
1.735
1.135
0.15
-0.125
-0.12
-0.15
-0.13
-0.14
-0.14
-0.15
-0.145
-0.15
-0.145
-0.185
-0.15
-0.185
-0.18
-0.19
-0.205
-0.215
-0.22
-0.24
-0.22
-0.215
-0.185
-0.14
-0.095
-0.025
0.045
0.105
0.125
0.11
0.095
0.085
0.035
0.03
0.03
0.02
0.02
0.005
-0.005
-0.02
-0.035
-0.04
-0.06
-0.06
-0.065
-0.08
-0.085
-0.09
-0.085
-0.09
-0.08
-0.09
-0.07
-0.07
-0.065
-0.075
-0.05
-0.07
-0.055
-0.055
-0.05
-0.04
-0.025
0.055
0.105
0.155
0.265
0.23
0.16
0.115
-0.015
-0.06
-0.06
-0.09
-0.08
-0.09
-0.115
-0.57
-0.795
-0.73
-0.03
2.58
2.61
1.5
0.87
0.0
-0.105
-0.145
-0.15
-0.155
-0.155
-0.17
-0.135
-0.16
-0.165
-0.18
-0.16
-0.18
-0.185
-0.19
-0.2
-0.215
-0.23
-0.21
-0.225
-0.22
-0.19
-0.155
-0.115
-0.06
0.01
0.08
0.13
0.13
0.11
0.075
0.07
0.045
0.01
0.015
0.0
-0.01
-0.02
-0.015
-0.045
-0.045
-0.065
-0.06
-0.08
-0.075
-0.095
-0.085
-0.09
-0.085
-0.095
-0.075
-0.09
-0.065
-0.09
-0.05
-0.075
-0.05
-0.08
-0.055
-0.075
-0.035
-0.055
0.05
0.095
0.13
0.215
0.28
0.185
0.165
0.055
0.0
-0.075
-0.05
-0.11
-0.065
-0.115
-0.165
-0.68
-0.875
-0.53
0.6
2.89
2.11
1.335
0.595
-0.095
-0.1
-0.17
-0.135
-0.185
-0.14
-0.175
-0.14
-0.175
-0.145
-0.175
-0.15
-0.19
-0.17
-0.21
-0.185
-0.22
-0.2
-0.225
-0.215
-0.225
-0.185
-0.16
-0.09
-0.035
0.045
0.1
0.13
0.115
0.095
0.06
0.045
0.02
0.005
-0.01
-0.01
-0.02
-0.03
-0.05
-0.055
-0.065
-0.075
-0.08
-0.095
-0.09
-0.1
-0.1
-0.105
-0.085
-0.095
-0.09
-0.09
-0.07
-0.09
-0.07
-0.08
-0.06
-0.08
-0.065
-0.08
-0.05
-0.07
0.03
0.09
0.12
0.23
0.265
0.17
0.13
0.025
-0.03
-0.09
-0.07
-0.115
-0.085
-0.12
-0.21
-0.7
-0.915
-0.485
0.92
2.93
1.93
1.3
0.505
-0.105
-0.09
-0.155
-0.125
-0.165
-0.145
-0.17
-0.135
-0.165
-0.135
-0.16
-0.145
-0.175
-0.17
-0.195
-0.19
-0.22
-0.21
-0.22
-0.2
-0.195
-0.155
-0.125
-0.075
-0.005
0.07
0.12
0.14
0.145
0.105
0.06
0.065
0.015
0.005
0.0
-0.01
-0.02
-0.035
-0.03
-0.05
-0.055
-0.08
-0.09
-0.09
-0.105
-0.115
-0.1
-0.085
-0.1
-0.09
-0.09
-0.085
-0.085
-0.07
-0.08
-0.07
-0.075
-0.075
-0.085
-0.06
-0.07
0.0
0.07
0.09
0.185
0.26
0.205
0.145
0.07
-0.015
-0.08
-0.1
-0.115
-0.095
-0.125
-0.125
-0.6
-0.84
-0.835
-0.15
2.515
2.555
1.465
0.795
-0.045
-0.14
-0.17
-0.165
-0.18
-0.165
-0.175
-0.165
-0.18
-0.175
-0.175
-0.185
-0.205
-0.195
-0.2
-0.215
-0.245
-0.24
-0.245
-0.245
-0.235
-0.225
-0.175
-0.15
-0.085
-0.01
0.035
0.085
0.11
0.065
0.07
0.045
0.025
0.01
0.005
-0.005
-0.005
0.0
-0.035
-0.03
-0.04
-0.07
-0.075
-0.08
-0.11
-0.09
-0.11
-0.1
-0.11
-0.085
-0.08
-0.085
-0.09
-0.07
-0.08
-0.065
-0.08
-0.045
-0.08
-0.055
-0.09
0.03
0.06
0.105
0.195
0.25
0.17
0.14
-0.005
-0.025
-0.1
-0.065
-0.105
-0.07
-0.135
-0.2
-0.715
-0.945
-0.545
0.655
2.975
2.155
1.39
0.465
-0.155
-0.105
-0.175
-0.135
-0.175
-0.145
-0.185
-0.14
-0.185
-0.15
-0.185
-0.185
-0.2
-0.19
-0.22
-0.2
-0.225
-0.225
-0.24
-0.22
-0.225
-0.195
-0.17
-0.105
-0.075
0.025
0.065
0.1
0.095
0.085
0.065
0.04
0.055
0.0
0.0
0.01
-0.005
-0.03
-0.02
-0.055
-0.055
-0.075
-0.095
-0.105
-0.09
-0.105
-0.105
-0.1
-0.085
-0.1
-0.075
-0.085
-0.07
-0.075
-0.06
-0.065
-0.065
-0.07
-0.045
-0.055
-0.03
0.05
0.105
0.14
0.255
0.22
0.155
0.115
-0.02
-0.065
-0.06
-0.09
-0.085
-0.09
-0.11
-0.55
-0.775
-0.8
-0.14
2.455
2.68
1.535
0.93
0.005
-0.115
-0.14
-0.15
-0.16
-0.14
-0.15
-0.155
-0.165
-0.16
-0.17
-0.165
-0.175
-0.185
-0.185
-0.2
-0.21
-0.21
-0.22
-0.22
-0.225
-0.19
-0.155
-0.115
-0.065
0.0
0.065
0.105
0.11
0.105
0.08
0.065
0.035
0.02
0.02
0.0
-0.005
-0.01
-0.02
-0.025
-0.05
-0.065
-0.085
-0.09
-0.095
-0.1
-0.105
-0.1
-0.105
-0.09
-0.085
-0.09
-0.085
-0.075
-0.08
-0.08
-0.07
-0.08
-0.065
-0.07
-0.06
-0.045
0.05
0.08
0.12
0.24
0.235
0.15
0.11
-0.02
-0.06
-0.095
-0.075
-0.1
-0.075
-0.115
-0.41
-0.745
-0.9
-0.325
1.9
2.865
1.615
1.085
0.18
-0.135
-0.125
-0.16
-0.155
-0.17
-0.15
-0.16
-0.145
-0.16
-0.15
-0.155
-0.17
-0.195
-0.185
-0.2
-0.205
-0.21
-0.205
-0.22
-0.205
-0.195
-0.135
-0.105
-0.04
0.02
0.085
0.12
0.13
0.11
0.09
0.06
0.035
0.01
0.005
-0.005
-0.01
-0.02
-0.035
-0.04
-0.055
-0.07
-0.08
-0.105
-0.105
-0.11
-0.1
-0.115
-0.105
-0.11
-0.09
-0.105
-0.085
-0.09
-0.075
-0.09
-0.065
-0.075
-0.055
-0.08
-0.05
-0.075
0.015
0.08
0.105
0.185
0.28
0.2
0.14
0.05
-0.025
-0.09
-0.06
-0.11
-0.08
-0.115
-0.14
-0.645
-0.855
-0.62
0.265
2.745
2.25
1.365
0.65
-0.085
-0.11
-0.17
-0.15
-0.175
-0.15
-0.175
-0.135
-0.165
-0.15
-0.17
-0.155
-0.18
-0.17
-0.19
-0.175
-0.21
-0.21
-0.225
-0.21
-0.2
-0.165
-0.125
-0.07
-0.02
0.05
0.11
0.15
0.13
0.115
0.09
0.06
0.035
0.02
0.01
0.005
-0.005
-0.015
-0.025
-0.04
-0.055
-0.065
-0.085
-0.09
-0.105
-0.105
-0.1
-0.085
-0.105
-0.085
-0.1
-0.07
-0.09
-0.08
-0.085
-0.07
-0.09
-0.06
-0.08
-0.065
-0.075
-0.05
-0.065
0.025
0.075
0.105
0.205
0.265
0.2
0.15
0.055
-0.025
-0.085
-0.06
-0.11
-0.085
-0.105
-0.145
-0.65
-0.86
-0.63
0.305
2.73
2.19
1.35
0.625
-0.095
-0.11
-0.18
-0.145
-0.205
-0.165
-0.185
-0.145
-0.17
-0.17
-0.18
-0.16
-0.185
-0.175
-0.225
-0.205
-0.24
-0.215
-0.24
-0.225
-0.215
-0.18
-0.145
-0.09
-0.03
0.04
0.085
0.125
0.1
0.09
0.06
0.04
0.015
0.005
-0.015
-0.015
-0.02
-0.035
-0.04
-0.075
-0.06
-0.09
-0.09
-0.12
-0.105
-0.14
-0.12
-0.12
-0.1
-0.12
-0.1
-0.095
-0.075
-0.115
-0.095
-0.08
-0.075
-0.095
-0.07
-0.075
-0.045
-0.08
0.015
0.06
0.11
0.185
0.265
0.175
0.14
0.02
-0.015
-0.075
-0.065
-0.12
-0.075
-0.12
-0.16
-0.68
-0.915
-0.605
0.375
2.88
2.25
1.395
0.515
-0.155
-0.115
-0.17
-0.14
-0.205
-0.15
-0.19
-0.13
-0.195
-0.17
-0.19
-0.175
-0.19
-0.205
-0.23
-0.2
-0.24
-0.225
-0.23
-0.225
-0.235
-0.185
-0.16
-0.095
-0.065
0.01
0.065
0.105
0.1
0.085
0.08
0.055
0.02
0.025
-0.005
-0.005
0.02
-0.025
-0.04
-0.05
-0.06
-0.08
-0.085
-0.11
-0.11
-0.105
-0.1
-0.105
-0.095
-0.085
-0.07
-0.1
-0.07
-0.095
-0.075
-0.1
-0.065
-0.08
-0.065
-0.085
-0.06
-0.07
0.035
0.055
0.12
0.215
0.26
0.16
0.135
0.0
-0.03
-0.095
-0.06
-0.105
-0.08
-0.14
-0.26
-0.715
-0.955
-0.415
1.175
2.995
1.94
1.295
0.335
-0.14
-0.11
-0.16
-0.13
-0.165
-0.13
-0.16
-0.125
-0.165
-0.145
-0.17
-0.14
-0.18
-0.16
-0.2
-0.18
-0.205
-0.2
-0.21
-0.185
-0.195
-0.16
-0.14
-0.065
-0.025
0.065
0.115
0.12
0.12
0.11
0.075
0.07
0.04
0.025
0.02
0.015
0.0
-0.005
-0.005
-0.035
-0.06
-0.065
-0.095
-0.095
-0.11
-0.095
-0.11
-0.09
-0.105
-0.09
-0.09
-0.07
-0.08
-0.07
-0.085
-0.055
-0.075
-0.045
-0.075
-0.05
-0.08
-0.045
-0.07
0.05
0.085
0.12
0.225
0.28
0.175
0.145
0.015
-0.01
-0.075
-0.06
-0.1
-0.075
-0.11
-0.22
-0.7
-0.91
-0.445
1.005
2.95
1.92
1.285
0.435
-0.125
-0.09
-0.165
-0.14
-0.175
-0.13
-0.16
-0.135
-0.165
-0.135
-0.17
-0.14
-0.175
-0.16
-0.185
-0.175
-0.205
-0.19
-0.22
-0.185
-0.18
-0.14
-0.11
-0.045
0.005
0.09
0.125
0.155
0.135
0.13
0.105
0.07
0.045
0.035
0.03
0.02
0.01
-0.005
-0.01
-0.02
-0.035
-0.05
-0.07
-0.075
-0.085
-0.085
-0.085
-0.085
-0.075
-0.07
-0.065
-0.065
-0.065
-0.065
-0.065
-0.06
-0.06
-0.055
-0.06
-0.055
-0.05
-0.05
-0.05
-0.055
-0.05
-0.02
0.075
0.115
0.16
0.265
0.245
0.155
0.12
-0.015
-0.055
-0.07
-0.085
-0.1
-0.095
-0.125
-0.45
-0.75
-0.835
-0.23
2.085
2.73
1.525
0.985
0.14
-0.125
-0.135
-0.16
-0.165
-0.18
-0.165
-0.165
-0.155
-0.155
-0.16
-0.16
-0.17
-0.185
-0.185
-0.195
-0.2
-0.215
-0.215
-0.22
-0.2
-0.18
-0.135
-0.09
-0.03
0.03
0.11
0.15
0.15
0.135
0.105
0.075
0.045
0.02
0.015
0.0
-0.015
-0.01
-0.025
-0.04
-0.05
-0.065
-0.08
-0.095
-0.095
-0.1
-0.095
-0.095
-0.085
-0.085
-0.08
-0.085
-0.07
-0.08
-0.065
-0.065
-0.06
-0.06
-0.045
-0.06
-0.05
-0.06
-0.045
-0.055
-0.05
-0.06
-0.045
-0.055
0.01
0.08
0.12
0.19
0.275
0.21
0.145
0.085
-0.02
-0.085
-0.075
-0.11
-0.095
-0.11
-0.13
-0.585
-0.82
-0.73
0.02
2.5
2.42
1.415
0.785
-0.01
-0.12
-0.165
-0.165
-0.185
-0.165
-0.185
-0.165
-0.175
-0.165
-0.17
-0.165
-0.185
-0.18
-0.2
-0.2
-0.22
-0.225
-0.225
-0.215
-0.21
-0.185
-0.155
-0.095
-0.035
0.035
0.11
0.15
0.145
0.14
0.11
0.07
0.05
0.03
0.015
0.01
0.0
-0.015
-0.03
-0.04
-0.055
-0.07
-0.09
-0.1
-0.11
-0.11
-0.11
-0.11
-0.11
-0.105
-0.105
-0.09
-0.085
-0.085
-0.085
-0.08
-0.09
-0.08
-0.085
-0.07
-0.07
-0.075
-0.075
-0.07
-0.075
-0.065
-0.065
-0.07
-0.065
-0.025
0.06
0.095
0.16
0.255
0.205
0.14
0.1
-0.045
-0.085
-0.095
-0.11
-0.11
-0.115
-0.13
-0.51
-0.805
-0.88
-0.265
2.195
2.58
1.45
0.875
0.02
-0.155
-0.17
-0.18
-0.185
-0.18
-0.175
-0.165
-0.175
-0.165
-0.165
-0.165
-0.18
-0.195
-0.205
-0.21
-0.215
-0.225
-0.22
-0.225
-0.2
-0.2
-0.16
-0.115
-0.065
0.01
0.085
0.135
0.135
0.135
0.12
0.075
0.05
0.03
0.02
0.01
-0.005
0.0
-0.015
-0.04
-0.045
-0.07
-0.085
-0.075
-0.1
-0.1
-0.12
-0.105
-0.09
-0.11
-0.105
-0.085
-0.08
-0.075
-0.095
-0.075
-0.08
-0.07
-0.085
-0.075
-0.085
-0.06
-0.095
-0.06
-0.07
-0.065
-0.06
0.055
0.085
0.14
0.24
0.24
0.15
0.125
-0.03
-0.045
-0.105
-0.07
-0.1
-0.095
-0.125
-0.345
-0.765
-1.015
-0.455
1.465
2.96
1.795
1.145
0.15
-0.18
-0.135
-0.17
-0.15
-0.195
-0.145
-0.19
-0.145
-0.175
-0.155
-0.195
-0.17
-0.2
-0.18
-0.22
-0.21
-0.235
-0.215
-0.26
-0.24
-0.235
-0.205
-0.205
-0.13
-0.095
-0.005
0.05
0.095
0.09
0.07
0.06
0.045
0.035
0.015
0.0
0.0
-0.015
-0.035
-0.025
-0.06
-0.07
-0.085
-0.1
-0.11
-0.11
-0.13
-0.11
-0.085
-0.085
-0.105
-0.095
-0.08
-0.075
-0.095
-0.065
-0.095
-0.06
-0.085
-0.08
-0.065
-0.075
-0.085
-0.055
-0.08
-0.05
-0.06
0.04
0.055
0.11
0.225
0.25
0.155
0.125
-0.025
-0.035
-0.09
-0.065
-0.13
-0.085
-0.135
-0.3
-0.735
-0.98
-0.435
1.325
3.0
1.885
1.225
0.255
-0.155
-0.125
-0.18
-0.14
-0.185
-0.15
-0.18
-0.165
-0.19
-0.16
-0.18
-0.175
-0.205
-0.18
-0.22
-0.195
-0.225
-0.225
-0.235
-0.22
-0.235
-0.185
-0.16
-0.105
-0.04
0.04
0.09
0.135
0.125
0.115
0.09
0.06
0.055
0.055
0.035
0.01
0.01
0.01
-0.015
-0.025
-0.035
-0.06
-0.08
-0.09
-0.08
-0.095
-0.105
-0.105
-0.09
-0.09
-0.1
-0.08
-0.085
-0.09
-0.085
-0.065
-0.075
-0.065
-0.07
-0.055
-0.075
-0.055
-0.07
-0.055
-0.045
0.06
0.105
0.125
0.24
0.235
0.165
0.14
-0.02
-0.045
-0.08
-0.06
-0.1
-0.08
-0.12
-0.385
-0.73
-0.915
-0.355
1.74
2.89
1.665
1.12
0.2
-0.135
-0.125
-0.165
-0.15
-0.17
-0.135
-0.16
-0.14
-0.15
-0.135
-0.16
-0.16
-0.18
-0.165
-0.195
-0.2
-0.225
-0.215
-0.225
-0.21
-0.205
-0.16
-0.135
-0.07
0.0
0.07
0.125
0.135
0.125
0.115
0.08
0.06
0.04
0.035
0.01
0.0
-0.005
-0.02
-0.03
-0.045
-0.06
-0.08
-0.08
-0.095
-0.095
-0.11
-0.095
-0.095
-0.085
-0.105
-0.08
-0.09
-0.07
-0.08
-0.06
-0.075
-0.055
-0.075
-0.05
-0.075
-0.055
-0.08
-0.055
-0.08
-0.045
-0.06
0.025
0.08
0.12
0.2
0.265
0.175
0.14
0.045
-0.025
-0.09
-0.065
-0.12
-0.08
-0.125
-0.175
-0.685
-0.88
-0.55
0.56
2.82
2.09
1.33
0.59
-0.1
-0.11
-0.175
-0.16
-0.205
-0.17
-0.2
-0.16
-0.185
-0.16
-0.185
-0.155
-0.19
-0.175
-0.205
-0.195
-0.225
-0.205
-0.235
-0.22
-0.215
-0.175
-0.14
-0.08
-0.01
0.07
0.125
0.17
0.155
0.14
0.1
0.075
0.05
0.03
0.015
0.01
0.0
0.0
-0.025
-0.03
-0.05
-0.07
-0.085
-0.095
-0.11
-0.11
-0.115
-0.1
-0.1
-0.09
-0.095
-0.075
-0.08
-0.07
-0.075
-0.065
-0.08
-0.06
-0.075
-0.055
-0.08
-0.05
-0.075
-0.045
-0.065
-0.04
-0.06
0.06
0.095
0.13
0.24
0.27
0.165
0.145
0.015
-0.025
-0.095
-0.07
-0.12
-0.085
-0.135
-0.235
-0.71
-0.93
-0.485
0.995
2.885
1.84
1.22
0.41
-0.145
-0.12
-0.19
-0.16
-0.195
-0.16
-0.19
-0.155
-0.18
-0.155
-0.18
-0.155
-0.195
-0.18
-0.21
-0.205
-0.24
-0.215
-0.235
-0.225
-0.225
-0.19
-0.155
-0.08
-0.005
0.075
0.12
0.16
0.135
0.12
0.075
0.06
0.02
0.0
-0.005
-0.01
-0.01
-0.03
-0.05
-0.04
-0.055
-0.08
-0.085
-0.11
-0.115
-0.11
-0.12
-0.105
-0.11
-0.105
-0.1
-0.1
-0.09
-0.105
-0.085
-0.085
-0.075
-0.085
-0.08
-0.075
-0.08
-0.07
-0.07
-0.06
-0.06
-0.065
-0.03
0.055
0.095
0.155
0.245
0.23
0.15
0.1
-0.02
-0.065
-0.08
-0.105
-0.105
-0.085
-0.11
-0.515
-0.8
-0.885
-0.295
2.24
2.77
1.57
0.915
0.01
-0.135
-0.15
-0.165
-0.17
-0.16
-0.15
-0.16
-0.16
-0.16
-0.17
-0.18
-0.195
-0.2
-0.195
-0.21
-0.225
-0.235
-0.23
-0.25
-0.235
-0.23
-0.2
-0.145
-0.11
-0.055
0.02
0.09
0.11
0.095
0.1
0.06
0.04
0.015
0.01
0.0
0.0
-0.02
-0.035
-0.05
-0.035
-0.07
-0.095
-0.115
-0.1
-0.11
-0.115
-0.09
-0.115
-0.09
-0.105
-0.095
-0.11
-0.075
-0.105
-0.095
-0.09
-0.07
-0.1
-0.08
-0.095
-0.08
-0.085
-0.06
-0.075
0.015
0.045
0.105
0.195
0.24
0.145
0.13
-0.02
-0.05
-0.1
-0.065
-0.125
-0.1
-0.145
-0.315
-0.76
-0.975
-0.445
1.365
3.035
1.885
1.255
0.25
-0.15
-0.13
-0.165
-0.155
-0.175
-0.15
-0.19
-0.125
-0.19
-0.165
-0.18
-0.155
-0.2
-0.185
-0.215
-0.18
-0.205
-0.22
-0.225
-0.21
-0.2
-0.17
-0.135
-0.095
-0.025
0.055
0.1
0.13
0.15
0.11
0.095
0.085
0.06
0.05
0.015
0.02
0.02
0.0
-0.015
-0.04
-0.04
-0.055
-0.075
-0.095
-0.08
-0.105
-0.095
-0.095
-0.08
-0.08
-0.085
-0.085
-0.07
-0.08
-0.085
-0.09
-0.08
-0.08
-0.075
-0.065
-0.07
-0.07
-0.07
-0.07
-0.04
0.035
0.09
0.12
0.245
0.22
0.15
0.11
-0.02
-0.06
-0.075
-0.1
-0.08
-0.085
-0.125
-0.515
-0.77
-0.81
-0.16
2.395
2.73
1.525
0.935
0.015
-0.11
-0.145
-0.155
-0.155
-0.15
-0.145
-0.145
-0.15
-0.145
-0.15
-0.165
-0.175
-0.16
-0.19
-0.185
-0.185
-0.205
-0.21
-0.21
-0.205
-0.19
-0.165
-0.115
-0.055
0.01
0.085
0.125
0.14
0.13
0.115
0.1
0.08
0.065
0.05
0.035
0.045
0.025
0.01
0.0
-0.015
-0.035
-0.05
-0.07
-0.07
-0.085
-0.085
-0.09
-0.09
-0.08
-0.075
-0.065
-0.055
-0.065
-0.05
-0.05
-0.05
-0.055
-0.045
-0.045
-0.04
-0.05
-0.035
-0.04
-0.03
-0.05
-0.02
-0.025
0.075
0.125
0.14
0.25
0.28
0.19
0.16
0.02
-0.01
-0.065
-0.04
-0.085
-0.065
-0.11
-0.305
-0.715
-0.905
-0.365
1.53
2.965
1.74
1.2
0.32
-0.125
-0.105
-0.165
-0.145
-0.175
-0.145
-0.16
-0.14
-0.165
-0.14
-0.165
-0.15
-0.175
-0.17
-0.195
-0.195
-0.21
-0.205
-0.225
-0.21
-0.195
-0.16
-0.12
-0.05
0.01
0.09
0.15
0.175
0.16
0.14
0.095
0.08
0.055
0.035
0.025
0.015
0.0
-0.005
-0.01
-0.025
-0.04
-0.06
-0.065
-0.085
-0.095
-0.1
-0.095
-0.1
-0.095
-0.09
-0.08
-0.085
-0.065
-0.08
-0.06
-0.065
-0.055
-0.075
-0.06
-0.075
-0.06
-0.06
-0.045
-0.06
-0.065
-0.075
-0.05
-0.065
0.005
0.06
0.105
0.17
0.265
0.2
0.15
0.08
-0.03
-0.095
-0.085
-0.115
-0.1
-0.11
-0.145
-0.605
-0.83
-0.76
-0.02
2.54
2.495
1.45
0.82
-0.005
-0.12
-0.18
-0.19
-0.185
-0.185
-0.175
-0.16
-0.175
-0.165
-0.17
-0.165
-0.2
-0.19
-0.2
-0.205
-0.235
-0.23
-0.24
-0.235
-0.225
-0.2
-0.165
-0.12
-0.055
0.01
0.095
0.13
0.135
0.125
0.095
0.07
0.04
0.02
0.005
0.005
-0.015
-0.01
-0.04
-0.03
-0.065
-0.06
-0.09
-0.095
-0.105
-0.115
-0.115
-0.125
-0.125
-0.1
-0.085
-0.11
-0.12
-0.08
-0.11
-0.09
-0.085
-0.085
-0.095
-0.085
-0.09
-0.075
-0.08
-0.09
-0.075
-0.07
-0.065
0.03
0.04
0.12
0.22
0.215
0.13
0.13
-0.07
-0.05
-0.1
-0.1
-0.105
-0.1
-0.135
-0.37
-0.77
-0.985
-0.415
1.605
2.995
1.81
1.17
0.15
-0.18
-0.12
-0.19
-0.15
-0.195
-0.155
-0.195
-0.17
-0.185
-0.17
-0.205
-0.18
-0.205
-0.19
-0.24
-0.24
-0.245
-0.245
-0.265
-0.245
-0.24
-0.205
-0.19
-0.13
-0.075
0.02
0.065
0.09
0.095
0.11
0.065
0.045
0.04
0.015
0.01
0.0
0.005
-0.01
-0.05
-0.025
-0.045
-0.08
-0.09
-0.095
-0.095
-0.125
-0.105
-0.09
-0.1
-0.115
-0.095
-0.085
-0.095
-0.1
-0.11
-0.065
-0.09
-0.08
-0.095
-0.05
-0.105
-0.05
-0.1
-0.07
-0.1
0.01
0.05
0.09
0.165
0.235
0.15
0.115
-0.005
-0.055
-0.11
-0.075
-0.14
-0.095
-0.15
-0.24
-0.725
-0.925
-0.51
0.805
3.01
2.11
1.36
0.46
-0.16
-0.1
-0.185
-0.155
-0.2
-0.14
-0.195
-0.16
-0.195
-0.155
-0.195
-0.155
-0.2
-0.175
-0.21
-0.185
-0.215
-0.21
-0.235
-0.225
-0.215
-0.185
-0.14
-0.1
-0.06
0.025
0.09
0.145
0.125
0.11
0.095
0.08
0.045
0.045
0.01
0.02
0.01
0.005
0.0
-0.005
-0.025
-0.045
-0.06
-0.09
-0.095
-0.09
-0.095
-0.09
-0.08
-0.075
-0.07
-0.07
-0.075
-0.065
-0.05
-0.055
-0.065
-0.05
-0.07
-0.055
-0.07
-0.055
-0.06
-0.045
-0.06
0.05
0.075
0.125
0.23
0.24
0.155
0.135
-0.015
-0.045
-0.09
-0.07
-0.115
-0.07
-0.145
-0.37
-0.74
-0.93
-0.335
1.745
2.965
1.705
1.165
0.24
-0.13
-0.115
-0.155
-0.14
-0.175
-0.14
-0.155
-0.135
-0.175
-0.16
-0.17
-0.165
-0.2
-0.17
-0.21
-0.205
-0.23
-0.21
-0.235
-0.21
-0.205
-0.165
-0.145
-0.065
-0.01
0.055
0.115
0.15
0.14
0.12
0.09
0.055
0.04
0.03
0.015
0.0
0.0
0.0
-0.025
-0.04
-0.055
-0.06
-0.065
-0.08
-0.075
-0.09
-0.09
-0.08
-0.075
-0.065
-0.065
-0.065
-0.055
-0.055
-0.045
-0.06
-0.04
-0.05
-0.045
-0.06
-0.035
-0.06
-0.035
-0.07
-0.05
-0.065
-0.04
-0.045
0.07
0.11
0.14
0.24
0.265
0.165
0.145
0.02
-0.02
-0.085
-0.07
-0.105
-0.085
-0.125
-0.265
-0.72
-0.915
-0.405
1.265
2.95
1.79
1.245
0.415
-0.12
-0.1
-0.17
-0.145
-0.175
-0.13
-0.155
-0.125
-0.15
-0.13
-0.16
-0.145
-0.18
-0.165
-0.2
-0.18
-0.215
-0.21
-0.23
-0.21
-0.21
-0.165
-0.14
-0.08
-0.005
0.07
0.135
0.17
0.145
0.13
0.085
0.065
0.035
0.02
0.005
0.0
0.0
-0.025
-0.03
-0.025
-0.04
-0.06
-0.07
-0.085
-0.095
-0.105
-0.1
-0.105
-0.1
-0.09
-0.1
-0.09
-0.085
-0.085
-0.085
-0.085
-0.08
-0.085
-0.075
-0.08
-0.075
-0.08
-0.065
-0.075
-0.065
-0.07
-0.06
-0.03
0.065
0.11
0.15
0.25
0.235
0.14
0.12
-0.02
-0.055
-0.085
-0.085
-0.11
-0.1
-0.125
-0.415
-0.76
-0.895
-0.3
1.935
2.8
1.58
1.05
0.18
-0.125
-0.125
-0.17
-0.155
-0.18
-0.16
-0.17
-0.16
-0.165
-0.155
-0.18
-0.175
-0.2
-0.185
-0.22
-0.21
-0.23
-0.23
-0.24
-0.21
-0.215
-0.18
-0.125
-0.075
0.0
0.075
0.135
0.16
0.125
0.095
0.09
0.035
0.02
0.01
0.0
0.0
-0.015
-0.045
-0.045
-0.035
-0.07
-0.07
-0.075
-0.115
-0.115
-0.095
-0.115
-0.105
-0.075
-0.11
-0.095
-0.075
-0.1
-0.085
-0.075
-0.055
-0.095
-0.065
-0.08
-0.06
-0.08
-0.055
-0.07
-0.055
-0.06
0.06
0.09
0.135
0.23
0.235
0.145
0.125
-0.04
-0.04
-0.1
-0.09
-0.11
-0.105
-0.13
-0.38
-0.78
-0.985
-0.445
1.58
2.93
1.75
1.14
0.16
-0.185
-0.13
-0.185
-0.145
-0.18
-0.155
-0.17
-0.155
-0.185
-0.15
-0.195
-0.175
-0.2
-0.185
-0.215
-0.195
-0.24
-0.23
-0.24
-0.24
-0.235
-0.205
-0.185
-0.125
-0.075
-0.005
0.055
0.075
0.09
0.09
0.065
0.04
0.025
0.005
0.01
-0.025
-0.015
-0.02
-0.06
-0.025
-0.065
-0.075
-0.105
-0.105
-0.11
-0.1
-0.11
-0.095
-0.105
-0.08
-0.115
-0.085
-0.095
-0.085
-0.09
-0.065
-0.075
-0.07
-0.07
-0.075
-0.085
-0.04
-0.08
0.045
0.065
0.105
0.2
0.255
0.165
0.135
0.01
-0.03
-0.08
-0.045
-0.135
-0.08
-0.15
-0.29
-0.755
-0.965
-0.455
1.165
3.025
1.96
1.275
0.305
-0.165
-0.125
-0.185
-0.13
-0.185
-0.15
-0.195
-0.165
-0.19
-0.16
-0.19
-0.175
-0.185
-0.2
-0.205
-0.2
-0.235
-0.2
-0.25
-0.215
-0.225
-0.18
-0.155
-0.085
-0.04
0.055
0.085
0.125
0.135
0.11
0.08
0.065
0.055
0.035
0.025
0.02
0.015
0.0
-0.015
-0.02
-0.03
-0.065
-0.075
-0.09
-0.09
-0.085
-0.08
-0.085
-0.075
-0.075
-0.07
-0.085
-0.065
-0.075
-0.06
-0.07
-0.065
-0.09
-0.05
-0.07
-0.055
-0.085
-0.005
0.055
0.105
0.15
0.255
0.2
0.135
0.085
-0.015
-0.065
-0.065
-0.115
-0.075
-0.1
-0.135
-0.63
-0.825
-0.625
0.195
2.77
2.405
1.42
0.715
-0.06
-0.1
-0.17
-0.145
-0.18
-0.15
-0.18
-0.145
-0.165
-0.145
-0.18
-0.155
-0.185
-0.185
-0.2
-0.195
-0.215
-0.21
-0.225
-0.22
-0.22
-0.185
-0.15
-0.105
-0.035
0.005
0.085
0.125
0.12
0.12
0.095
0.06
0.035
0.015
0.01
0.005
-0.01
-0.015
-0.05
-0.04
-0.06
-0.08
-0.1
-0.1
-0.105
-0.105
-0.11
-0.1
-0.105
-0.09
-0.09
-0.085
-0.095
-0.095
-0.1
-0.075
-0.095
-0.075
-0.11
-0.07
-0.085
-0.05
-0.08
-0.02
0.045
0.09
0.165
0.25
0.19
0.13
0.05
-0.03
-0.08
-0.055
-0.12
-0.09
-0.135
-0.155
-0.655
-0.86
-0.63
0.29
2.775
2.305
1.405
0.68
-0.06
-0.115
-0.16
-0.15
-0.17
-0.155
-0.18
-0.155
-0.165
-0.14
-0.175
-0.17
-0.185
-0.185
-0.21
-0.205
-0.23
-0.215
-0.235
-0.215
-0.225
-0.19
-0.15
-0.095
-0.035
0.035
0.095
0.14
0.14
0.12
0.09
0.07
0.04
0.03
0.01
0.0
-0.01
-0.005
-0.01
-0.025
-0.04
-0.055
-0.065
-0.08
-0.09
-0.095
-0.085
-0.09
-0.1
-0.085
-0.09
-0.07
-0.07
-0.055
-0.07
-0.065
-0.075
-0.055
-0.065
-0.055
-0.06
-0.04
-0.03
0.07
0.115
0.145
0.275
0.28
0.18
0.155
0.015
-0.015
-0.05
-0.045
-0.09
-0.06
-0.095
-0.335
-0.725
-0.925
-0.365
1.65
2.915
1.695
1.13
0.255
-0.135
-0.115
-0.16
-0.13
-0.165
-0.13
-0.165
-0.135
-0.165
-0.14
-0.18
-0.155
-0.205
-0.19
-0.2
-0.215
-0.225
-0.225
-0.22
-0.22
-0.21
-0.165
-0.135
-0.08
-0.01
0.065
0.11
0.13
0.12
0.105
0.08
0.05
0.015
0.01
0.005
0.0
-0.035
-0.03
-0.015
-0.065
-0.085
-0.08
-0.09
-0.11
-0.105
-0.115
-0.115
-0.11
-0.11
-0.105
-0.085
-0.11
-0.09
-0.09
-0.06
-0.1
-0.075
-0.08
-0.06
-0.07
-0.07
-0.045
0.03
0.08
0.12
0.235
0.235
0.155
0.115
-0.02
-0.045
-0.08
-0.07
-0.09
-0.09
-0.15
-0.41
-0.75
-0.965
-0.39
1.84
2.875
1.685
1.08
0.135
-0.145
-0.135
-0.17
-0.155
-0.17
-0.14
-0.175
-0.15
-0.175
-0.17
-0.175
-0.18
-0.195
-0.18
-0.225
-0.195
-0.225
-0.23
-0.24
-0.23
-0.22
-0.185
-0.14
-0.085
-0.015
0.04
0.09
0.115
0.095
0.095
0.075
0.03
0.015
0.01
-0.01
-0.02
-0.01
-0.03
-0.05
-0.045
-0.07
-0.09
-0.095
-0.115
-0.13
-0.12
-0.135
-0.11
-0.125
-0.105
-0.12
-0.105
-0.11
-0.075
-0.11
-0.1
-0.115
-0.085
-0.1
-0.08
-0.08
-0.04
0.02
0.075
0.135
0.245
0.205
0.1
0.075
-0.035
-0.095
-0.12
-0.135
-0.115
-0.125
-0.145
-0.63
-0.84
-0.775
-0.08
2.59
2.61
1.515
0.81
-0.07
-0.105
-0.16
-0.15
-0.195
-0.155
-0.165
-0.155
-0.17
-0.15
-0.185
-0.17
-0.195
-0.195
-0.2
-0.195
-0.24
-0.215
-0.225
-0.215
-0.225
-0.205
-0.145
-0.12
-0.06
0.0
0.065
0.115
0.125
0.1
0.085
0.07
0.045
0.04
0.005
0.01
0.0
-0.005
-0.035
-0.035
-0.035
-0.07
-0.105
-0.11
-0.105
-0.1
-0.105
-0.11
-0.12
-0.09
-0.11
-0.085
-0.115
-0.08
-0.105
-0.08
-0.095
-0.085
-0.1
-0.075
-0.095
-0.03
0.03
0.085
0.135
0.245
0.195
0.115
0.065
-0.02
-0.08
-0.06
-0.1
-0.08
-0.11
-0.14
-0.62
-0.81
-0.67
0.12
2.73
2.475
1.455
0.75
-0.04
-0.1
-0.16
-0.145
-0.18
-0.15
-0.15
-0.16
-0.175
-0.15
-0.175
-0.16
-0.19
-0.175
-0.215
-0.205
-0.225
-0.215
-0.23
-0.22
-0.23
-0.185
-0.155
-0.095
-0.05
0.025
0.1
0.13
0.115
0.105
0.085
0.065
0.035
0.005
0.0
-0.01
-0.005
-0.015
-0.01
-0.03
-0.06
-0.075
-0.1
-0.115
-0.105
-0.105
-0.115
-0.11
-0.1
-0.095
-0.08
-0.1
-0.095
-0.085
-0.08
-0.08
-0.08
-0.085
-0.07
-0.08
-0.065
-0.075
-0.05
0.035
0.095
0.12
0.245
0.2
0.145
0.095
-0.02
-0.085
-0.085
-0.11
-0.11
-0.14
-0.15
-0.595
-0.82
-0.765
-0.065
2.47
2.56
1.465
0.845
0.01
-0.115
-0.16
-0.16
-0.18
-0.175
-0.175
-0.165
-0.16
-0.155
-0.165
-0.18
-0.185
-0.18
-0.195
-0.21
-0.21
-0.215
-0.23
-0.22
-0.215
-0.185
-0.155
-0.095
-0.04
0.035
0.11
0.14
0.145
0.13
0.095
0.065
0.05
0.025
0.01
0.005
0.0
0.0
-0.015
-0.045
-0.05
-0.07
-0.08
-0.1
-0.125
-0.12
-0.11
-0.12
-0.12
-0.105
-0.105
-0.085
-0.07
-0.075
-0.08
-0.075
-0.07
-0.08
-0.065
-0.07
-0.075
-0.065
-0.065
-0.045
0.06
0.105
0.13
0.25
0.24
0.165
0.115
-0.01
-0.065
-0.09
-0.1
-0.105
-0.1
-0.135
-0.495
-0.79
-0.88
-0.25
2.175
2.725
1.535
0.955
0.08
-0.13
-0.135
-0.185
-0.19
-0.185
-0.175
-0.18
-0.16
-0.16
-0.18
-0.165
-0.175
-0.195
-0.195
-0.2
-0.215
-0.23
-0.21
-0.23
-0.225
-0.185
-0.15
-0.11
-0.04
0.02
0.085
0.135
0.155
0.135
0.095
0.075
0.045
0.01
0.02
0.0
-0.01
-0.025
-0.02
-0.045
-0.06
-0.07
-0.09
-0.12
-0.11
-0.135
-0.13
-0.125
-0.105
-0.13
-0.1
-0.1
-0.09
-0.095
-0.085
-0.095
-0.08
-0.08
-0.075
-0.085
-0.055
-0.07
-0.01
0.05
0.09
0.155
0.26
0.195
0.14
0.07
-0.035
-0.085
-0.065
-0.1
-0.085
-0.11
-0.115
-0.65
-0.85
-0.73
0.055
2.72
2.47
1.455
0.71
-0.07
-0.095
-0.155
-0.13
-0.175
-0.155
-0.165
-0.14
-0.185
-0.155
-0.19
-0.185
-0.205
-0.175
-0.22
-0.21
-0.215
-0.24
-0.245
-0.24
-0.245
-0.225
-0.2
-0.135
-0.09
-0.01
0.055
0.12
0.11
0.115
0.075
0.06
0.03
0.03
0.025
-0.01
0.0
-0.015
-0.02
-0.055
-0.055
-0.08
-0.095
-0.105
-0.12
-0.125
-0.16
-0.11
-0.12
-0.115
-0.12
-0.08
-0.1
-0.105
-0.105
-0.09
-0.09
-0.095
-0.11
-0.065
-0.08
0.005
0.07
0.075
0.2
0.22
0.14
0.11
-0.045
-0.065
-0.095
-0.1
-0.135
-0.09
-0.155
-0.44
-0.765
-0.985
-0.39
1.815
2.95
1.73
1.095
0.125
-0.18
-0.13
-0.185
-0.18
-0.195
-0.165
-0.185
-0.17
-0.195
-0.185
-0.175
-0.195
-0.215
-0.22
-0.24
-0.22
-0.255
-0.235
-0.255
-0.24
-0.23
-0.215
-0.155
-0.08
-0.05
0.055
0.095
0.11
0.1
0.105
0.07
0.025
0.01
0.01
0.005
0.0
-0.025
-0.015
-0.045
-0.055
-0.09
-0.075
-0.1
-0.12
-0.125
-0.105
-0.12
-0.09
-0.095
-0.075
-0.095
-0.065
-0.075
-0.06
-0.08
-0.05
-0.09
-0.055
-0.065
0.025
0.07
0.115
0.175
0.265
0.19
0.155
0.055
-0.005
-0.09
-0.055
-0.12
-0.065
-0.105
-0.175
-0.705
-0.895
-0.535
0.65
2.99
2.185
1.375
0.52
-0.11
-0.09
-0.15
-0.135
-0.195
-0.13
-0.155
-0.14
-0.155
-0.135
-0.17
-0.16
-0.175
-0.16
-0.2
-0.17
-0.225
-0.2
-0.225
-0.21
-0.205
-0.165
-0.155
-0.085
-0.03
0.03
0.1
0.13
0.14
0.125
0.085
0.07
0.035
0.02
0.015
0.0
-0.005
-0.005
-0.035
-0.05
-0.07
-0.085
-0.09
-0.115
-0.115
-0.125
-0.105
-0.12
-0.095
-0.08
-0.08
-0.08
-0.07
-0.095
-0.07
-0.09
-0.055
-0.09
-0.045
-0.075
0.0
0.055
0.1
0.165
0.26
0.18
0.145
0.045
-0.015
-0.085
-0.06
-0.12
-0.085
-0.13
-0.195
-0.695
-0.915
-0.565
0.64
2.95
2.15
1.365
0.56
-0.125
-0.125
-0.175
-0.15
-0.195
-0.16
-0.185
-0.15
-0.175
-0.16
-0.195
-0.175
-0.205
-0.19
-0.23
-0.2
-0.235
-0.22
-0.235
-0.22
-0.21
-0.16
-0.135
-0.075
-0.02
0.07
0.12
0.155
0.145
0.125
0.1
0.06
0.045
0.02
0.0
0.005
0.0
-0.025
-0.045
-0.055
-0.06
-0.08
-0.115
-0.12
-0.13
-0.12
-0.135
-0.12
-0.12
-0.115
-0.13
-0.105
-0.115
-0.09
-0.105
-0.09
-0.105
-0.07
-0.095
-0.055
-0.075
0.005
0.06
0.09
0.18
0.28
0.195
0.14
0.065
-0.005
-0.085
-0.06
-0.105
-0.065
-0.14
-0.155
-0.665
-0.855
-0.69
0.215
2.79
2.31
1.4
0.63
-0.095
-0.14
-0.195
-0.165
-0.195
-0.175
-0.185
-0.17
-0.195
-0.165
-0.205
-0.175
-0.21
-0.195
-0.23
-0.215
-0.235
-0.225
-0.235
-0.24
-0.225
-0.195
-0.155
-0.13
-0.035
0.03
0.095
0.15
0.13
0.11
0.075
0.075
0.025
0.015
-0.01
0.0
-0.03
-0.035
-0.065
-0.055
-0.075
-0.105
-0.125
-0.14
-0.165
-0.13
-0.155
-0.13
-0.14
-0.12
-0.14
-0.115
-0.115
-0.1
-0.1
-0.075
-0.09
-0.08
-0.09
-0.06
-0.095
0.01
0.05
0.1
0.185
0.23
0.16
0.145
-0.005
-0.035
-0.095
-0.09
-0.135
-0.07
-0.155
-0.285
-0.76
-0.995
-0.52
0.95
2.99
2.035
1.31
0.375
-0.19
-0.135
-0.185
-0.16
-0.21
-0.165
-0.21
-0.175
-0.205
-0.17
-0.205
-0.2
-0.22
-0.185
-0.215
-0.23
-0.25
-0.23
-0.25
-0.245
-0.23
-0.18
-0.165
-0.105
-0.045
0.035
0.12
0.12
0.125
0.12
0.07
0.065
0.045
-0.005
0.0
0.02
-0.03
-0.02
-0.03
-0.06
-0.08
-0.095
-0.1
-0.115
-0.115
-0.115
-0.11
-0.125
-0.09
-0.095
-0.085
-0.1
-0.06
-0.085
-0.045
-0.07
-0.065
-0.075
-0.035
-0.085
0.005
0.05
0.12
0.19
0.28
0.2
0.175
0.045
-0.015
-0.07
-0.045
-0.11
-0.055
-0.11
-0.195
-0.725
-0.93
-0.49
0.72
3.005
2.16
1.385
0.48
-0.14
-0.085
-0.165
-0.145
-0.175
-0.125
-0.19
-0.14
-0.185
-0.145
-0.18
-0.185
-0.2
-0.185
-0.205
-0.19
-0.22
-0.215
-0.235
-0.215
-0.195
-0.16
-0.15
-0.07
-0.04
0.065
0.125
0.155
0.135
0.15
0.11
0.085
0.07
0.05
0.035
0.03
0.005
0.0
-0.03
-0.045
-0.06
-0.075
-0.095
-0.08
-0.095
-0.1
-0.12
-0.085
-0.095
-0.09
-0.095
-0.085
-0.08
-0.07
-0.09
-0.06
-0.075
-0.05
-0.085
-0.065
-0.07
0.02
0.075
0.12
0.19
0.28
0.19
0.15
0.06
-0.01
-0.07
-0.05
-0.105
-0.065
-0.115
-0.18
-0.69
-0.9
-0.535
0.675
2.95
2.145
1.385
0.56
-0.125
-0.085
-0.155
-0.14
-0.18
-0.135
-0.175
-0.145
-0.17
-0.135
-0.165
-0.15
-0.175
-0.16
-0.19
-0.18
-0.225
-0.2
-0.22
-0.2
-0.2
-0.155
-0.12
-0.06
-0.01
0.065
0.12
0.165
0.155
0.135
0.095
0.08
0.05
0.035
0.03
0.015
0.01
-0.005
-0.015
-0.035
-0.055
-0.07
-0.085
-0.105
-0.1
-0.11
-0.1
-0.105
-0.095
-0.1
-0.08
-0.09
-0.07
-0.085
-0.065
-0.09
-0.055
-0.08
-0.06
-0.08
-0.055
-0.07
0.04
0.075
0.11
0.215
0.28
0.175
0.15
0.035
-0.015
-0.08
-0.065
-0.125
-0.08
-0.12
-0.235
-0.72
-0.94
-0.48
1.02
2.945
1.915
1.29
0.445
-0.12
-0.105
-0.18
-0.15
-0.19
-0.155
-0.19
-0.155
-0.185
-0.155
-0.185
-0.17
-0.2
-0.17
-0.2
-0.19
-0.22
-0.215
-0.23
-0.215
-0.21
-0.17
-0.135
-0.065
-0.01
0.065
0.14
0.175
0.14
0.115
0.08
0.07
0.03
0.01
0.0
-0.005
-0.02
-0.025
-0.03
-0.05
-0.055
-0.09
-0.105
-0.115
-0.105
-0.125
-0.105
-0.095
-0.1
-0.095
-0.095
-0.105
-0.085
-0.1
-0.105
-0.105
-0.08
-0.115
-0.085
-0.095
-0.075
-0.08
0.0
0.035
0.095
0.165
0.265
0.18
0.13
0.045
-0.04
-0.115
-0.08
-0.13
-0.105
-0.15
-0.15
-0.69
-0.905
-0.7
0.185
2.8
2.305
1.4
0.6
-0.12
-0.125
-0.195
-0.18
-0.2
-0.18
-0.215
-0.17
-0.2
-0.19
-0.205
-0.2
-0.22
-0.23
-0.24
-0.215
-0.265
-0.245
-0.27
-0.24
-0.265
-0.23
-0.21
-0.125
-0.075
0.0
0.06
0.11
0.125
0.095
0.08
0.055
0.015
0.025
-0.025
-0.005
-0.015
-0.05
-0.04
-0.075
-0.1
-0.09
-0.105
-0.15
-0.135
-0.13
-0.15
-0.12
-0.125
-0.115
-0.115
-0.105
-0.105
-0.065
-0.1
-0.08
-0.08
-0.055
-0.07
-0.075
-0.075
0.04
0.07
0.095
0.215
0.255
0.175
0.125
-0.005
-0.04
-0.095
-0.06
-0.115
-0.075
-0.145
-0.365
-0.77
-0.995
-0.435
1.615
2.995
1.825
1.2
0.165
-0.15
-0.14
-0.16
-0.145
-0.205
-0.15
-0.2
-0.17
-0.17
-0.175
-0.205
-0.17
-0.205
-0.18
-0.22
-0.195
-0.24
-0.22
-0.235
-0.235
-0.225
-0.19
-0.15
-0.1
-0.05
0.03
0.075
0.115
0.11
0.075
0.055
0.055
0.02
0.03
0.015
-0.025
-0.015
-0.025
-0.055
-0.085
-0.07
-0.1
-0.13
-0.12
-0.115
-0.12
-0.11
-0.105
-0.075
-0.11
-0.065
-0.095
-0.07
-0.085
-0.075
-0.085
-0.065
-0.095
-0.055
-0.065
0.025
0.07
0.11
0.19
0.265
0.185
0.16
0.04
-0.015
-0.08
-0.06
-0.105
-0.08
-0.12
-0.255
-0.735
-0.96
-0.41
1.12
3.025
1.995
1.31
0.37
-0.15
-0.1
-0.17
-0.12
-0.165
-0.14
-0.16
-0.135
-0.185
-0.14
-0.18
-0.16
-0.2
-0.17
-0.2
-0.2
-0.215
-0.205
-0.23
-0.2
-0.21
-0.155
-0.135
-0.085
-0.005
0.06
0.125
0.145
0.13
0.115
0.09
0.07
0.045
0.03
0.025
0.03
0.005
0.0
-0.01
-0.045
-0.06
-0.075
-0.095
-0.105
-0.09
-0.11
-0.1
-0.11
-0.075
-0.08
-0.07
-0.095
-0.075
-0.07
-0.055
-0.075
-0.06
-0.06
-0.04
-0.07
-0.01
0.055
0.11
0.135
0.27
0.22
0.17
0.11
0.0
-0.065
-0.045
-0.085
-0.075
-0.105
-0.125
-0.565
-0.81
-0.72
0.015
2.64
2.55
1.47
0.795
-0.025
-0.105
-0.15
-0.15
-0.175
-0.16
-0.165
-0.14
-0.16
-0.145
-0.165
-0.165
-0.17
-0.175
-0.195
-0.18
-0.22
-0.21
-0.235
-0.215
-0.215
-0.185
-0.155
-0.105
-0.045
0.035
0.105
0.14
0.145
0.15
0.105
0.075
0.06
0.04
0.03
0.01
0.0
0.0
-0.03
-0.04
-0.065
-0.08
-0.095
-0.115
-0.13
-0.125
-0.115
-0.115
-0.105
-0.095
-0.08
-0.09
-0.08
-0.075
-0.065
-0.05
-0.07
-0.045
-0.065
-0.06
-0.065
-0.035
0.055
0.1
0.125
0.26
0.235
0.15
0.115
0.0
-0.05
-0.065
-0.11
-0.085
-0.095
-0.13
-0.515
-0.785
-0.825
-0.185
2.315
2.695
1.525
0.915
0.07
-0.115
-0.15
-0.165
-0.165
-0.175
-0.16
-0.175
-0.165
-0.16
-0.175
-0.175
-0.18
-0.185
-0.19
-0.2
-0.2
-0.225
-0.21
-0.215
-0.205
-0.175
-0.145
-0.085
-0.03
0.045
0.105
0.16
0.15
0.15
0.12
0.095
0.065
0.04
0.025
0.005
-0.005
-0.015
-0.03
-0.045
-0.065
-0.08
-0.1
-0.13
-0.135
-0.145
-0.1
-0.11
-0.1
-0.1
-0.08
-0.09
-0.09
-0.11
-0.075
-0.09
-0.07
-0.085
-0.06
-0.105
-0.05
-0.08
0.03
0.07
0.105
0.22
0.245
0.14
0.125
-0.005
-0.04
-0.085
-0.07
-0.12
-0.07
-0.125
-0.27
-0.735
-0.98
-0.485
1.21
2.98
1.875
1.28
0.33
-0.155
-0.095
-0.185
-0.145
-0.18
-0.15
-0.18
-0.14
-0.165
-0.165
-0.185
-0.165
-0.2
-0.19
-0.225
-0.2
-0.225
-0.23
-0.255
-0.21
-0.23
-0.205
-0.14
-0.105
-0.035
0.045
0.085
0.115
0.095
0.1
0.065
0.055
0.025
-0.01
0.01
0.0
-0.03
-0.045
-0.045
-0.07
-0.08
-0.095
-0.105
-0.11
-0.13
-0.135
-0.12
-0.11
-0.115
-0.12
-0.11
-0.1
-0.09
-0.115
-0.08
-0.105
-0.09
-0.09
-0.045
-0.11
0.0
0.06
0.085
0.205
0.25
0.145
0.13
-0.02
-0.045
-0.12
-0.065
-0.135
-0.11
-0.13
-0.335
-0.76
-1.0
-0.445
1.38
3.01
1.875
1.23
0.245
-0.165
-0.12
-0.175
-0.14
-0.185
-0.15
-0.19
-0.16
-0.205
-0.155
-0.21
-0.2
-0.21
-0.21
-0.245
-0.21
-0.25
-0.23
-0.25
-0.235
-0.225
-0.185
-0.16
-0.095
-0.04
0.025
0.095
0.12
0.1
0.07
0.06
0.04
0.025
-0.015
0.015
0.0
-0.04
-0.03
-0.045
-0.08
-0.095
-0.095
-0.12
-0.11
-0.125
-0.145
-0.135
-0.12
-0.09
-0.12
-0.105
-0.115
-0.095
-0.095
-0.1
-0.085
-0.075
-0.105
-0.06
-0.075
0.02
0.06
0.065
0.215
0.23
0.155
0.13
-0.025
-0.045
-0.105
-0.08
-0.12
-0.1
-0.11
-0.41
-0.75
-0.955
-0.365
1.78
2.97
1.755
1.15
0.16
-0.155
-0.13
-0.16
-0.155
-0.175
-0.175
-0.18
-0.15
-0.19
-0.175
-0.195
-0.17
-0.215
-0.205
-0.205
-0.215
-0.245
-0.22
-0.235
-0.2
-0.2
-0.18
-0.145
-0.08
-0.005
0.07
0.095
0.12
0.13
0.085
0.07
0.075
0.03
0.02
-0.005
0.0
0.0
-0.01
-0.03
-0.05
-0.07
-0.085
-0.1
-0.13
-0.105
-0.105
-0.11
-0.1
-0.095
-0.1
-0.075
-0.065
-0.08
-0.07
-0.08
-0.08
-0.075
-0.075
-0.045
-0.06
0.045
0.1
0.11
0.235
0.235
0.175
0.125
-0.01
-0.04
-0.065
-0.07
-0.09
-0.1
-0.125
-0.465
-0.76
-0.875
-0.23
2.215
2.82
1.6
1.005
0.095
-0.11
-0.115
-0.16
-0.16
-0.15
-0.155
-0.17
-0.135
-0.18
-0.165
-0.17
-0.16
-0.185
-0.185
-0.205
-0.215
-0.22
-0.225
-0.22
-0.2
-0.17
-0.14
-0.1
-0.045
0.03
0.11
0.135
0.145
0.12
0.11
0.08
0.045
0.045
0.02
0.015
0.0
-0.025
-0.04
-0.045
-0.045
-0.06
-0.105
-0.1
-0.11
-0.115
-0.12
-0.105
-0.11
-0.11
-0.105
-0.09
-0.095
-0.065
-0.09
-0.06
-0.1
-0.065
-0.085
-0.06
-0.075
0.01
0.05
0.1
0.16
0.27
0.19
0.14
0.04
-0.025
-0.09
-0.075
-0.125
-0.09
-0.145
-0.205
-0.72
-0.94
-0.56
0.675
2.91
2.035
1.31
0.495
-0.115
-0.1
-0.16
-0.155
-0.185
-0.14
-0.18
-0.135
-0.175
-0.16
-0.19
-0.155
-0.205
-0.18
-0.2
-0.195
-0.215
-0.195
-0.23
-0.205
-0.215
-0.17
-0.145
-0.08
-0.025
0.05
0.105
0.13
0.125
0.115
0.085
0.06
0.025
0.01
-0.005
-0.015
-0.015
-0.04
-0.035
-0.05
-0.075
-0.08
-0.075
-0.115
-0.135
-0.14
-0.105
-0.1
-0.115
-0.11
-0.105
-0.09
-0.08
-0.09
-0.1
-0.09
-0.085
-0.08
-0.09
-0.085
-0.08
0.035
0.085
0.095
0.23
0.225
0.14
0.115
-0.025
-0.065
-0.09
-0.115
-0.11
-0.105
-0.13
-0.485
-0.765
-0.945
-0.335
2.21
2.79
1.585
0.955
0.05
-0.14
-0.15
-0.175
-0.165
-0.175
-0.165
-0.19
-0.175
-0.16
-0.185
-0.195
-0.19
-0.19
-0.22
-0.215
-0.245
-0.245
-0.235
-0.235
-0.23
-0.22
-0.17
-0.115
-0.06
-0.03
0.08
0.125
0.12
0.12
0.09
0.08
0.04
0.035
0.03
-0.015
0.0
-0.02
-0.01
-0.05
-0.065
-0.075
-0.11
-0.095
-0.105
-0.095
-0.115
-0.1
-0.11
-0.11
-0.09
-0.065
-0.09
-0.075
-0.07
-0.075
-0.1
-0.065
-0.06
-0.05
0.05
0.1
0.125
0.23
0.23
0.155
0.12
-0.015
-0.05
-0.07
-0.08
-0.09
-0.1
-0.115
-0.525
-0.81
-0.87
-0.19
2.415
2.77
1.585
0.92
0.0
-0.13
-0.145
-0.18
-0.16
-0.17
-0.165
-0.175
-0.165
-0.15
-0.165
-0.165
-0.185
-0.185
-0.195
-0.215
-0.2
-0.215
-0.235
-0.225
-0.205
-0.21
-0.165
-0.135
-0.075
0.01
0.055
0.095
0.1
0.1
0.085
0.05
0.025
0.005
0.02
-0.01
-0.01
-0.035
-0.035
-0.05
-0.085
-0.08
-0.115
-0.13
-0.105
-0.13
-0.135
-0.14
-0.09
-0.11
-0.12
-0.1
-0.085
-0.095
-0.085
-0.1
-0.08
-0.12
-0.045
0.015
0.095
0.145
0.25
0.185
0.145
0.09
-0.005
-0.055
-0.045
-0.105
-0.07
-0.105
-0.15
-0.645
-0.85
-0.64
0.21
2.81
2.455
1.44
0.685
-0.105
-0.11
-0.165
-0.175
-0.2
-0.155
-0.195
-0.165
-0.185
-0.165
-0.185
-0.18
-0.22
-0.18
-0.205
-0.21
-0.225
-0.225
-0.23
-0.21
-0.205
-0.185
-0.165
-0.1
-0.055
0.015
0.095
0.115
0.11
0.105
0.065
0.055
0.03
0.02
-0.005
-0.005
-0.02
-0.035
-0.035
-0.045
-0.065
-0.085
-0.095
-0.09
-0.105
-0.11
-0.12
-0.105
-0.105
-0.085
-0.09
-0.065
-0.08
-0.065
-0.095
-0.065
-0.095
-0.06
-0.065
0.025
0.07
0.1
0.205
0.255
0.175
0.13
0.01
-0.025
-0.085
-0.085
-0.12
-0.075
-0.15
-0.33
-0.75
-0.96
-0.425
1.43
2.96
1.755
1.19
0.29
-0.16
-0.14
-0.185
-0.155
-0.21
-0.17
-0.2
-0.16
-0.175
-0.155
-0.185
-0.17
-0.195
-0.19
-0.21
-0.205
-0.23
-0.21
-0.235
-0.22
-0.205
-0.155
-0.135
-0.08
-0.005
0.08
0.095
0.13
0.1
0.1
0.055
0.035
0.025
0.01
0.0
-0.01
-0.02
-0.025
-0.045
-0.07
-0.08
-0.105
-0.115
-0.115
-0.115
-0.115
-0.11
-0.105
-0.105
-0.1
-0.085
-0.09
-0.08
-0.075
-0.075
-0.075
-0.07
-0.08
-0.05
0.045
0.09
0.125
0.26
0.245
0.16
0.135
-0.025
-0.075
-0.09
-0.085
-0.105
-0.105
-0.135
-0.46
-0.78
-0.9
-0.3
2.03
2.75
1.54
0.98
0.13
-0.13
-0.145
-0.17
-0.165
-0.165
-0.16
-0.16
-0.145
-0.165
-0.155
-0.155
-0.17
-0.19
-0.19
-0.195
-0.195
-0.225
-0.215
-0.24
-0.215
-0.185
-0.145
-0.1
-0.05
0.025
0.11
0.13
0.12
0.11
0.095
0.065
0.03
0.015
0.02
0.0
-0.01
-0.03
-0.03
-0.045
-0.06
-0.085
-0.11
-0.115
-0.115
-0.11
-0.1
-0.09
-0.1
-0.105
-0.085
-0.08
-0.07
-0.08
-0.065
-0.08
-0.065
-0.08
-0.055
-0.045
0.04
0.105
0.13
0.24
0.265
0.165
0.125
-0.015
-0.05
-0.07
-0.085
-0.11
-0.09
-0.125
-0.41
-0.755
-0.97
-0.395
1.895
2.83
1.6
1.035
0.13
-0.15
-0.135
-0.185
-0.16
-0.195
-0.135
-0.185
-0.18
-0.185
-0.175
-0.195
-0.175
-0.195
-0.205
-0.22
-0.225
-0.235
-0.22
-0.24
-0.23
-0.21
-0.175
-0.15
-0.08
-0.015
0.04
0.095
0.115
0.1
0.055
0.05
0.02
0.0
0.01
-0.015
-0.03
-0.025
-0.04
-0.055
-0.08
-0.085
-0.09
-0.12
-0.13
-0.11
-0.115
-0.11
-0.115
-0.12
-0.105
-0.09
-0.1
-0.085
-0.075
-0.065
-0.095
-0.075
-0.055
0.03
0.055
0.105
0.23
0.23
0.145
0.115
-0.03
-0.035
-0.055
-0.085
-0.1
-0.08
-0.125
-0.42
-0.77
-0.95
-0.38
1.875
2.94
1.705
1.105
0.14
-0.13
-0.13
-0.165
-0.135
-0.17
-0.165
-0.16
-0.155
-0.18
-0.165
-0.185
-0.17
-0.175
-0.18
-0.22
-0.215
-0.23
-0.21
-0.23
-0.23
-0.22
-0.165
-0.145
-0.065
-0.02
0.055
0.095
0.105
0.09
0.075
0.03
0.035
0.01
0.005
-0.01
-0.02
-0.03
-0.035
-0.055
-0.055
-0.085
-0.095
-0.115
-0.11
-0.125
-0.11
-0.135
-0.095
-0.1
-0.08
-0.095
-0.07
-0.095
-0.075
-0.09
-0.06
-0.09
0.0
0.07
0.095
0.185
0.25
0.165
0.125
0.0
-0.035
-0.095
-0.08
-0.12
-0.065
-0.14
-0.235
-0.735
-0.955
-0.485
0.975
3.005
1.97
1.285
0.385
-0.165
-0.12
-0.18
-0.135
-0.19
-0.165
-0.19
-0.155
-0.2
-0.17
-0.2
-0.19
-0.22
-0.19
-0.24
-0.22
-0.235
-0.22
-0.25
-0.215
-0.205
-0.175
-0.15
-0.09
-0.03
0.045
0.09
0.13
0.09
0.085
0.06
0.045
0.02
0.015
0.0
-0.015
-0.025
-0.04
-0.03
-0.07
-0.085
-0.115
-0.115
-0.125
-0.1
-0.11
-0.105
-0.12
-0.1
-0.1
-0.09
-0.1
-0.075
-0.095
-0.07
-0.085
-0.07
-0.085
-0.03
0.045
0.09
0.125
0.24
0.2
0.14
0.07
-0.035
-0.095
-0.085
-0.12
-0.115
-0.125
-0.145
-0.63
-0.835
-0.72
0.08
2.655
2.43
1.42
0.735
-0.045
-0.125
-0.16
-0.165
-0.185
-0.17
-0.195
-0.16
-0.175
-0.17
-0.205
-0.19
-0.195
-0.195
-0.22
-0.22
-0.235
-0.235
-0.23
-0.225
-0.21
-0.17
-0.145
-0.085
-0.03
0.04
0.09
0.115
0.12
0.115
0.08
0.04
0.02
0.02
0.005
-0.005
-0.03
-0.025
-0.04
-0.07
-0.075
-0.105
-0.105
-0.11
-0.115
-0.11
-0.11
-0.1
-0.1
-0.1
-0.095
-0.085
-0.085
-0.085
-0.085
-0.08
-0.075
-0.08
-0.06
0.045
0.09
0.12
0.235
0.235
0.155
0.125
-0.02
-0.065
-0.105
-0.1
-0.125
-0.11
-0.14
-0.47
-0.785
-0.93
-0.355
2.01
2.78
1.53
0.985
0.11
-0.15
-0.14
-0.185
-0.165
-0.185
-0.16
-0.165
-0.155
-0.16
-0.15
-0.165
-0.17
-0.185
-0.19
-0.22
-0.215
-0.225
-0.22
-0.215
-0.195
-0.18
-0.13
-0.095
-0.045
0.02
0.09
0.145
0.13
0.11
0.09
0.055
0.055
0.025
0.005
-0.005
-0.005
-0.005
-0.035
-0.045
-0.085
-0.07
-0.1
-0.125
-0.105
-0.11
-0.12
-0.1
-0.095
-0.085
-0.11
-0.085
-0.09
-0.085
-0.095
-0.045
-0.1
-0.065
-0.065
0.035
0.075
0.115
0.225
0.25
0.17
0.155
0.0
-0.02
-0.095
-0.055
-0.115
-0.075
-0.125
-0.275
-0.74
-0.985
-0.49
1.215
2.995
1.88
1.24
0.285
-0.155
-0.115
-0.16
-0.14
-0.16
-0.135
-0.175
-0.135
-0.17
-0.145
-0.19
-0.145
-0.19
-0.19
-0.19
-0.19
-0.22
-0.175
-0.235
-0.185
-0.205
-0.165
-0.13
-0.065
0.02
0.04
0.115
0.135
0.095
0.115
0.075
0.05
0.045
0.035
0.0
0.0
-0.005
-0.015
-0.035
-0.045
-0.1
-0.08
-0.13
-0.115
-0.14
-0.115
-0.125
-0.11
-0.11
-0.11
-0.11
-0.09
-0.105
-0.085
-0.11
-0.08
-0.095
0.0
0.025
0.105
0.175
0.225
0.16
0.125
0.02
-0.03
-0.11
-0.085
-0.11
-0.08
-0.15
-0.19
-0.715
-0.915
-0.6
0.475
2.95
2.215
1.38
0.53
-0.18
-0.115
-0.195
-0.16
-0.185
-0.2
-0.2
-0.165
-0.205
-0.185
-0.235
-0.205
-0.22
-0.215
-0.235
-0.225
-0.24
-0.22
-0.245
-0.24
-0.235
-0.19
-0.165
-0.1
-0.05
0.035
0.07
0.1
0.09
0.08
0.055
0.035
0.01
0.005
-0.005
-0.015
-0.04
-0.045
-0.065
-0.075
-0.07
-0.12
-0.11
-0.135
-0.13
-0.13
-0.11
-0.13
-0.105
-0.105
-0.1
-0.115
-0.08
-0.115
-0.09
-0.105
-0.06
-0.085
-0.005
0.045
0.085
0.17
0.255
0.15
0.12
0.02
-0.035
-0.1
-0.08
-0.13
-0.085
-0.145
-0.235
-0.73
-0.945
-0.5
0.935
2.99
1.99
1.32
0.475
-0.135
-0.12
-0.185
-0.165
-0.205
-0.155
-0.195
-0.165
-0.185
-0.145
-0.185
-0.17
-0.205
-0.185
-0.215
-0.2
-0.225
-0.205
-0.23
-0.22
-0.19
-0.14
-0.12
-0.055
0.005
0.095
0.13
0.14
0.125
0.1
0.06
0.03
0.015
0.01
-0.01
-0.01
-0.04
-0.035
-0.055
-0.095
-0.085
-0.105
-0.11
-0.13
-0.13
-0.12
-0.105
-0.12
-0.1
-0.115
-0.085
-0.095
-0.1
-0.095
-0.08
-0.1
-0.065
-0.095
-0.07
-0.085
0.02
0.06
0.095
0.21
0.21
0.135
0.115
0.0
-0.055
-0.11
-0.085
-0.125
-0.095
-0.145
-0.335
-0.735
-0.935
-0.38
1.56
2.97
1.755
1.23
0.335
-0.14
-0.1
-0.185
-0.18
-0.2
-0.175
-0.19
-0.16
-0.185
-0.155
-0.185
-0.165
-0.2
-0.19
-0.215
-0.21
-0.23
-0.215
-0.225
-0.21
-0.195
-0.13
-0.09
-0.02
0.045
0.125
0.16
0.15
0.14
0.095
0.06
0.035
0.0
0.0
-0.015
-0.015
-0.035
-0.045
-0.06
-0.07
-0.09
-0.105
-0.115
-0.13
-0.115
-0.115
-0.11
-0.12
-0.115
-0.095
-0.085
-0.09
-0.08
-0.105
-0.085
-0.08
-0.085
-0.075
-0.075
-0.09
-0.055
0.035
0.075
0.085
0.22
0.22
0.135
0.095
-0.025
-0.09
-0.09
-0.115
-0.12
-0.115
-0.15
-0.525
-0.805
-0.835
-0.14
2.33
2.69
1.545
1.0
0.095
-0.14
-0.165
-0.17
-0.21
-0.2
-0.19
-0.21
-0.195
-0.19
-0.19
-0.195
-0.2
-0.2
-0.215
-0.215
-0.215
-0.22
-0.22
-0.225
-0.205
-0.175
-0.13
-0.065
0.0
0.06
0.15
0.17
0.16
0.125
0.09
0.06
0.03
0.005
0.0
-0.01
-0.02
-0.04
-0.055
-0.065
-0.085
-0.1
-0.11
-0.13
-0.13
-0.125
-0.13
-0.125
-0.13
-0.115
-0.105
-0.105
-0.105
-0.1
-0.085
-0.1
-0.085
-0.08
-0.09
-0.085
-0.08
-0.085
-0.05
0.025
0.075
0.11
0.245
0.195
0.15
0.105
-0.025
-0.095
-0.09
-0.13
-0.115
-0.11
-0.145
-0.54
-0.8
-0.855
-0.165
2.405
2.74
1.61
0.995
0.085
-0.12
-0.15
-0.165
-0.195
-0.185
-0.17
-0.18
-0.175
-0.185
-0.185
-0.17
-0.185
-0.205
-0.2
-0.225
-0.205
-0.215
-0.225
-0.205
-0.205
-0.16
-0.135
-0.08
0.0
0.075
0.13
0.175
0.16
0.15
0.11
0.08
0.065
0.035
0.025
0.0
-0.01
-0.02
-0.045
-0.055
-0.06
-0.085
-0.11
-0.115
-0.125
-0.13
-0.12
-0.14
-0.115
-0.105
-0.095
-0.1
-0.09
-0.11
-0.09
-0.1
-0.075
-0.095
-0.07
-0.09
-0.07
-0.08
-0.07
-0.085
0.0
0.055
0.105
0.225
0.255
0.17
0.15
0.0
-0.035
-0.085
-0.075
-0.115
-0.07
-0.125
-0.305
-0.745
-0.98
-0.425
1.46
3.025
1.86
1.245
0.255
-0.14
-0.105
-0.175
-0.135
-0.19
-0.145
-0.16
-0.155
-0.19
-0.155
-0.215
-0.165
-0.195
-0.17
-0.19
-0.19
-0.205
-0.215
-0.22
-0.205
-0.2
-0.15
-0.12
-0.07
0.0
0.065
0.125
0.155
0.145
0.125
0.1
0.065
0.035
0.05
0.01
0.015
-0.005
-0.005
-0.02
-0.045
-0.07
-0.085
-0.08
-0.09
-0.11
-0.105
-0.095
-0.09
-0.08
-0.075
-0.055
-0.085
-0.08
-0.08
-0.07
-0.09
-0.05
-0.09
-0.075
-0.06
-0.055
-0.08
-0.045
-0.07
-0.005
0.055
0.1
0.165
0.27
0.165
0.12
0.055
-0.035
-0.125
-0.055
-0.135
-0.095
-0.115
-0.165
-0.675
-0.875
-0.635
0.35
2.825
2.275
1.405
0.685
-0.075
-0.125
-0.185
-0.17
-0.21
-0.155
-0.185
-0.165
-0.185
-0.16
-0.19
-0.165
-0.19
-0.175
-0.205
-0.2
-0.23
-0.19
-0.215
-0.2
-0.18
-0.15
-0.13
-0.065
0.0
0.08
0.145
0.165
0.16
0.13
0.105
0.08
0.04
0.03
0.035
0.0
-0.015
-0.03
-0.04
-0.04
-0.09
-0.095
-0.11
-0.115
-0.11
-0.12
-0.125
-0.105
-0.11
-0.085
-0.11
-0.085
-0.095
-0.085
-0.095
-0.07
-0.09
-0.07
-0.075
-0.07
-0.085
-0.065
-0.095
-0.065
-0.095
0.0
0.04
0.08
0.18
0.25
0.155
0.13
0.025
-0.04
-0.095
-0.075
-0.13
-0.11
-0.15
-0.23
-0.735
-0.94
-0.53
0.82
2.935
2.04
1.38
0.55
-0.125
-0.135
-0.205
-0.185
-0.23
-0.185
-0.22
-0.185
-0.205
-0.18
-0.215
-0.19
-0.23
-0.21
-0.24
-0.215
-0.24
-0.23
-0.24
-0.215
-0.215
-0.16
-0.13
-0.045
-0.015
0.075
0.135
0.16
0.135
0.145
0.08
0.045
0.035
0.015
0.0
0.0
-0.015
-0.02
-0.035
-0.04
-0.09
-0.075
-0.1
-0.095
-0.115
-0.1
-0.09
-0.075
-0.105
-0.075
-0.09
-0.075
-0.065
-0.02
-0.02
0.155
0.215
-0.02
0.11
-0.25
-0.215
-0.135
-0.145
-0.11
-0.085
-0.1
0.0
0.035
0.09
0.21
0.22
0.13
0.11
-0.03
-0.05
-0.09
-0.08
-0.12
-0.095
-0.145
-0.325
-0.77
-1.015
-0.465
1.385
2.99
1.85
1.225
0.235
-0.175
-0.135
-0.195
-0.165
-0.195
-0.15
-0.195
-0.17
-0.175
-0.16
-0.2
-0.185
-0.21
-0.19
-0.225
-0.21
-0.26
-0.235
-0.26
-0.235
-0.23
-0.195
-0.145
-0.1
-0.055
0.045
0.095
0.14
0.115
0.095
0.09
0.035
0.055
0.01
-0.005
-0.005
-0.01
-0.065
-0.095
-0.08
-0.125
-0.16
-0.14
-0.15
-0.125
-0.145
-0.13
-0.095
-0.105
-0.105
-0.1
-0.105
-0.075
-0.075
-0.105
-0.1
-0.1
-0.12
-0.065
-0.12
-0.07
-0.115
0.0
0.015
0.07
0.15
0.225
0.185
0.115
0.0
-0.035
-0.11
-0.09
-0.12
-0.085
-0.135
-0.19
-0.75
-0.96
-0.605
0.525
2.955
2.255
1.415
0.45
-0.195
-0.12
-0.175
-0.175
-0.185
-0.175
-0.23
-0.16
-0.22
-0.185
-0.205
-0.2
-0.225
-0.195
-0.25
-0.215
-0.27
-0.235
-0.27
-0.24
-0.235
-0.21
-0.2
-0.135
-0.08
-0.025
0.055
0.09
0.06
0.08
0.06
0.035
0.045
-0.02
0.01
0.0
-0.04
-0.03
-0.06
-0.07
-0.09
-0.09
-0.115
-0.105
-0.115
-0.125
-0.12
-0.135
-0.16
-0.08
-0.095
-0.1
-0.08
-0.08
-0.065
-0.055
-0.07
0.06
0.1
0.125
0.425
0.59
0.42
0.165
0.02
0.1
-0.285
-0.19
-0.155
-0.05
-0.11
-0.15
-0.635
-0.855
-0.805
-0.14
2.53
2.69
1.525
0.775
-0.075
-0.155
-0.145
-0.19
-0.175
-0.2
-0.165
-0.18
-0.16
-0.195
-0.17
-0.195
-0.185
-0.21
-0.2
-0.21
-0.215
-0.225
-0.245
-0.245
-0.235
-0.21
-0.195
-0.15
-0.085
-0.02
0.035
0.08
0.08
0.075
0.07
0.045
0.02
0.0
-0.03
-0.03
-0.025
-0.02
-0.04
-0.03
-0.075
-0.07
-0.105
-0.105
-0.09
-0.1
-0.085
-0.125
-0.09
-0.085
-0.095
-0.085
-0.09
-0.085
-0.11
-0.11
-0.095
-0.035
-0.03
0.045
0.055
0.195
0.175
0.125
0.09
0.0
-0.075
-0.075
-0.095
-0.095
-0.095
-0.12
-0.525
-0.785
-0.78
-0.085
2.54
2.785
1.56
0.92
0.01
-0.12
-0.135
-0.155
-0.17
-0.17
-0.17
-0.165
-0.17
-0.19
-0.17
-0.185
-0.185
-0.2
-0.205
-0.205
-0.215
-0.205
-0.205
-0.22
-0.205
-0.155
-0.165
-0.08
-0.04
0.06
0.09
0.105
0.125
0.095
0.08
0.035
0.035
0.01
0.01
0.0
0.01
0.01
-0.025
-0.045
-0.055
-0.08
-0.065
-0.09
-0.08
-0.095
-0.07
-0.09
-0.08
-0.065
-0.065
-0.07
-0.05
-0.065
-0.055
-0.055
0.025
0.1
0.105
0.21
0.25
0.195
0.17
0.035
-0.02
-0.065
-0.055
-0.095
-0.06
-0.085
-0.325
-0.73
-0.895
-0.3
1.845
3.005
1.715
1.14
0.235
-0.135
-0.115
-0.14
-0.125
-0.155
-0.14
-0.165
-0.155
-0.16
-0.155
-0.175
-0.165
-0.185
-0.185
-0.21
-0.19
-0.205
-0.205
-0.205
-0.2
-0.185
-0.135
-0.105
-0.04
0.01
0.1
0.13
0.135
0.11
0.09
0.07
0.06
0.01
0.0
-0.015
-0.03
-0.03
-0.035
-0.06
-0.085
-0.085
-0.1
-0.115
-0.1
-0.11
-0.095
-0.11
-0.095
-0.1
-0.085
-0.095
-0.08
-0.09
-0.07
-0.07
0.02
0.065
0.09
0.195
0.25
0.155
0.11
0.0
-0.065
-0.11
-0.095
-0.135
-0.11
-0.155
-0.405
-0.775
-0.935
-0.345
1.72
2.885
1.56
1.035
0.215
-0.17
-0.165
-0.22
-0.19
-0.21
-0.2
-0.215
-0.195
-0.21
-0.205
-0.235
-0.22
-0.24
-0.22
-0.25
-0.235
-0.255
-0.24
-0.245
-0.22
-0.205
-0.155
-0.11
-0.03
0.025
0.095
0.125
0.14
0.11
0.07
0.02
0.01
-0.005
-0.005
-0.03
-0.025
-0.04
-0.045
-0.065
-0.105
-0.165
0.085
0.7
1.375
1.63
1.345
0.83
0.115
-0.17
-0.375
-0.395
-0.425
-0.48
-0.235
-0.145
-0.135
-0.175
-0.155
-0.185
-0.19
-0.18
-0.195
-0.245
-0.23
-0.245
-0.24
-0.24
-0.225
-0.21
-0.16
-0.1
-0.09
-0.005
0.025
0.03
0.065
0.075
0.08
0.075
0.055
0.04
0.01
0.0
0.0
-0.01
-0.03
-0.01
-0.03
-0.03
-0.025
-0.05
-0.025
-0.04
-0.035
-0.03
-0.03
-0.035
-0.05
-0.045
-0.03
-0.035
-0.04
-0.045
-0.055
-0.05
-0.065
-0.075
-0.045
-0.06
-0.05
-0.08
-0.045
-0.075
-0.055
-0.04
-0.06
-0.06
-0.055
-0.05
-0.055
-0.085
-0.065
-0.075
-0.075
-0.05
-0.09
-0.06
-0.105
-0.065
-0.08
-0.11
-0.1
-0.07
-0.115
-0.075
-0.105
-0.085
-0.13
-0.08
-0.11
-0.09
-0.115
-0.075
-0.025
0.055
0.065
0.21
0.17
0.155
0.075
-0.025
-0.105
-0.075
-0.135
-0.075
-0.155
-0.22
-0.72
-0.92
-0.475
0.755
2.995
2.125
1.285
0.36
-0.2
-0.12
-0.23
-0.165
-0.23
-0.19
-0.225
-0.16
-0.235
-0.205
-0.215
-0.205
-0.23
-0.21
-0.24
-0.215
-0.21
-0.24
-0.25
-0.215
-0.225
-0.18
-0.155
-0.13
-0.05
0.03
0.085
0.215
0.265
0.26
0.235
0.19
0.17
0.105
0.095
0.04
0.01
0.005
-0.03
-0.05
-0.1
-0.09
-0.125
-0.135
-0.14
-0.125
-0.145
-0.135
-0.145
-0.1
-0.12
-0.105
-0.12
-0.08
-0.09
-0.055
-0.09
-0.015
0.015
0.105
0.145
0.235
0.21
0.17
0.085
0.0
-0.065
-0.055
-0.07
-0.055
-0.095
-0.12
-0.64
-0.85
-0.615
0.195
2.82
2.485
1.42
0.605
-0.145
-0.1
-0.165
-0.135
-0.165
-0.135
-0.17
-0.15
-0.17
-0.15
-0.165
-0.165
-0.185
-0.175
-0.2
-0.185
-0.21
-0.2
-0.2
-0.21
-0.2
-0.17
-0.155
-0.095
-0.065
0.0
0.06
0.09
0.095
0.105
0.08
0.07
0.035
0.03
0.0
0.01
0.005
-0.025
-0.03
-0.045
-0.06
-0.055
-0.065
-0.075
-0.075
-0.055
-0.07
-0.065
-0.07
-0.05
-0.075
-0.055
-0.095
-0.07
-0.08
-0.07
-0.105
-0.06
-0.095
0.005
0.055
0.095
0.165
0.23
0.16
0.135
0.04
-0.02
-0.09
-0.07
-0.115
-0.065
-0.13
-0.22
-0.705
-0.915
-0.485
0.885
2.99
1.98
1.24
0.42
-0.145
-0.11
-0.18
-0.15
-0.195
-0.15
-0.19
-0.15
-0.185
-0.165
-0.205
-0.16
-0.23
-0.19
-0.225
-0.21
-0.225
-0.21
-0.235
-0.195
-0.135
-0.15
-0.105
-0.055
0.005
0.08
0.115
0.135
0.12
0.09
0.06
0.035
-0.01
0.0
-0.02
-0.04
-0.04
-0.025
-0.08
-0.085
-0.1
-0.13
-0.145
-0.125
-0.155
-0.15
-0.145
-0.135
-0.12
-0.14
-0.13
-0.12
-0.13
-0.11
-0.115
-0.1
-0.145
-0.09
-0.115
-0.075
-0.095
-0.025
0.025
0.075
0.155
0.22
0.16
0.095
0.015
-0.045
-0.145
-0.075
-0.14
-0.1
-0.16
-0.25
-0.75
-0.94
-0.53
0.845
3.015
2.045
1.28
0.38
-0.17
-0.13
-0.205
-0.155
-0.2
-0.16
-0.225
-0.16
-0.21
-0.195
-0.21
-0.205
-0.235
-0.195
-0.26
-0.225
-0.245
-0.22
-0.255
-0.225
-0.24
-0.165
-0.145
-0.115
-0.005
0.02
0.085
0.12
0.115
0.07
0.045
0.03
0.015
-0.01
-0.015
-0.02
-0.025
-0.045
-0.065
-0.07
-0.105
-0.09
-0.105
-0.12
-0.145
-0.13
-0.125
-0.125
-0.12
-0.13
-0.11
-0.1
-0.125
-0.06
-0.13
-0.1
-0.08
-0.09
-0.09
-0.04
0.02
0.065
0.105
0.23
0.19
0.145
0.055
-0.015
-0.105
-0.07
-0.105
-0.095
-0.13
-0.17
-0.645
-0.85
-0.65
0.225
2.825
2.445
1.41
0.635
-0.14
-0.13
-0.155
-0.155
-0.2
-0.15
-0.185
-0.155
-0.155
-0.175
-0.185
-0.16
-0.19
-0.16
-0.195
-0.175
-0.215
-0.205
-0.205
-0.2
-0.195
-0.16
-0.12
-0.075
-0.02
0.06
0.11
0.14
0.14
0.12
0.115
0.085
0.04
0.035
0.03
0.035
0.025
0.015
-0.01
-0.03
-0.045
-0.05
-0.07
-0.065
-0.07
-0.1
-0.095
-0.09
-0.07
-0.075
-0.065
-0.075
-0.06
-0.085
-0.055
-0.065
-0.065
-0.08
-0.045
-0.045
-0.045
0.035
0.105
0.11
0.255
0.22
0.155
0.11
-0.005
-0.065
-0.07
-0.085
-0.085
-0.09
-0.105
-0.575
-0.8
-0.715
0.06
2.67
2.575
1.415
0.76
-0.045
-0.09
-0.155
-0.16
-0.165
-0.17
-0.165
-0.15
-0.165
-0.145
-0.175
-0.16
-0.175
-0.165
-0.185
-0.205
-0.21
-0.205
-0.215
-0.205
-0.19
-0.165
-0.115
-0.08
-0.01
0.045
0.11
0.15
0.145
0.115
0.09
0.08
0.045
0.04
0.01
0.01
0.005
-0.015
-0.025
-0.03
-0.06
-0.065
-0.085
-0.105
-0.095
-0.07
-0.09
-0.09
-0.1
-0.08
-0.09
-0.075
-0.065
-0.07
-0.055
-0.06
-0.065
-0.06
-0.06
-0.065
-0.05
0.045
0.105
0.125
0.24
0.24
0.165
0.12
0.0
-0.035
-0.06
-0.075
-0.105
-0.095
-0.12
-0.45
-0.75
-0.835
-0.215
2.15
2.845
1.455
0.89
0.1
-0.115
-0.12
-0.155
-0.145
-0.16
-0.13
-0.165
-0.155
-0.165
-0.15
-0.18
-0.18
-0.19
-0.185
-0.21
-0.205
-0.215
-0.215
-0.23
-0.22
-0.19
-0.16
-0.105
-0.045
0.015
0.095
0.13
0.135
0.115
0.085
0.07
0.045
0.02
0.015
-0.005
-0.01
-0.02
-0.04
-0.065
-0.065
-0.075
-0.1
-0.105
-0.11
-0.12
-0.095
-0.115
-0.09
-0.105
-0.08
-0.1
-0.075
-0.085
-0.075
-0.095
-0.05
-0.075
-0.045
-0.08
-0.01
0.04
0.095
0.135
0.24
0.21
0.15
0.065
-0.005
-0.085
-0.08
-0.115
-0.085
-0.115
-0.15
-0.63
-0.85
-0.705
0.155
2.74
2.365
1.33
0.645
-0.075
-0.125
-0.185
-0.17
-0.185
-0.18
-0.195
-0.165
-0.19
-0.18
-0.195
-0.16
-0.225
-0.195
-0.225
-0.22
-0.24
-0.225
-0.22
-0.225
-0.21
-0.17
-0.15
-0.095
-0.03
0.045
0.08
0.12
0.095
0.085
0.055
0.02
0.005
0.0
-0.035
-0.03
-0.025
-0.045
-0.075
-0.075
-0.075
-0.11
-0.115
-0.12
-0.095
-0.155
-0.11
-0.12
-0.105
-0.115
-0.095
-0.08
-0.08
-0.11
-0.065
-0.095
-0.075
-0.085
0.01
0.05
0.065
0.17
0.26
0.16
0.15
0.0
-0.025
-0.09
-0.08
-0.115
-0.08
-0.14
-0.265
-0.75
-0.96
-0.46
0.985
3.02
1.97
1.21
0.275
-0.19
-0.125
-0.195
-0.145
-0.215
-0.17
-0.195
-0.165
-0.215
-0.195
-0.22
-0.185
-0.205
-0.21
-0.255
-0.225
-0.255
-0.22
-0.26
-0.225
-0.235
-0.195
-0.14
-0.105
-0.045
0.04
0.08
0.09
0.085
0.085
0.03
0.025
0.01
-0.005
-0.005
-0.025
-0.045
-0.045
-0.07
-0.085
-0.115
-0.115
-0.13
-0.125
-0.14
-0.14
-0.155
-0.11
-0.13
-0.11
-0.115
-0.095
-0.115
-0.09
-0.12
-0.07
-0.1
-0.01
0.025
0.085
0.16
0.23
0.145
0.105
0.005
-0.025
-0.12
-0.075
-0.13
-0.095
-0.14
-0.29
-0.74
-0.94
-0.425
1.225
3.02
1.85
1.175
0.245
-0.2
-0.115
-0.175
-0.155
-0.18
-0.155
-0.2
-0.165
-0.185
-0.18
-0.205
-0.185
-0.215
-0.185
-0.21
-0.195
-0.245
-0.21
-0.245
-0.215
-0.215
-0.145
-0.14
-0.045
0.005
0.08
0.125
0.12
0.105
0.095
0.08
0.02
0.02
0.025
0.0
-0.025
-0.01
-0.015
-0.04
-0.07
-0.09
-0.105
-0.09
-0.09
-0.11
-0.115
-0.115
-0.11
-0.095
-0.1
-0.08
-0.095
-0.085
-0.11
-0.085
-0.11
-0.075
-0.08
0.0
0.07
0.09
0.195
0.23
0.15
0.11
0.0
-0.07
-0.11
-0.1
-0.13
-0.09
-0.14
-0.44
-0.775
-0.855
-0.195
2.075
2.88
1.58
1.025
0.155
-0.135
-0.14
-0.18
-0.19
-0.205
-0.175
-0.19
-0.185
-0.18
-0.185
-0.19
-0.175
-0.205
-0.185
-0.21
-0.215
-0.215
-0.205
-0.21
-0.2
-0.165
-0.125
-0.075
0.025
0.06
0.13
0.155
0.15
0.125
0.085
0.05
0.025
0.0
-0.015
-0.015
-0.03
-0.045
-0.045
-0.065
-0.07
-0.105
-0.1
-0.115
-0.11
-0.12
-0.105
-0.115
-0.1
-0.12
-0.085
-0.105
-0.085
-0.1
-0.075
-0.095
-0.08
-0.09
0.0
0.05
0.1
0.195
0.26
0.155
0.12
0.025
-0.045
-0.105
-0.095
-0.13
-0.095
-0.145
-0.3
-0.73
-0.895
-0.285
1.57
2.96
1.705
1.18
0.335
-0.13
-0.12
-0.18
-0.15
-0.2
-0.17
-0.195
-0.165
-0.18
-0.165
-0.2
-0.185
-0.2
-0.18
-0.215
-0.19
-0.2
-0.2
-0.23
-0.2
-0.185
-0.125
-0.08
-0.02
0.05
0.135
0.15
0.17
0.125
0.1
0.065
0.025
0.0
-0.025
-0.01
-0.02
-0.045
-0.06
-0.075
-0.085
-0.115
-0.125
-0.13
-0.13
-0.135
-0.115
-0.135
-0.13
-0.13
-0.09
-0.125
-0.1
-0.11
-0.105
-0.115
-0.075
-0.1
0.0
0.045
0.085
0.205
0.23
0.14
0.115
-0.01
-0.06
-0.095
-0.09
-0.12
-0.105
-0.13
-0.425
-0.755
-0.95
-0.31
2.005
2.965
1.66
1.03
0.1
-0.155
-0.15
-0.195
-0.16
-0.205
-0.19
-0.205
-0.175
-0.185
-0.175
-0.19
-0.2
-0.195
-0.195
-0.225
-0.23
-0.235
-0.21
-0.215
-0.195
-0.18
-0.115
-0.075
-0.025
0.02
0.1
0.155
0.12
0.115
0.115
0.065
0.05
-0.005
0.01
-0.005
-0.02
0.0
-0.05
-0.05
-0.07
-0.075
-0.1
-0.13
-0.12
-0.105
-0.105
-0.11
-0.125
-0.095
-0.095
-0.05
-0.105
-0.065
-0.095
-0.065
-0.07
-0.045
0.045
0.1
0.1
0.265
0.185
0.17
0.07
-0.025
-0.085
-0.09
-0.09
-0.09
-0.125
-0.17
-0.665
-0.86
-0.57
0.49
2.9
2.26
1.375
0.595
-0.1
-0.105
-0.155
-0.16
-0.19
-0.16
-0.2
-0.17
-0.21
-0.155
-0.185
-0.19
-0.21
-0.19
-0.21
-0.215
-0.23
-0.21
-0.24
-0.21
-0.185
-0.14
-0.11
-0.05
0.005
0.095
0.14
0.14
0.12
0.1
0.075
0.025
0.02
-0.01
0.0
-0.025
-0.025
-0.035
-0.085
-0.075
-0.1
-0.1
-0.14
-0.145
-0.125
-0.135
-0.125
-0.125
-0.115
-0.11
-0.105
-0.09
-0.11
-0.105
-0.09
-0.085
-0.065
-0.02
0.07
0.095
0.22
0.225
0.17
0.135
0.01
-0.08
-0.1
-0.085
-0.105
-0.115
-0.13
-0.465
-0.76
-0.87
-0.225
2.215
2.9
1.61
1.035
0.1
-0.14
-0.14
-0.165
-0.175
-0.18
-0.18
-0.18
-0.165
-0.17
-0.18
-0.2
-0.185
-0.195
-0.2
-0.23
-0.215
-0.215
-0.24
-0.215
-0.21
-0.165
-0.12
-0.075
-0.015
0.055
0.155
0.145
0.15
0.115
0.1
0.045
0.02
0.0
-0.02
-0.015
-0.03
-0.055
-0.04
-0.055
-0.1
-0.08
-0.12
-0.105
-0.145
-0.125
-0.12
-0.105
-0.13
-0.09
-0.105
-0.1
-0.11
-0.1
-0.09
-0.075
-0.085
-0.07
0.0
0.07
0.1
0.25
0.225
0.18
0.12
-0.015
-0.075
-0.06
-0.085
-0.07
-0.1
-0.115
-0.565
-0.805
-0.795
-0.075
2.63
2.72
1.51
0.805
-0.065
-0.11
-0.14
-0.145
-0.16
-0.155
-0.165
-0.145
-0.175
-0.155
-0.165
-0.17
-0.185
-0.2
-0.205
-0.2
-0.21
-0.21
-0.23
-0.205
-0.195
-0.175
-0.15
-0.09
-0.04
0.035
0.1
0.13
0.12
0.12
0.085
0.06
0.04
0.035
0.015
0.005
-0.005
-0.015
-0.04
-0.045
-0.065
-0.075
-0.09
-0.11
-0.09
-0.115
-0.09
-0.1
-0.075
-0.08
-0.065
-0.08
-0.055
-0.075
-0.045
-0.08
-0.025
0.04
0.105
0.15
0.27
0.225
0.17
0.09
-0.015
-0.07
-0.07
-0.1
-0.075
-0.09
-0.145
-0.645
-0.855
-0.695
0.17
2.78
2.405
1.38
0.66
-0.075
-0.1
-0.17
-0.16
-0.185
-0.165
-0.18
-0.145
-0.16
-0.15
-0.18
-0.165
-0.205
-0.185
-0.195
-0.205
-0.215
-0.21
-0.225
-0.21
-0.215
-0.185
-0.13
-0.07
-0.01
0.045
0.11
0.14
0.13
0.09
0.075
0.055
0.035
0.0
0.005
-0.005
-0.015
-0.025
-0.035
-0.06
-0.055
-0.105
-0.085
-0.115
-0.095
-0.105
-0.08
-0.115
-0.075
-0.105
-0.065
-0.09
-0.07
-0.075
-0.05
-0.085
-0.005
0.04
0.115
0.185
0.285
0.185
0.18
0.085
-0.025
-0.1
-0.065
-0.125
-0.1
-0.11
-0.14
-0.645
-0.88
-0.7
0.145
2.82
2.355
1.37
0.64
-0.105
-0.13
-0.175
-0.16
-0.185
-0.155
-0.18
-0.125
-0.19
-0.165
-0.215
-0.165
-0.185
-0.19
-0.25
-0.185
-0.235
-0.205
-0.255
-0.2
-0.18
-0.16
-0.14
-0.055
-0.02
0.055
0.125
0.135
0.095
0.09
0.065
0.065
0.01
-0.005
0.015
-0.01
-0.04
-0.07
-0.055
-0.04
-0.105
-0.105
-0.1
-0.125
-0.095
-0.13
-0.125
-0.095
-0.135
-0.075
-0.105
-0.06
-0.09
-0.06
-0.08
0.015
0.08
0.1
0.22
0.21
0.175
0.095
-0.01
-0.05
-0.08
-0.065
-0.105
-0.065
-0.16
-0.44
-0.82
-1.0
-0.425
2.03
2.945
1.655
1.02
0.055
-0.16
-0.145
-0.17
-0.165
-0.195
-0.15
-0.175
-0.175
-0.2
-0.16
-0.19
-0.245
-0.23
-0.2
-0.24
-0.24
-0.245
-0.25
-0.27
-0.24
-0.225
-0.21
-0.175
-0.11
-0.06
0.025
0.045
0.06
0.04
0.05
0.035
0.02
-0.015
-0.015
-0.025
-0.02
-0.065
-0.065
-0.065
-0.095
-0.105
-0.12
-0.11
-0.135
-0.13
-0.145
-0.115
-0.125
-0.085
-0.12
-0.075
-0.105
-0.055
-0.075
-0.04
0.03
0.09
0.12
0.245
0.2
0.145
0.065
-0.015
-0.085
-0.075
-0.115
-0.095
-0.13
-0.155
-0.68
-0.89
-0.59
0.415
2.965
2.305
1.365
0.545
-0.12
-0.13
-0.17
-0.14
-0.18
-0.155
-0.185
-0.165
-0.185
-0.16
-0.195
-0.175
-0.215
-0.195
-0.215
-0.215
-0.225
-0.205
-0.225
-0.22
-0.205
-0.175
-0.145
-0.085
-0.025
0.06
0.1
0.12
0.11
0.085
0.065
0.05
0.03
0.0
0.005
0.0
-0.04
-0.04
-0.065
-0.065
-0.075
-0.09
-0.125
-0.125
-0.105
-0.115
-0.11
-0.095
-0.12
-0.08
-0.12
-0.075
-0.105
-0.07
-0.095
-0.015
0.035
0.095
0.155
0.275
0.185
0.13
0.05
-0.03
-0.1
-0.085
-0.105
-0.075
-0.125
-0.215
-0.71
-0.915
-0.495
0.785
2.995
2.015
1.265
0.47
-0.135
-0.115
-0.175
-0.15
-0.185
-0.16
-0.19
-0.165
-0.18
-0.165
-0.195
-0.175
-0.2
-0.195
-0.22
-0.215
-0.225
-0.235
-0.24
-0.225
-0.22
-0.18
-0.15
-0.05
0.015
0.065
0.1
0.09
0.07
0.05
0.03
0.02
0.0
-0.005
0.0
-0.01
-0.03
-0.04
-0.06
-0.065
-0.105
-0.115
-0.115
-0.11
-0.125
-0.11
-0.115
-0.075
-0.105
-0.09
-0.095
-0.065
-0.105
-0.07
-0.08
0.015
0.065
0.115
0.16
0.28
0.165
0.12
0.07
-0.05
-0.1
-0.09
-0.145
-0.095
-0.15
-0.23
-0.735
-0.94
-0.555
0.835
2.95
1.94
1.265
0.455
-0.175
-0.15
-0.205
-0.185
-0.22
-0.22
-0.225
-0.185
-0.195
-0.21
-0.21
-0.215
-0.245
-0.225
-0.255
-0.22
-0.245
-0.245
-0.25
-0.23
-0.215
-0.175
-0.14
-0.08
0.0
0.085
0.135
0.125
0.09
0.085
0.04
0.01
-0.01
-0.01
-0.04
-0.035
-0.07
-0.08
-0.08
-0.085
-0.125
-0.14
-0.15
-0.145
-0.14
-0.145
-0.16
-0.12
-0.12
-0.11
-0.125
-0.065
-0.115
-0.045
0.02
0.08
0.115
0.25
0.175
0.135
0.035
-0.04
-0.11
-0.065
-0.12
-0.11
-0.125
-0.185
-0.72
-0.905
-0.665
0.21
2.865
2.405
1.4
0.56
-0.15
-0.125
-0.19
-0.175
-0.185
-0.17
-0.19
-0.175
-0.2
-0.18
-0.21
-0.2
-0.205
-0.19
-0.24
-0.22
-0.215
-0.23
-0.24
-0.225
-0.215
-0.205
-0.145
-0.1
-0.055
0.02
0.06
0.115
0.095
0.075
0.065
0.03
0.03
0.01
0.005
-0.02
0.0
-0.04
-0.035
-0.065
-0.085
-0.1
-0.085
-0.105
-0.08
-0.11
-0.075
-0.095
-0.065
-0.095
-0.065
-0.08
-0.05
-0.07
-0.015
0.035
0.105
0.135
0.27
0.215
0.17
0.095
0.0
-0.07
-0.055
-0.095
-0.06
-0.1
-0.135
-0.63
-0.82
-0.6
0.295
2.855
2.365
1.37
0.635
-0.1
-0.1
-0.15
-0.135
-0.18
-0.135
-0.16
-0.125
-0.175
-0.145
-0.195
-0.17
-0.18
-0.165
-0.205
-0.195
-0.215
-0.205
-0.225
-0.19
-0.195
-0.15
-0.13
-0.05
0.005
0.07
0.125
0.15
0.135
0.105
0.07
0.055
0.025
0.0
-0.005
-0.01
-0.03
-0.045
-0.05
-0.065
-0.075
-0.095
-0.11
-0.115
-0.095
-0.1
-0.1
-0.1
-0.085
-0.1
-0.075
-0.095
-0.065
-0.08
-0.06
-0.08
0.0
0.055
0.115
0.155
0.26
0.185
0.14
0.055
-0.02
-0.1
-0.085
-0.12
-0.09
-0.13
-0.195
-0.685
-0.905
-0.54
0.58
2.865
2.06
1.29
0.575
-0.095
-0.115
-0.185
-0.165
-0.2
-0.165
-0.19
-0.15
-0.19
-0.165
-0.195
-0.165
-0.2
-0.19
-0.21
-0.205
-0.225
-0.22
-0.225
-0.21
-0.19
-0.15
-0.11
-0.035
0.03
0.11
0.15
0.155
0.125
0.1
0.07
0.03
0.015
-0.005
-0.01
-0.035
-0.035
-0.055
-0.06
-0.085
-0.095
-0.115
-0.115
-0.12
-0.11
-0.125
-0.11
-0.13
-0.095
-0.125
-0.085
-0.105
-0.07
-0.11
-0.07
-0.1
-0.07
-0.075
0.005
0.055
0.09
0.18
0.26
0.18
0.13
0.035
-0.035
-0.11
-0.085
-0.13
-0.08
-0.155
-0.225
-0.695
-0.945
-0.56
0.77
2.92
1.985
1.27
0.5
-0.155
-0.115
-0.2
-0.18
-0.21
-0.165
-0.205
-0.17
-0.205
-0.185
-0.2
-0.195
-0.245
-0.18
-0.255
-0.205
-0.235
-0.205
-0.235
-0.19
-0.2
-0.16
-0.115
-0.035
0.02
0.08
0.115
0.14
0.135
0.095
0.05
0.04
-0.015
-0.02
-0.005
-0.04
-0.055
-0.055
-0.065
-0.07
-0.105
-0.115
-0.12
-0.125
-0.13
-0.125
-0.15
-0.11
-0.125
-0.075
-0.125
-0.105
-0.11
-0.075
-0.085
-0.06
-0.1
-0.035
0.02
0.09
0.14
0.24
0.165
0.165
0.025
-0.04
-0.095
-0.07
-0.115
-0.095
-0.13
-0.165
-0.705
-0.905
-0.66
0.21
2.84
2.355
1.36
0.56
-0.15
-0.115
-0.21
-0.18
-0.195
-0.19
-0.22
-0.175
-0.21
-0.205
-0.22
-0.2
-0.235
-0.215
-0.245
-0.25
-0.265
-0.23
-0.28
-0.26
-0.245
-0.185
-0.19
-0.135
-0.08
0.0
0.06
0.065
0.065
0.075
0.05
0.02
0.01
-0.005
-0.01
-0.01
-0.05
-0.045
-0.095
-0.085
-0.12
-0.14
-0.155
-0.145
-0.125
-0.17
-0.145
-0.13
-0.15
-0.135
-0.08
-0.115
-0.14
-0.145
-0.11
-0.13
-0.085
-0.135
-0.045
0.02
0.075
0.135
0.185
0.105
0.095
-0.05
-0.09
-0.155
-0.14
-0.145
-0.14
-0.195
-0.425
-0.765
-0.955
-0.44
1.48
2.955
1.78
1.12
0.115
-0.25
-0.175
-0.205
-0.23
-0.25
-0.205
-0.245
-0.255
-0.225
-0.25
-0.245
-0.245
-0.285
-0.24
-0.29
-0.245
-0.295
-0.255
-0.28
-0.285
-0.255
-0.175
-0.18
-0.105
-0.05
0.01
0.06
0.09
0.065
0.005
0.025
-0.025
0.02
-0.065
-0.045
0.025
-0.115
-0.1
-0.07
-0.135
-0.15
-0.14
-0.165
-0.19
-0.185
-0.21
-0.155
-0.16
-0.135
-0.16
-0.16
-0.115
-0.115
-0.14
-0.11
-0.13
-0.15
-0.05
0.0
0.05
0.22
0.105
0.095
0.065
-0.085
-0.095
-0.155
-0.095
-0.155
-0.145
-0.145
-0.685
-0.77
-0.74
0.045
2.665
2.605
1.375
0.765
-0.005
-0.19
-0.13
-0.195
-0.195
-0.2
-0.19
-0.165
-0.255
-0.16
-0.22
-0.24
-0.185
-0.165
-0.245
-0.23
-0.225
-0.21
-0.215
-0.25
-0.18
-0.17
-0.21
-0.11
-0.075
0.07
0.145
0.125
0.09
0.075
0.025
0.07
0.055
-0.01
-0.035
0.045
-0.035
-0.045
-0.06
-0.1
-0.055
-0.09
-0.07
-0.075
-0.07
-0.18
-0.05
-0.065
-0.08
-0.125
-0.07
-0.125
-0.075
-0.035
-0.145
-0.065
-0.095
0.0
0.03
0.095
0.21
0.175
0.195
0.095
-0.05
-0.1
-0.09
-0.115
-0.065
-0.13
-0.115
-0.61
-0.815
-0.61
0.24
2.885
2.465
1.39
0.67
-0.13
-0.09
-0.125
-0.165
-0.135
-0.155
-0.165
-0.13
-0.155
-0.195
-0.17
-0.15
-0.22
-0.175
-0.215
-0.195
-0.18
-0.21
-0.25
-0.22
-0.165
-0.17
-0.125
-0.03
-0.01
0.075
0.13
0.155
0.125
0.07
0.055
0.07
0.045
0.015
0.0
0.0
-0.005
-0.05
-0.035
-0.06
-0.06
-0.12
-0.075
-0.11
-0.115
-0.1
-0.095
-0.095
-0.1
-0.11
-0.07
-0.08
-0.08
-0.09
-0.065
-0.08
-0.015
-0.095
-0.02
0.05
0.125
0.185
0.235
0.18
0.12
0.065
-0.02
-0.1
-0.055
-0.12
-0.045
-0.14
-0.34
-0.735
-0.895
-0.27
1.76
3.07
1.75
1.17
0.265
-0.12
-0.115
-0.125
-0.135
-0.175
-0.1
-0.17
-0.135
-0.175
-0.14
-0.165
-0.17
-0.205
-0.195
-0.21
-0.195
-0.22
-0.17
-0.225
-0.17
-0.16
-0.095
-0.075
0.015
0.08
0.135
0.15
0.18
0.145
0.09
0.07
0.05
0.035
0.03
0.01
-0.01
-0.025
-0.01
-0.01
-0.035
-0.08
-0.1
-0.095
-0.115
-0.08
-0.105
-0.085
-0.07
-0.115
-0.1
-0.1
-0.09
-0.07
-0.095
-0.065
-0.055
-0.045
-0.085
-0.045
-0.085
-0.04
0.065
0.11
0.145
0.255
0.195
0.135
0.09
-0.005
-0.07
-0.07
-0.11
-0.085
-0.12
-0.16
-0.625
-0.835
-0.57
0.4
2.815
2.395
1.445
0.745
-0.035
-0.1
-0.145
-0.14
-0.17
-0.135
-0.17
-0.17
-0.18
-0.145
-0.17
-0.175
-0.185
-0.195
-0.195
-0.185
-0.22
-0.185
-0.2
-0.195
-0.195
-0.135
-0.08
-0.025
0.025
0.11
0.165
0.175
0.165
0.125
0.1
0.065
0.04
0.01
0.01
0.0
0.0
-0.025
-0.01
-0.04
-0.05
-0.09
-0.11
-0.115
-0.1
-0.115
-0.11
-0.105
-0.09
-0.105
-0.08
-0.11
-0.085
-0.1
-0.075
-0.08
-0.07
-0.095
-0.085
-0.095
-0.05
-0.09
-0.04
0.025
0.095
0.135
0.235
0.195
0.15
0.075
-0.035
-0.085
-0.075
-0.115
-0.08
-0.12
-0.18
-0.64
-0.835
-0.655
0.205
2.71
2.425
1.38
0.73
-0.03
-0.125
-0.2
-0.18
-0.2
-0.175
-0.185
-0.175
-0.2
-0.155
-0.2
-0.195
-0.225
-0.195
-0.21
-0.195
-0.22
-0.23
-0.265
-0.21
-0.21
-0.18
-0.135
-0.095
-0.03
0.055
0.12
0.17
0.11
0.095
0.085
0.055
0.0
0.005
-0.01
-0.01
-0.01
-0.05
-0.045
-0.09
-0.085
-0.115
-0.14
-0.115
-0.15
-0.13
-0.135
-0.135
-0.145
-0.115
-0.115
-0.115
-0.095
-0.095
-0.135
-0.09
-0.11
-0.095
-0.12
-0.085
-0.145
-0.075
-0.11
-0.025
0.04
0.06
0.125
0.22
0.16
0.11
-0.02
-0.06
-0.12
-0.11
-0.17
-0.095
-0.19
-0.275
-0.76
-0.985
-0.46
1.09
3.035
1.955
1.25
0.35
-0.195
-0.16
-0.205
-0.185
-0.23
-0.185
-0.22
-0.21
-0.23
-0.23
-0.275
-0.2
-0.235
-0.26
-0.255
-0.23
-0.24
-0.25
-0.265
-0.23
-0.26
-0.19
-0.16
-0.07
-0.03
0.07
0.105
0.135
0.085
0.1
0.06
0.03
0.0
-0.01
-0.065
-0.06
-0.015
-0.09
-0.1
-0.045
-0.14
-0.175
-0.105
-0.14
-0.16
-0.15
-0.17
-0.15
-0.1
-0.125
-0.15
-0.09
-0.115
-0.075
-0.105
-0.11
-0.08
-0.1
-0.125
-0.105
-0.07
-0.03
0.0
0.1
0.215
0.17
0.12
0.05
-0.05
-0.07
-0.12
-0.1
-0.13
-0.15
-0.13
-0.57
-0.75
-0.815
-0.125
2.45
2.715
1.45
0.915
-0.09
-0.095
-0.175
-0.175
-0.24
-0.195
-0.215
-0.235
-0.16
-0.215
-0.235
-0.225
-0.165
-0.325
-0.185
-0.215
-0.275
-0.285
-0.22
-0.29
-0.225
-0.205
-0.225
-0.08
-0.135
-0.005
0.075
0.18
0.165
0.015
0.03
0.02
0.06
0.035
0.0
-0.02
-0.055
-0.035
0.015
-0.05
-0.115
-0.115
-0.11
-0.09
-0.08
-0.1
-0.07
-0.14
-0.085
-0.065
-0.16
-0.09
-0.085
-0.07
-0.02
-0.15
-0.095
-0.01
-0.09
-0.035
0.025
0.095
0.22
0.24
0.1
0.105
0.01
-0.055
-0.06
-0.065
-0.08
-0.085
-0.115
-0.455
-0.725
-0.835
-0.18
2.195
2.935
1.605
0.975
0.07
-0.11
-0.135
-0.13
-0.175
-0.17
-0.15
-0.2
-0.135
-0.2
-0.145
-0.175
-0.18
-0.18
-0.205
-0.205
-0.2
-0.2
-0.23
-0.215
-0.195
-0.175
-0.155
-0.09
-0.015
0.04
0.105
0.17
0.145
0.125
0.145
0.065
0.04
0.07
0.035
0.015
0.03
0.015
-0.015
-0.02
-0.05
-0.07
-0.075
-0.065
-0.065
-0.105
-0.11
-0.075
-0.12
-0.06
-0.065
-0.065
-0.07
-0.08
-0.07
-0.05
-0.07
-0.05
-0.05
-0.02
0.01
0.085
0.11
0.25
0.245
0.17
0.105
0.015
-0.055
-0.03
-0.095
-0.06
-0.085
-0.095
-0.605
-0.785
-0.585
0.24
2.835
2.575
1.425
0.79
-0.035
-0.08
-0.125
-0.12
-0.14
-0.15
-0.145
-0.14
-0.15
-0.13
-0.165
-0.15
-0.175
-0.15
-0.21
-0.19
-0.2
-0.21
-0.22
-0.195
-0.185
-0.165
-0.1
-0.065
0.0
0.09
0.15
0.17
0.155
0.15
0.11
0.075
0.07
0.055
0.02
0.02
0.03
0.015
-0.005
-0.015
-0.045
-0.045
-0.075
-0.07
-0.09
-0.075
-0.085
-0.07
-0.08
-0.055
-0.08
-0.025
-0.08
-0.05
-0.065
-0.04
-0.075
-0.045
-0.06
-0.04
-0.055
0.015
0.06
0.125
0.195
0.26
0.165
0.14
0.05
-0.02
-0.075
-0.075
-0.125
-0.075
-0.135
-0.275
-0.735
-0.905
-0.345
1.395
3.095
1.825
1.225
0.41
-0.13
-0.105
-0.16
-0.14
-0.195
-0.17
-0.19
-0.15
-0.195
-0.165
-0.19
-0.18
-0.225
-0.19
-0.21
-0.21
-0.24
-0.215
-0.24
-0.19
-0.18
-0.14
-0.095
-0.005
0.055
0.125
0.17
0.185
0.155
0.14
0.095
0.07
0.035
0.025
0.0
0.0
-0.01
-0.01
-0.035
-0.035
-0.085
-0.09
-0.09
-0.095
-0.105
-0.11
-0.12
-0.085
-0.085
-0.09
-0.105
-0.07
-0.075
-0.06
-0.08
-0.065
-0.085
-0.04
-0.08
-0.05
-0.065
0.03
0.07
0.115
0.22
0.27
0.165
0.145
0.015
-0.025
-0.09
-0.06
-0.11
-0.07
-0.13
-0.25
-0.715
-0.905
-0.37
1.34
3.07
1.78
1.195
0.38
-0.125
-0.12
-0.195
-0.175
-0.2
-0.155
-0.185
-0.16
-0.18
-0.15
-0.195
-0.155
-0.215
-0.205
-0.235
-0.215
-0.255
-0.235
-0.25
-0.19
-0.24
-0.18
-0.125
-0.065
0.0
0.085
0.13
0.12
0.115
0.1
0.05
0.03
0.025
0.0
-0.025
-0.02
-0.02
-0.05
-0.085
-0.06
-0.105
-0.125
-0.125
-0.13
-0.14
-0.14
-0.14
-0.125
-0.14
-0.125
-0.125
-0.1
-0.11
-0.105
-0.095
-0.075
-0.135
-0.08
-0.085
-0.09
-0.075
-0.045
0.01
0.055
0.145
0.24
0.175
0.145
0.04
-0.04
-0.08
-0.085
-0.115
-0.105
-0.14
-0.115
-0.65
-0.84
-0.73
0.055
2.76
2.575
1.45
0.735
-0.08
-0.125
-0.21
-0.185
-0.205
-0.21
-0.215
-0.185
-0.21
-0.21
-0.215
-0.24
-0.245
-0.24
-0.24
-0.27
-0.245
-0.245
-0.27
-0.26
-0.2
-0.2
-0.145
-0.125
-0.06
0.025
0.1
0.14
0.085
0.115
0.07
0.055
0.01
-0.035
-0.025
0.015
-0.08
-0.08
-0.1
-0.095
-0.12
-0.125
-0.13
-0.18
-0.14
-0.13
-0.15
-0.145
-0.125
-0.13
-0.125
-0.125
-0.125
-0.09
-0.165
-0.095
-0.135
-0.095
-0.095
-0.105
-0.125
-0.095
-0.025
0.06
0.08
0.25
0.13
0.115
0.065
-0.075
-0.095
-0.125
-0.15
-0.1
-0.145
-0.2
-0.645
-0.9
-0.69
0.17
2.795
2.535
1.415
0.715
-0.115
-0.105
-0.17
-0.21
-0.22
-0.22
-0.13
-0.185
-0.26
-0.27
-0.195
-0.19
-0.28
-0.18
-0.255
-0.27
-0.26
-0.23
-0.265
-0.235
-0.29
-0.21
-0.17
-0.125
-0.055
0.04
0.08
0.15
0.085
0.125
0.065
-0.005
0.07
0.015
-0.03
0.0
-0.085
-0.025
-0.07
-0.055
-0.01
-0.215
-0.12
-0.09
-0.135
-0.19
-0.08
-0.135
-0.145
-0.185
-0.045
-0.095
-0.03
-0.15
-0.12
-0.035
-0.05
-0.15
-0.095
-0.005
-0.105
0.025
0.14
0.06
0.23
0.135
0.12
0.055
-0.03
-0.14
-0.055
-0.055
-0.12
-0.135
-0.2
-0.75
-0.895
-0.32
1.115
3.13
2.02
1.325
0.415
-0.18
-0.065
-0.17
-0.15
-0.17
-0.17
-0.15
-0.165
-0.135
-0.14
-0.22
-0.185
-0.14
-0.165
-0.215
-0.205
-0.19
-0.205
-0.195
-0.16
-0.195
-0.155
-0.1
-0.03
0.045
0.1
0.12
0.2
0.12
0.135
0.105
0.075
0.075
0.01
0.035
0.065
0.0
-0.015
-0.005
-0.035
-0.085
-0.005
-0.105
-0.09
-0.1
-0.08
-0.115
-0.11
-0.075
-0.075
-0.07
-0.07
-0.09
-0.045
-0.085
-0.085
-0.08
-0.06
-0.06
-0.025
0.025
0.09
0.15
0.22
0.17
0.13
0.07
0.0
-0.09
-0.06
-0.105
-0.07
-0.085
-0.195
-0.735
-0.905
-0.41
1.05
3.14
2.03
1.26
0.43
-0.135
-0.09
-0.175
-0.14
-0.18
-0.155
-0.195
-0.16
-0.175
-0.165
-0.205
-0.17
-0.19
-0.165
-0.21
-0.2
-0.225
-0.23
-0.23
-0.19
-0.185
-0.14
-0.12
-0.055
0.0
0.105
0.15
0.17
0.165
0.135
0.095
0.045
0.075
0.035
0.03
0.005
0.0
0.005
-0.02
-0.025
-0.06
-0.07
-0.065
-0.095
-0.105
-0.12
-0.095
-0.08
-0.035
-0.025
-0.06
-0.035
0.075
-0.205
-0.105
-0.09
-0.11
-0.08
-0.1
-0.115
-0.07
-0.1
-0.055
0.02
0.08
0.115
0.215
0.16
0.12
0.06
-0.025
-0.1
-0.07
-0.135
-0.1
-0.13
-0.195
-0.695
-0.88
-0.515
0.695
3.02
2.23
1.375
0.61
-0.11
-0.11
-0.175
-0.15
-0.2
-0.16
-0.17
-0.17
-0.175
-0.17
-0.21
-0.175
-0.23
-0.205
-0.24
-0.2
-0.235
-0.22
-0.23
-0.2
-0.195
-0.145
-0.095
-0.03
0.025
0.115
0.165
0.19
0.18
0.155
0.115
0.085
0.065
0.04
0.015
0.015
0.0
0.005
-0.015
0.0
-0.045
0.01
-0.075
-0.125
-0.025
-0.105
-0.135
-0.12
-0.1
-0.085
-0.09
-0.06
-0.08
-0.07
-0.07
-0.055
-0.065
-0.05
-0.07
-0.05
-0.065
-0.05
-0.055
0.035
0.08
0.105
0.24
0.25
0.15
0.135
0.0
-0.04
-0.08
-0.07
-0.08
-0.065
-0.12
-0.415
-0.73
-0.85
-0.235
2.09
2.96
1.615
1.1
0.18
-0.115
-0.105
-0.17
-0.17
-0.175
-0.15
-0.175
-0.155
-0.17
-0.165
-0.18
-0.17
-0.2
-0.185
-0.22
-0.21
-0.2
-0.215
-0.22
-0.19
-0.195
-0.12
-0.065
-0.01
0.05
0.14
0.175
0.185
0.18
0.16
0.09
0.06
0.04
0.025
0.005
0.02
-0.005
-0.01
-0.02
-0.05
-0.07
-0.08
-0.095
-0.11
-0.08
-0.105
-0.1
-0.1
-0.1
-0.1
-0.075
-0.1
-0.08
-0.08
-0.075
-0.085
-0.075
-0.085
-0.06
-0.08
-0.055
-0.075
0.0
0.04
0.105
0.19
0.275
0.17
0.14
0.015
-0.035
-0.1
-0.075
-0.14
-0.1
-0.15
-0.255
-0.73
-0.955
-0.5
0.985
3.02
1.995
1.29
0.415
-0.165
-0.13
-0.195
-0.16
-0.215
-0.195
-0.23
-0.17
-0.215
-0.195
-0.225
-0.205
-0.23
-0.22
-0.255
-0.24
-0.275
-0.26
-0.275
-0.26
-0.235
-0.195
-0.17
-0.1
-0.035
0.035
0.115
0.12
0.12
0.105
0.08
0.03
0.02
0.005
-0.01
0.0
-0.02
-0.045
-0.045
-0.055
-0.085
-0.095
-0.105
-0.1
-0.125
-0.12
-0.095
-0.11
-0.1
-0.09
-0.09
-0.095
-0.075
-0.085
-0.075
-0.065
-0.055
-0.075
-0.05
-0.065
-0.065
-0.07
-0.03
0.045
0.09
0.135
0.27
0.24
0.165
0.105
-0.02
-0.07
-0.095
-0.09
-0.1
-0.105
-0.13
-0.55
-0.79
-0.85
-0.2
2.38
2.735
1.53
0.895
0.0
-0.14
-0.17
-0.195
-0.195
-0.185
-0.205
-0.195
-0.19
-0.2
-0.2
-0.205
-0.21
-0.225
-0.24
-0.225
-0.23
-0.25
-0.255
-0.25
-0.24
-0.215
-0.175
-0.115
-0.055
0.02
0.095
0.13
0.125
0.13
0.105
0.08
0.05
0.03
0.005
0.0
0.0
0.0
-0.02
-0.055
-0.06
-0.085
-0.085
-0.12
-0.125
-0.11
-0.12
-0.115
-0.09
-0.115
-0.095
-0.095
-0.07
-0.08
-0.065
-0.09
-0.06
-0.08
-0.065
-0.075
-0.045
-0.075
-0.04
-0.07
0.015
0.07
0.115
0.23
0.27
0.18
0.145
0.0
-0.035
-0.085
-0.065
-0.12
-0.075
-0.13
-0.26
-0.73
-0.95
-0.465
1.135
3.035
1.945
1.285
0.35
-0.15
-0.12
-0.18
-0.155
-0.205
-0.16
-0.175
-0.14
-0.19
-0.165
-0.19
-0.165
-0.19
-0.18
-0.21
-0.2
-0.215
-0.215
-0.235
-0.21
-0.205
-0.165
-0.14
-0.055
-0.015
0.065
0.145
0.17
0.155
0.13
0.11
0.08
0.035
0.03
0.01
0.005
-0.015
-0.03
-0.05
-0.07
-0.1
-0.085
-0.125
-0.12
-0.13
-0.11
-0.11
-0.105
-0.11
-0.09
-0.095
-0.07
-0.11
-0.085
-0.085
-0.07
-0.08
-0.06
-0.075
-0.065
-0.09
-0.065
-0.065
0.0
0.055
0.1
0.21
0.25
0.16
0.13
-0.005
-0.045
-0.11
-0.065
-0.12
-0.08
-0.125
-0.305
-0.725
-0.955
-0.42
1.38
3.005
1.83
1.22
0.27
-0.165
-0.12
-0.2
-0.18
-0.21
-0.18
-0.215
-0.17
-0.2
-0.175
-0.21
-0.19
-0.24
-0.21
-0.25
-0.225
-0.255
-0.24
-0.26
-0.24
-0.23
-0.2
-0.145
-0.08
-0.02
0.055
0.12
0.14
0.125
0.115
0.085
0.05
0.03
0.01
0.0
-0.01
-0.025
-0.05
-0.045
-0.075
-0.11
-0.11
-0.11
-0.12
-0.13
-0.105
-0.11
-0.11
-0.115
-0.09
-0.11
-0.085
-0.115
-0.095
-0.105
-0.075
-0.11
-0.09
-0.11
-0.07
-0.1
-0.075
-0.1
-0.01
0.015
0.09
0.14
0.265
0.16
0.13
0.03
-0.06
-0.12
-0.095
-0.14
-0.1
-0.155
-0.205
-0.72
-0.935
-0.605
0.48
2.915
2.195
1.4
0.5
-0.165
-0.135
-0.19
-0.18
-0.22
-0.155
-0.185
-0.185
-0.215
-0.175
-0.19
-0.18
-0.245
-0.215
-0.24
-0.225
-0.255
-0.23
-0.26
-0.22
-0.24
-0.175
-0.15
-0.11
-0.05
0.03
0.095
0.12
0.12
0.135
0.08
0.055
0.04
0.03
0.005
0.005
0.0
-0.01
-0.04
-0.055
-0.07
-0.08
-0.09
-0.105
-0.1
-0.09
-0.095
-0.105
0.0
-0.115
-0.13
-0.1
-0.1
-0.08
-0.11
-0.07
-0.08
-0.065
-0.075
-0.04
-0.065
0.025
0.07
0.115
0.245
0.245
0.17
0.15
0.0
-0.03
-0.07
-0.055
-0.085
-0.07
-0.125
-0.41
-0.75
-0.905
-0.315
1.95
2.885
1.705
1.11
0.17
-0.035
-0.175
-0.195
-0.175
-0.19
-0.16
-0.17
-0.15
-0.17
-0.16
-0.185
-0.17
-0.2
-0.19
-0.225
-0.215
-0.23
-0.235
-0.24
-0.23
-0.22
-0.18
-0.145
-0.085
-0.015
0.07
0.115
0.135
0.14
0.115
0.08
0.05
0.025
0.015
-0.005
-0.025
-0.005
-0.06
-0.12
-0.09
-0.105
-0.115
-0.135
-0.105
-0.13
-0.145
-0.09
-0.12
-0.11
-0.14
-0.095
-0.095
-0.05
-0.13
-0.09
-0.095
-0.055
-0.045
-0.08
-0.1
-0.03
0.03
0.1
0.11
0.26
0.175
0.16
0.05
-0.025
-0.11
-0.085
-0.14
-0.09
-0.14
-0.19
-0.725
-0.92
-0.57
0.535
2.92
2.195
1.425
0.545
-0.15
-0.115
-0.185
-0.155
-0.195
-0.15
-0.18
-0.165
-0.205
-0.18
-0.21
-0.175
-0.205
-0.19
-0.23
-0.205
-0.225
-0.215
-0.245
-0.205
-0.22
-0.17
-0.13
-0.08
-0.02
0.06
0.12
0.17
0.155
0.165
0.12
0.145
0.115
0.06
0.025
0.045
0.1
-0.125
-0.11
-0.09
-0.11
-0.09
-0.16
-0.11
-0.155
-0.11
-0.125
-0.12
-0.095
-0.045
-0.065
-0.075
-0.12
-0.09
-0.11
-0.07
-0.115
-0.075
-0.09
-0.015
0.03
0.085
0.155
0.255
0.175
0.14
0.04
-0.025
-0.1
-0.06
-0.12
-0.08
-0.135
-0.21
-0.72
-0.935
-0.495
0.875
2.985
2.02
1.34
0.44
-0.145
-0.11
-0.19
-0.155
-0.195
-0.17
-0.205
-0.165
-0.205
-0.16
-0.205
-0.18
-0.21
-0.2
-0.235
-0.215
-0.235
-0.22
-0.24
-0.215
-0.21
-0.165
-0.14
-0.075
-0.02
0.055
0.145
0.16
0.11
0.105
0.075
0.035
0.02
0.015
-0.005
-0.025
-0.015
-0.045
-0.08
-0.085
-0.1
-0.115
-0.12
-0.11
-0.13
-0.105
-0.115
-0.1
-0.115
-0.08
-0.11
-0.085
-0.1
-0.07
-0.105
-0.06
-0.08
0.0
0.04
0.105
0.2
0.255
0.15
0.15
0.01
-0.035
-0.07
-0.075
-0.11
-0.085
-0.125
-0.315
-0.805
-1.04
-0.45
1.425
3.02
1.905
1.225
0.175
-0.165
-0.095
-0.175
-0.15
-0.19
-0.145
-0.175
-0.175
-0.205
-0.17
-0.205
-0.175
-0.21
-0.235
-0.245
-0.225
-0.255
-0.23
-0.28
-0.23
-0.27
-0.22
-0.19
-0.13
-0.075
-0.01
0.065
0.08
0.1
0.075
0.035
0.03
0.035
0.0
0.025
-0.02
-0.045
-0.045
-0.055
-0.075
-0.105
-0.095
-0.085
-0.09
-0.085
-0.1
-0.075
-0.08
-0.07
-0.07
-0.07
-0.07
-0.05
-0.065
-0.04
-0.055
0.015
0.08
0.13
0.225
0.265
0.18
0.16
0.02
-0.015
-0.05
-0.045
-0.075
-0.055
-0.105
-0.355
-0.755
-0.95
-0.36
1.69
2.995
1.835
1.19
0.165
-0.13
-0.095
-0.15
-0.14
-0.17
-0.15
-0.175
-0.145
-0.18
-0.165
-0.18
-0.16
-0.19
-0.185
-0.21
-0.185
-0.205
-0.195
-0.21
-0.215
-0.19
-0.155
-0.125
-0.075
-0.02
0.07
0.1
0.14
0.12
0.115
0.085
0.07
0.035
0.035
0.02
0.0
-0.01
-0.015
-0.045
-0.05
-0.075
-0.07
-0.1
-0.105
-0.095
-0.08
-0.1
-0.08
-0.095
-0.065
-0.08
-0.055
-0.075
-0.065
-0.105
-0.055
-0.08
0.015
0.06
0.11
0.205
0.28
0.175
0.15
0.025
-0.025
-0.095
-0.07
-0.11
-0.075
-0.135
-0.27
-0.72
-0.95
-0.44
1.225
3.015
1.855
1.225
0.31
-0.165
-0.115
-0.155
-0.135
-0.19
-0.14
-0.185
-0.155
-0.175
-0.145
-0.18
-0.16
-0.215
-0.18
-0.205
-0.2
-0.23
-0.21
-0.235
-0.21
-0.215
-0.16
-0.14
-0.06
0.0
0.075
0.13
0.16
0.14
0.11
0.09
0.06
0.025
0.025
0.01
0.005
-0.015
-0.025
-0.055
-0.06
-0.08
-0.09
-0.115
-0.11
-0.115
-0.1
-0.115
-0.09
-0.105
-0.07
-0.08
-0.065
-0.095
-0.065
-0.1
-0.06
-0.095
0.0
0.06
0.11
0.18
0.285
0.19
0.165
0.055
-0.005
-0.085
-0.05
-0.09
-0.075
-0.125
-0.15
-0.7
-0.905
-0.62
0.365
2.87
2.245
1.385
0.53
-0.14
-0.11
-0.17
-0.15
-0.19
-0.145
-0.175
-0.145
-0.17
-0.15
-0.19
-0.17
-0.19
-0.19
-0.215
-0.2
-0.23
-0.21
-0.25
-0.22
-0.205
-0.17
-0.155
-0.095
-0.045
0.025
0.09
0.125
0.125
0.11
0.08
0.065
0.025
0.015
0.005
-0.015
-0.015
-0.03
-0.055
-0.08
-0.08
-0.105
-0.1
-0.12
-0.11
-0.12
-0.1
-0.11
-0.09
-0.1
-0.085
-0.105
-0.075
-0.09
-0.065
-0.085
-0.055
-0.075
0.02
0.06
0.125
0.21
0.285
0.19
0.165
0.0
-0.035
-0.095
-0.065
-0.12
-0.075
-0.125
-0.255
-0.755
-0.98
-0.49
1.03
2.945
1.915
1.24
0.31
-0.15
-0.09
-0.15
-0.13
-0.165
-0.125
-0.165
-0.115
-0.155
-0.13
-0.165
-0.15
-0.185
-0.16
-0.195
-0.185
-0.205
-0.195
-0.22
-0.19
-0.195
-0.155
-0.13
-0.075
-0.02
0.065
0.14
0.15
0.145
0.125
0.095
0.07
0.04
0.025
0.005
0.0
-0.015
-0.05
-0.06
-0.075
-0.105
-0.11
-0.125
-0.11
-0.12
-0.125
-0.13
-0.115
-0.115
-0.085
-0.095
-0.075
-0.13
-0.085
-0.12
-0.075
-0.11
-0.07
-0.12
0.005
0.035
0.1
0.2
0.235
0.175
0.13
-0.005
-0.075
-0.115
-0.085
-0.13
-0.11
-0.165
-0.215
-0.78
-1.0
-0.6
0.63
2.95
2.155
1.32
0.36
-0.19
-0.125
-0.22
-0.165
-0.215
-0.165
-0.205
-0.17
-0.205
-0.165
-0.22
-0.17
-0.22
-0.215
-0.225
-0.25
-0.245
-0.245
-0.23
-0.245
-0.265
-0.195
-0.165
-0.125
-0.08
0.0
0.04
0.08
0.075
0.075
0.04
0.025
0.015
-0.005
-0.03
-0.05
0.0
-0.045
-0.105
-0.11
-0.115
-0.12
-0.14
-0.14
-0.135
-0.095
-0.165
-0.13
-0.085
-0.12
-0.15
-0.11
-0.105
-0.09
-0.14
-0.12
-0.145
-0.1
-0.1
-0.07
-0.025
0.05
0.075
0.205
0.135
0.095
-0.01
-0.06
-0.14
-0.1
-0.13
-0.165
-0.175
-0.16
-0.745
-0.91
-0.69
0.05
2.76
2.515
1.495
0.58
-0.215
-0.14
-0.22
-0.205
-0.175
-0.185
-0.255
-0.21
-0.235
-0.205
-0.21
-0.26
-0.2
-0.195
-0.305
-0.265
-0.225
-0.245
-0.265
-0.275
-0.23
-0.195
-0.175
-0.245
-0.11
0.01
0.0
0.065
0.05
0.115
0.015
0.045
-0.04
0.055
-0.04
-0.06
-0.065
-0.06
-0.065
-0.105
-0.115
-0.08
-0.095
-0.165
-0.065
-0.17
-0.11
-0.125
-0.115
-0.155
-0.09
-0.15
-0.1
-0.075
-0.145
-0.09
-0.07
-0.065
-0.125
0.01
0.045
0.06
0.195
0.185
0.125
0.11
-0.015
-0.105
-0.055
-0.105
-0.135
-0.085
-0.1
-0.53
-0.765
-0.89
-0.22
2.235
2.865
1.585
0.93
0.005
-0.125
-0.135
-0.175
-0.16
-0.18
-0.15
-0.17
-0.17
-0.21
-0.16
-0.22
-0.185
-0.22
-0.195
-0.235
-0.22
-0.24
-0.205
-0.225
-0.03
-0.11
-0.095
-0.135
0.435
0.13
0.33
0.54
-0.34
0.01
-0.06
-0.035
-0.02
-0.055
-0.01
-0.08
-0.055
-0.065
-0.08
-0.08
-0.115
-0.115
-0.125
-0.125
-0.125
-0.135
-0.13
-0.14
-0.12
-0.115
-0.12
-0.13
-0.105
-0.11
-0.085
-0.11
-0.09
-0.095
-0.085
-0.11
-0.055
0.02
0.085
0.125
0.23
0.17
0.13
0.05
-0.03
-0.125
-0.075
-0.14
-0.09
-0.15
-0.235
-0.695
-0.885
-0.335
1.15
2.96
1.88
1.29
0.545
-0.1
-0.09
-0.155
-0.14
-0.19
-0.15
-0.185
-0.17
-0.2
-0.16
-0.2
-0.185
-0.2
-0.2
-0.23
-0.205
-0.24
-0.21
-0.23
-0.21
-0.19
-0.135
-0.1
-0.025
0.045
0.13
0.175
0.185
0.165
0.13
0.085
0.055
0.05
0.01
-0.01
-0.015
-0.04
-0.04
-0.055
-0.07
-0.095
-0.11
-0.11
-0.14
-0.11
-0.125
-0.115
-0.105
-0.1
-0.11
-0.09
-0.105
-0.07
-0.105
-0.07
-0.105
-0.075
-0.1
-0.06
-0.085
-0.025
0.055
0.085
0.155
0.245
0.165
0.13
0.05
-0.02
-0.1
-0.075
-0.125
-0.09
-0.145
-0.28
-0.695
-0.885
-0.29
1.48
2.99
1.73
1.22
0.38
-0.135
-0.12
-0.19
-0.16
-0.21
-0.15
-0.195
-0.17
-0.195
-0.17
-0.21
-0.175
-0.215
-0.19
-0.205
-0.225
-0.24
-0.22
-0.235
-0.205
-0.195
-0.155
-0.11
-0.03
0.045
0.145
0.18
0.195
0.16
0.13
0.08
0.045
0.01
-0.005
-0.025
-0.02
-0.03
-0.065
-0.055
-0.08
-0.085
-0.1
-0.095
-0.11
-0.105
-0.115
-0.095
-0.105
-0.11
-0.11
-0.105
-0.105
-0.095
-0.115
-0.09
-0.105
-0.085
-0.11
-0.075
-0.095
-0.085
-0.11
-0.075
0.0
0.08
0.07
0.225
0.185
0.135
0.065
-0.01
-0.12
-0.1
-0.15
-0.11
-0.15
-0.16
-0.66
-0.855
-0.645
0.09
2.71
2.305
1.42
0.73
-0.05
-0.095
-0.175
-0.14
-0.185
-0.17
-0.205
-0.17
-0.195
-0.165
-0.19
-0.18
-0.205
-0.19
-0.215
-0.21
-0.22
-0.205
-0.235
-0.225
-0.215
-0.185
-0.12
-0.065
0.0
0.085
0.16
0.195
0.185
0.145
0.11
0.085
0.035
0.02
0.0
-0.01
-0.04
-0.045
-0.065
-0.07
-0.085
-0.085
-0.105
-0.115
-0.105
-0.1
-0.095
-0.085
-0.1
-0.085
-0.095
-0.08
-0.085
-0.07
-0.095
-0.08
-0.085
-0.07
-0.095
-0.06
-0.09
-0.06
-0.065
-0.05
-0.085
-0.04
0.015
0.09
0.1
0.26
0.205
0.15
0.065
-0.015
-0.105
-0.07
-0.12
-0.105
-0.14
-0.195
-0.71
-0.93
-0.485
0.725
3.005
2.08
1.345
0.56
-0.13
-0.095
-0.17
-0.155
-0.195
-0.165
-0.215
-0.16
-0.2
-0.185
-0.205
-0.165
-0.225
-0.195
-0.22
-0.215
-0.24
-0.215
-0.245
-0.23
-0.22
-0.195
-0.17
-0.1
-0.035
0.06
0.125
0.16
0.165
0.145
0.115
0.07
0.035
0.015
-0.005
-0.01
-0.04
-0.055
-0.065
-0.085
-0.1
-0.11
-0.105
-0.115
-0.115
-0.115
-0.105
-0.115
-0.105
-0.105
-0.11
-0.11
-0.1
-0.095
-0.1
-0.095
-0.09
-0.1
-0.1
-0.09
-0.09
-0.095
-0.08
-0.085
-0.08
-0.085
-0.03
0.05
0.07
0.2
0.215
0.13
0.1
-0.005
-0.085
-0.095
-0.115
-0.12
-0.12
-0.14
-0.53
-0.8
-0.815
-0.09
2.415
2.745
1.52
0.915
0.035
-0.12
-0.13
-0.15
-0.165
-0.185
-0.17
-0.19
-0.195
-0.18
-0.19
-0.19
-0.195
-0.225
-0.205
-0.215
-0.225
-0.25
-0.235
-0.23
-0.23
-0.225
-0.185
-0.135
-0.08
0.0
0.08
0.155
0.175
0.155
0.125
0.1
0.075
0.045
0.015
-0.005
-0.025
-0.03
-0.04
-0.065
-0.065
-0.085
-0.075
-0.085
-0.08
-0.08
-0.085
-0.075
-0.075
-0.07
-0.075
-0.08
-0.065
-0.075
-0.055
-0.075
-0.065
-0.07
-0.065
-0.07
-0.065
-0.08
-0.06
-0.075
-0.055
-0.075
-0.055
0.0
0.09
0.075
0.26
0.245
0.17
0.12
0.02
-0.08
-0.07
-0.1
-0.08
-0.1
-0.12
-0.59
-0.82
-0.625
0.21
2.745
2.465
1.425
0.755
-0.03
-0.095
-0.155
-0.145
-0.185
-0.16
-0.18
-0.16
-0.17
-0.165
-0.2
-0.165
-0.18
-0.175
-0.2
-0.205
-0.23
-0.22
-0.23
-0.24
-0.23
-0.21
-0.175
-0.145
-0.08
-0.005
0.095
0.15
0.16
0.16
0.12
0.085
0.05
0.04
0.02
0.01
-0.03
-0.04
-0.04
-0.055
-0.08
-0.07
-0.085
-0.085
-0.08
-0.085
-0.075
-0.085
-0.085
-0.085
-0.075
-0.075
-0.065
-0.09
-0.075
-0.075
-0.075
-0.075
-0.065
-0.075
-0.08
-0.07
-0.08
-0.07
-0.07
-0.08
-0.035
0.055
0.08
0.205
0.26
0.18
0.145
0.035
-0.05
-0.09
-0.08
-0.085
-0.09
-0.105
-0.48
-0.775
-0.855
-0.265
2.175
2.805
1.535
0.98
0.1
-0.095
-0.105
-0.14
-0.135
-0.16
-0.145
-0.155
-0.16
-0.165
-0.16
-0.16
-0.165
-0.175
-0.175
-0.19
-0.19
-0.2
-0.2
-0.215
-0.215
-0.185
-0.165
-0.12
-0.06
0.005
0.105
0.15
0.18
0.17
0.14
0.11
0.07
0.035
0.015
0.0
-0.01
-0.025
-0.04
-0.05
-0.06
-0.08
-0.07
-0.065
-0.065
-0.08
-0.075
-0.09
-0.075
-0.065
-0.07
-0.09
-0.06
-0.075
-0.065
-0.085
-0.065
-0.085
-0.055
-0.075
-0.055
-0.085
-0.045
-0.09
-0.065
-0.08
-0.03
0.02
0.11
0.11
0.27
0.185
0.16
0.08
-0.02
-0.1
-0.065
-0.135
-0.08
-0.14
-0.23
-0.74
-0.955
-0.44
0.88
3.02
1.87
1.27
0.44
-0.115
-0.085
-0.165
-0.13
-0.19
-0.13
-0.18
-0.135
-0.185
-0.145
-0.18
-0.145
-0.185
-0.155
-0.185
-0.18
-0.215
-0.2
-0.23
-0.205
-0.215
-0.18
-0.16
-0.11
-0.06
0.03
0.095
0.16
0.15
0.135
0.105
0.08
0.045
0.01
0.0
-0.02
-0.035
-0.04
-0.055
-0.07
-0.08
-0.085
-0.075
-0.095
-0.075
-0.09
-0.085
-0.095
-0.08
-0.085
-0.07
-0.09
-0.075
-0.095
-0.085
-0.085
-0.07
-0.08
-0.07
-0.085
-0.07
-0.08
-0.06
-0.07
-0.06
-0.075
-0.015
0.06
0.09
0.205
0.265
0.18
0.155
0.045
-0.04
-0.085
-0.08
-0.095
-0.08
-0.135
-0.415
-0.775
-0.91
-0.31
1.905
2.905
1.58
1.035
0.145
-0.115
-0.105
-0.16
-0.14
-0.185
-0.15
-0.175
-0.16
-0.17
-0.16
-0.18
-0.155
-0.18
-0.18
-0.2
-0.185
-0.205
-0.2
-0.205
-0.21
-0.205
-0.17
-0.15
-0.085
-0.035
0.065
0.125
0.16
0.15
0.145
0.095
0.08
0.04
0.025
0.01
-0.01
-0.015
-0.035
-0.05
-0.065
-0.065
-0.07
-0.085
-0.075
-0.09
-0.075
-0.09
-0.07
-0.085
-0.065
-0.095
-0.065
-0.08
-0.07
-0.075
-0.06
-0.085
-0.065
-0.085
-0.06
-0.08
-0.055
-0.095
-0.06
-0.095
-0.04
0.005
0.085
0.08
0.27
0.21
0.17
0.085
0.0
-0.105
-0.07
-0.125
-0.075
-0.13
-0.175
-0.72
-0.905
-0.555
0.375
2.9
2.14
1.335
0.57
-0.115
-0.085
-0.17
-0.145
-0.195
-0.155
-0.2
-0.15
-0.175
-0.155
-0.2
-0.165
-0.195
-0.18
-0.205
-0.185
-0.22
-0.2
-0.23
-0.215
-0.225
-0.185
-0.18
-0.115
-0.065
0.025
0.08
0.145
0.155
0.145
0.095
0.085
0.035
0.015
-0.005
-0.01
-0.03
-0.045
-0.065
-0.07
-0.075
-0.075
-0.085
-0.09
-0.095
-0.1
-0.095
-0.095
-0.08
-0.09
-0.07
-0.09
-0.07
-0.08
-0.06
-0.075
-0.06
-0.085
-0.06
-0.1
-0.06
-0.09
-0.055
-0.09
-0.055
-0.09
-0.045
0.015
0.09
0.105
0.265
0.205
0.175
0.08
-0.02
-0.1
-0.07
-0.13
-0.08
-0.125
-0.195
-0.725
-0.92
-0.47
0.64
2.99
2.005
1.315
0.525
-0.1
-0.075
-0.16
-0.125
-0.18
-0.135
-0.175
-0.13
-0.18
-0.15
-0.185
-0.155
-0.195
-0.175
-0.205
-0.18
-0.225
-0.2
-0.235
-0.21
-0.22
-0.2
-0.18
-0.13
-0.065
0.02
0.1
0.15
0.15
0.13
0.105
0.08
0.04
0.01
-0.005
-0.02
-0.03
-0.045
-0.045
-0.065
-0.065
-0.06
-0.07
-0.09
-0.08
-0.075
-0.08
-0.08
-0.065
-0.07
-0.065
-0.065
-0.065
-0.07
-0.065
-0.07
-0.065
-0.075
-0.07
-0.06
-0.075
-0.07
-0.075
-0.055
-0.07
-0.06
-0.055
0.0
0.07
0.105
0.24
0.27
0.2
0.15
0.035
-0.03
-0.065
-0.07
-0.08
-0.08
-0.105
-0.475
-0.765
-0.845
-0.255
2.155
2.83
1.545
0.965
0.08
-0.08
-0.105
-0.13
-0.145
-0.15
-0.135
-0.14
-0.145
-0.16
-0.14
-0.17
-0.155
-0.16
-0.165
-0.165
-0.175
-0.185
-0.18
-0.185
-0.185
-0.19
-0.155
-0.12
-0.06
0.01
0.085
0.15
0.195
0.18
0.15
0.105
0.08
0.055
0.04
0.015
-0.01
-0.015
-0.02
-0.025
-0.04
-0.04
-0.06
-0.06
-0.065
-0.055
-0.085
-0.06
-0.07
-0.055
-0.06
-0.07
-0.075
-0.055
-0.07
-0.06
-0.07
-0.065
-0.085
-0.055
-0.075
-0.05
-0.075
-0.05
-0.075
-0.05
-0.07
-0.015
0.05
0.11
0.17
0.285
0.19
0.165
0.05
-0.025
-0.095
-0.06
-0.11
-0.085
-0.13
-0.32
-0.745
-0.915
-0.275
1.645
3.05
1.7
1.115
0.235
-0.13
-0.1
-0.17
-0.145
-0.18
-0.145
-0.185
-0.16
-0.185
-0.16
-0.185
-0.155
-0.195
-0.175
-0.195
-0.195
-0.23
-0.19
-0.22
-0.205
-0.225
-0.175
-0.18
-0.11
-0.045
0.04
0.09
0.145
0.145
0.125
0.105
0.075
0.03
0.02
0.0
-0.01
-0.02
-0.04
-0.05
-0.055
-0.07
-0.065
-0.08
-0.07
-0.085
-0.08
-0.08
-0.08
-0.08
-0.065
-0.075
-0.075
-0.085
-0.065
-0.07
-0.065
-0.075
-0.06
-0.065
-0.055
-0.08
-0.045
-0.07
-0.055
-0.08
-0.04
0.0
0.08
0.09
0.27
0.225
0.175
0.11
0.0
-0.09
-0.065
-0.115
-0.075
-0.13
-0.125
-0.655
-0.865
-0.59
0.295
2.845
2.375
1.395
0.68
-0.08
-0.08
-0.15
-0.135
-0.165
-0.15
-0.175
-0.15
-0.185
-0.165
-0.19
-0.175
-0.2
-0.175
-0.21
-0.19
-0.21
-0.2
-0.215
-0.205
-0.225
-0.195
-0.18
-0.14
-0.08
-0.005
0.07
0.12
0.155
0.15
0.11
0.075
0.035
0.03
0.005
0.0
-0.025
-0.025
-0.045
-0.05
-0.08
-0.07
-0.085
-0.1
-0.1
-0.085
-0.09
-0.07
-0.075
-0.08
-0.08
-0.07
-0.085
-0.065
-0.08
-0.06
-0.08
-0.065
-0.095
-0.055
-0.09
-0.055
-0.095
-0.065
-0.09
-0.035
0.0
0.085
0.11
0.255
0.19
0.17
0.075
-0.02
-0.095
-0.07
-0.13
-0.07
-0.135
-0.175
-0.73
-0.935
-0.48
0.64
3.0
2.125
1.305
0.475
-0.155
-0.1
-0.17
-0.14
-0.195
-0.155
-0.205
-0.15
-0.2
-0.15
-0.19
-0.165
-0.2
-0.175
-0.205
-0.19
-0.21
-0.2
-0.22
-0.19
-0.21
-0.175
-0.165
-0.11
-0.065
0.005
0.075
0.15
0.155
0.145
0.115
0.09
0.045
0.05
0.005
0.0
-0.045
-0.025
-0.025
-0.05
-0.045
-0.07
-0.055
-0.08
-0.06
-0.06
-0.06
-0.055
-0.04
-0.055
-0.03
-0.05
-0.035
-0.035
-0.015
-0.03
0.0
-0.01
0.005
-0.02
0.015
-0.03
0.015
0.03
0.115
0.15
0.275
0.19
0.26
0.135
-0.01
-0.005
-0.01
-0.085
0.02
-0.04
-0.14
-0.7
-0.94
-0.33
1.23
3.215
2.01
1.22
0.27
-0.13
-0.065
-0.14
-0.1
-0.15
-0.115
-0.145
-0.1
-0.165
-0.155
-0.19
-0.365
-0.31
-0.285
-0.165
-0.09
-0.11
-0.06
-0.14
-0.085
-0.15
-0.07
-0.14
-0.06
-0.05
-0.035
-0.005
0.06
0.08
0.0
0.015
-0.06
-0.035
-0.09
-0.125
-0.025
0.095
0.14
0.08
0.1
0.045
0.02
-0.055
-0.075
-0.09
-0.155
-0.06
-0.06
-0.15
-0.215
-0.315
-0.215
-0.19
-0.21
-0.075
0.095
0.11
0.04
0.035
0.085
0.12
0.095
0.17
0.255
0.175
0.125
0.05
-0.09
-0.165
-0.17
-0.29
-0.235
-0.11
-0.24
-0.74
-0.9
-0.455
1.045
3.045
1.985
1.275
0.37
-0.26
-0.155
-0.235
-0.195
-0.25
-0.215
-0.25
-0.195
-0.26
-0.185
-0.22
-0.19
-0.26
-0.215
-0.275
-0.205
-0.295
-0.22
-0.285
-0.235
-0.255
-0.245
-0.185
-0.17
-0.11
-0.045
0.03
0.03
0.075
0.03
0.035
-0.02
-0.005
-0.075
-0.045
-0.085
-0.05
-0.05
-0.06
-0.155
-0.165
-0.075
-0.14
-0.115
-0.115
-0.115
-0.12
-0.09
-0.095
-0.02
-0.02
-0.005
-0.025
-0.02
-0.03
0.065
0.09
0.14
0.235
0.275
0.23
0.18
0.16
0.04
0.33
0.21
0.055
0.165
-0.36
-0.245
-0.44
-0.49
-0.895
0.85
2.905
1.97
1.085
0.215
-0.445
-0.18
-0.69
-0.48
-0.525
-0.555
-0.5
-0.48
-0.405
-0.31
-0.03
0.055
0.11
-0.685
-0.325
-0.29
-0.17
-0.155
-0.065
-0.22
0.1
-0.175
-0.025
-0.045
-0.05
0.07
0.015
0.08
0.05
0.025
0.0
0.045
-0.005
-0.04
-0.055
-0.025
-0.06
-0.035
-0.085
-0.035
-0.085
-0.045
-0.06
-0.04
-0.07
-0.035
-0.055
-0.025
-0.05
-0.01
-0.095
-0.035
0.025
0.11
0.21
0.175
0.175
0.3
-0.02
-0.1
-0.135
-0.06
-0.13
-0.07
-0.13
-0.18
-0.735
-0.965
-0.575
0.48
2.99
2.345
1.34
0.355
-0.215
-0.13
-0.16
-0.135
-0.175
-0.145
-0.2
-0.13
-0.2
-0.145
-0.19
-0.15
-0.19
-0.14
-0.21
-0.175
-0.225
-0.185
-0.235
-0.195
-0.22
-0.13
-0.05
-0.1
0.35
0.035
0.185
-0.105
0.14
0.64
-0.435
-0.155
-0.075
-0.06
-0.09
-0.15
-0.12
-0.21
-0.21
-0.26
-0.175
-0.245
-0.175
-0.235
-0.165
-0.21
-0.115
-0.155
-0.05
-0.075
0.02
-0.01
0.025
0.07
0.12
0.135
0.265
0.3
0.21
0.18
0.05
-0.005
-0.065
-0.055
-0.085
-0.095
-0.125
-0.49
-0.74
-0.725
0.0
2.44
2.685
1.515
0.9
0.06
-0.115
-0.14
-0.18
-0.17
-0.185
-0.185
-0.18
-0.18
-0.18
-0.18
-0.185
-0.19
-0.19
-0.2
-0.185
-0.2
-0.205
-0.185
-0.17
-0.155
-0.105
-0.07
-0.015
0.07
0.12
0.19
0.17
0.16
0.11
0.09
0.045
0.03
0.0
0.0
-0.025
0.005
-0.035
-0.03
-0.04
-0.035
-0.065
-0.05
-0.11
-0.07
-0.1
-0.035
-0.065
-0.055
-0.03
-0.05
0.345
-0.06
0.15
0.135
0.55
0.16
0.24
0.51
-0.165
-0.205
-0.115
-0.095
-0.095
-0.09
-0.14
-0.58
-0.82
-0.775
-0.065
2.565
2.61
1.465
0.725
-0.09
-0.135
-0.16
-0.16
-0.19
-0.16
-0.175
-0.16
-0.175
-0.165
-0.17
-0.165
-0.175
-0.18
-0.19
-0.195
-0.19
-0.2
-0.2
-0.175
-0.165
-0.14
-0.095
-0.055
0.005
0.065
0.115
0.12
0.115
0.085
0.045
0.025
0.01
-0.01
-0.01
-0.02
-0.005
-0.045
-0.055
-0.085
-0.085
-0.085
-0.09
-0.12
-0.12
-0.14
-0.115
-0.11
-0.11
-0.105
-0.085
-0.09
0.015
0.04
0.085
0.17
0.235
0.14
0.11
-0.025
-0.065
-0.125
-0.09
-0.155
-0.105
-0.165
-0.39
-0.81
-1.005
-0.44
1.515
3.035
1.77
1.095
0.13
-0.2
-0.135
-0.215
-0.17
-0.2
-0.185
-0.215
-0.19
-0.185
-0.19
-0.215
-0.195
-0.25
-0.22
-0.23
-0.205
-0.24
-0.22
-0.215
-0.185
-0.18
-0.125
-0.09
-0.03
0.01
0.085
0.105
0.095
0.1
0.085
0.02
0.015
0.0
0.0
-0.005
0.0
-0.035
-0.03
-0.045
-0.05
-0.085
-0.09
-0.115
-0.095
-0.13
-0.11
-0.13
-0.08
-0.09
-0.09
-0.1
0.01
0.025
0.085
0.2
0.26
0.18
0.135
0.0
-0.035
-0.085
-0.065
-0.13
-0.075
-0.13
-0.325
-0.75
-0.98
-0.435
1.35
2.995
1.805
1.155
0.205
-0.18
-0.125
-0.18
-0.135
-0.185
-0.155
-0.18
-0.14
-0.19
-0.15
-0.18
-0.17
-0.2
-0.185
-0.215
-0.2
-0.225
-0.21
-0.225
-0.2
-0.18
-0.125
-0.105
-0.035
0.0
0.07
0.1
0.105
0.085
0.065
0.03
0.02
0.0
-0.015
-0.02
-0.03
-0.045
-0.04
-0.055
-0.06
-0.095
-0.09
-0.13
-0.115
-0.13
-0.105
-0.115
-0.09
-0.11
-0.08
-0.1
-0.08
-0.09
-0.035
0.025
0.07
0.135
0.235
0.175
0.145
0.065
-0.025
-0.095
-0.065
-0.115
-0.08
-0.135
-0.145
-0.66
-0.86
-0.66
0.225
2.785
2.39
1.43
0.67
-0.09
-0.09
-0.17
-0.16
-0.2
-0.17
-0.175
-0.155
-0.17
-0.165
-0.18
-0.175
-0.195
-0.19
-0.215
-0.2
-0.205
-0.215
-0.23
-0.18
-0.16
-0.12
-0.07
-0.015
0.035
0.115
0.15
0.155
0.115
0.095
0.065
0.035
0.015
0.015
-0.01
-0.015
-0.025
-0.04
-0.05
-0.06
-0.08
-0.095
-0.11
-0.105
-0.12
-0.11
-0.125
-0.09
-0.105
-0.075
-0.09
-0.065
-0.085
-0.06
-0.075
0.04
0.05
0.1
0.22
0.265
0.165
0.14
0.005
-0.025
-0.085
-0.05
-0.095
-0.065
-0.13
-0.305
-0.74
-0.965
-0.415
1.45
3.025
1.765
1.135
0.195
-0.14
-0.115
-0.17
-0.14
-0.175
-0.135
-0.175
-0.145
-0.18
-0.14
-0.175
-0.15
-0.195
-0.18
-0.21
-0.185
-0.22
-0.195
-0.2
-0.165
-0.165
-0.12
-0.095
-0.02
0.04
0.105
0.135
0.135
0.1
0.085
0.045
0.04
0.015
0.0
-0.005
-0.015
-0.015
-0.035
-0.055
-0.085
-0.055
-0.085
-0.085
-0.125
-0.1
-0.11
-0.1
-0.085
-0.085
-0.095
-0.06
-0.09
-0.055
-0.07
-0.05
-0.055
0.005
0.035
0.085
0.16
0.26
0.17
0.14
0.035
-0.025
-0.08
-0.05
-0.125
-0.085
-0.1
-0.15
-0.675
-0.88
-0.65
0.325
2.87
2.305
1.39
0.53
-0.14
-0.11
-0.155
-0.13
-0.18
-0.135
-0.18
-0.15
-0.19
-0.155
-0.18
-0.18
-0.19
-0.185
-0.195
-0.195
-0.22
-0.215
-0.22
-0.21
-0.2
-0.15
-0.12
-0.045
0.0
0.07
0.095
0.13
0.12
0.08
0.045
0.035
0.015
0.0
-0.015
-0.015
-0.04
-0.035
-0.055
-0.055
-0.08
-0.09
-0.11
-0.1
-0.13
-0.11
-0.125
-0.105
-0.11
-0.09
-0.105
-0.09
-0.11
-0.08
-0.09
-0.06
-0.08
0.01
0.05
0.095
0.205
0.26
0.165
0.125
-0.005
-0.03
-0.09
-0.075
-0.105
-0.07
-0.115
-0.325
-0.745
-0.97
-0.425
1.43
3.015
1.825
1.175
0.21
-0.145
-0.105
-0.17
-0.14
-0.18
-0.14
-0.2
-0.14
-0.165
-0.155
-0.19
-0.165
-0.2
-0.18
-0.215
-0.195
-0.215
-0.2
-0.225
-0.19
-0.185
-0.145
-0.1
-0.04
0.015
0.095
0.12
0.115
0.095
0.08
0.06
0.045
0.025
0.005
-0.015
-0.02
-0.03
-0.04
-0.04
-0.07
-0.085
-0.095
-0.085
-0.095
-0.095
-0.11
-0.075
-0.09
-0.08
-0.09
-0.06
-0.07
-0.05
-0.075
-0.05
-0.1
-0.055
-0.085
0.01
0.055
0.105
0.17
0.26
0.175
0.155
0.055
0.0
-0.09
-0.06
-0.115
-0.085
-0.115
-0.175
-0.71
-0.915
-0.55
0.615
2.955
2.115
1.32
0.455
-0.135
-0.095
-0.16
-0.14
-0.17
-0.14
-0.185
-0.145
-0.18
-0.145
-0.185
-0.155
-0.195
-0.18
-0.22
-0.195
-0.22
-0.21
-0.22
-0.195
-0.19
-0.155
-0.11
-0.055
-0.01
0.06
0.105
0.115
0.09
0.065
0.045
0.03
-0.005
-0.02
-0.02
-0.04
-0.075
-0.035
-0.055
-0.09
-0.115
-0.12
-0.115
-0.12
-0.135
-0.12
-0.105
-0.145
-0.11
-0.125
-0.095
-0.11
-0.09
-0.13
-0.115
-0.13
-0.075
-0.105
-0.075
-0.03
0.045
0.1
0.205
0.145
0.1
0.06
-0.105
-0.13
-0.09
-0.145
-0.1
-0.145
-0.19
-0.655
-0.895
-0.795
0.035
2.68
2.56
1.455
0.65
-0.095
-0.16
-0.19
-0.175
-0.2
-0.16
-0.205
-0.175
-0.245
-0.195
-0.21
-0.185
-0.21
-0.235
-0.22
-0.295
-0.21
-0.265
-0.26
-0.235
-0.24
-0.18
-0.175
-0.11
-0.06
-0.015
0.035
0.095
0.045
0.02
0.02
-0.035
0.005
-0.025
-0.09
-0.08
-0.07
-0.045
-0.16
-0.13
-0.15
-0.19
-0.16
-0.12
-0.15
-0.175
-0.195
-0.16
-0.15
-0.135
-0.205
-0.135
-0.065
-0.205
-0.095
-0.16
-0.115
-0.17
-0.045
-0.01
0.105
0.2
0.105
0.06
0.055
-0.09
-0.135
-0.1
-0.105
-0.095
-0.22
-0.16
-0.53
-0.825
-0.825
-0.215
2.355
2.825
1.475
0.905
-0.035
-0.12
-0.15
-0.23
-0.215
-0.195
-0.195
-0.13
-0.26
-0.235
-0.19
-0.195
-0.17
-0.305
-0.155
-0.24
-0.185
-0.295
-0.21
-0.21
-0.215
-0.185
-0.12
-0.065
-0.045
0.06
0.025
0.13
0.05
0.1
0.045
0.025
-0.01
0.045
-0.025
-0.03
-0.04
-0.04
-0.08
-0.055
-0.07
-0.065
-0.035
-0.085
-0.07
-0.09
-0.1
-0.105
-0.095
-0.11
-0.095
-0.105
-0.075
-0.08
-0.075
-0.065
-0.085
0.01
0.07
0.08
0.205
0.22
0.165
0.13
0.02
-0.02
-0.04
-0.065
-0.055
-0.07
-0.07
-0.465
-0.705
-0.68
0.08
2.42
2.77
1.44
0.99
0.125
-0.07
-0.095
-0.105
-0.115
-0.095
-0.12
-0.1
-0.14
-0.11
-0.14
-0.165
-0.16
-0.325
-0.215
-0.295
-0.365
-0.43
-0.35
-0.31
-0.27
-0.29
-0.245
-0.2
-0.335
0.075
0.075
0.075
0.24
-0.045
-0.08
-0.045
0.17
-0.01
-0.175
-0.07
0.035
-0.14
-0.095
-0.13
-0.205
-0.115
-0.115
-0.04
-0.065
-0.165
-0.165
-0.11
-0.095
-0.09
-0.1
-0.075
-0.045
-0.1
-0.065
-0.055
-0.055
0.0
0.085
0.085
0.26
0.22
0.16
0.1
0.0
-0.1
-0.055
-0.115
-0.075
-0.125
-0.165
-0.655
-0.85
-0.435
0.64
2.855
2.045
1.28
0.685
-0.09
-0.07
-0.16
-0.15
-0.185
-0.165
-0.195
-0.185
-0.21
-0.18
-0.21
-0.185
-0.21
-0.22
-0.215
-0.21
-0.23
-0.205
-0.225
-0.21
-0.185
-0.135
-0.075
-0.015
0.06
0.14
0.205
0.195
0.16
0.135
0.085
0.075
0.04
0.02
0.005
0.01
0.0
-0.015
-0.01
-0.025
-0.035
-0.025
-0.045
-0.04
-0.06
-0.03
-0.05
-0.03
-0.045
-0.005
-0.045
-0.01
-0.02
0.0
0.01
-0.045
-0.08
-0.095
0.045
0.015
-0.025
0.24
0.095
0.015
0.02
-0.37
-0.08
-0.325
-0.135
-0.32
-0.185
0.075
-0.655
-0.905
-0.925
-0.185
2.14
2.39
1.405
0.975
-0.015
-0.135
-0.205
-0.105
-0.15
-0.15
-0.015
-0.285
-0.04
-0.135
-0.1
-0.08
-0.1
-0.1
-0.095
-0.105
-0.17
-0.145
-0.125
-0.09
-0.145
-0.185
0.015
0.02
0.0
0.095
0.225
0.33
0.2
0.22
0.065
0.08
0.0
0.2
0.185
0.11
-0.185
-0.215
-0.14
-0.125
-0.075
-0.18
-0.16
-0.17
-0.13
-0.135
-0.15
-0.135
-0.135
-0.13
-0.12
-0.11
-0.115
-0.09
-0.105
-0.11
-0.105
-0.085
-0.1
-0.085
0.0
0.065
0.06
0.23
0.195
0.15
0.09
0.005
-0.09
-0.085
-0.125
-0.11
-0.145
-0.14
-0.615
-0.83
-0.58
0.19
2.68
2.195
1.265
0.715
-0.055
-0.1
-0.17
-0.125
-0.18
-0.145
-0.15
-0.155
-0.17
-0.15
-0.16
-0.165
-0.195
-0.19
-0.175
-0.165
-0.205
-0.185
-0.225
-0.225
-0.18
-0.145
-0.12
-0.035
0.035
0.13
0.18
0.205
0.195
0.16
0.105
0.07
0.055
0.02
0.0
0.0
-0.01
-0.02
-0.02
-0.04
-0.085
-0.065
-0.05
-0.06
-0.05
-0.035
-0.05
-0.025
-0.03
-0.015
-0.015
0.0
0.0
0.005
0.0
0.005
0.0
0.005
-0.01
0.02
-0.035
-0.01
-0.04
0.0
0.17
0.015
0.26
0.275
0.22
0.155
0.035
-0.185
0.0
-0.185
-0.155
-0.075
-0.235
-0.345
-0.715
-0.715
-0.1
2.05
2.375
1.19
0.94
-0.06
0.0
-0.205
-0.455
0.085
-0.215
-0.38
-0.41
-0.23
-0.115
-0.085
-0.14
-0.235
-0.205
-0.2
-0.185
-0.215
-0.155
-0.145
-0.265
-0.135
-0.14
-0.165
-0.05
0.01
0.12
0.185
0.23
0.245
0.305
0.06
0.075
0.035
0.03
0.255
0.115
0.105
-0.125
-0.22
-0.135
-0.135
-0.12
-0.16
-0.115
-0.135
-0.13
-0.125
-0.12
-0.135
-0.12
-0.105
-0.105
-0.12
-0.045
-0.02
-0.12
0.0
-0.195
-0.04
0.075
0.03
-0.17
-0.19
-0.15
-0.035
-0.03
0.04
0.085
0.255
0.175
0.145
0.07
-0.055
-0.125
-0.095
-0.115
-0.06
-0.18
-0.27
-0.755
-0.94
-0.405
0.915
2.91
1.765
1.13
0.345
-0.115
-0.09
-0.155
-0.12
-0.155
-0.13
-0.18
-0.125
-0.16
-0.135
-0.175
-0.14
-0.175
-0.165
-0.19
-0.135
-0.215
-0.205
-0.23
-0.205
-0.2
-0.175
-0.155
-0.1
-0.02
0.055
0.11
0.185
0.17
0.15
0.09
0.065
0.055
0.02
0.0
-0.015
-0.035
-0.03
-0.045
-0.08
-0.065
-0.085
-0.055
-0.09
-0.06
-0.065
-0.075
-0.055
-0.06
-0.03
-0.07
-0.065
-0.06
-0.045
-0.055
0.0
-0.06
-0.05
-0.04
-0.03
-0.015
-0.015
-0.03
0.0
-0.055
0.01
0.09
0.17
0.2
0.335
0.25
0.235
0.115
0.035
-0.015
0.0
-0.05
-0.005
-0.08
-0.255
-0.665
-0.78
-0.195
1.735
2.73
1.48
1.05
0.285
-0.035
-0.01
-0.045
-0.055
-0.215
-0.08
-0.115
-0.215
-0.185
-0.135
-0.075
-0.2
-0.055
-0.18
-0.235
-0.27
-0.155
-0.195
-0.345
-0.27
-0.185
-0.085
-0.06
-0.18
-0.025
-0.06
0.145
0.14
0.195
0.055
0.08
-0.045
0.105
-0.115
-0.1
0.09
-0.14
-0.075
-0.305
0.06
-0.2
-0.115
-0.215
-0.27
-0.055
-0.315
0.015
0.055
-0.21
-0.245
-0.165
0.0
-0.11
-0.105
-0.22
0.01
0.0
0.0
-0.05
-0.045
-0.035
-0.005
-0.035
0.09
-0.005
0.14
0.155
0.225
0.43
0.435
0.435
0.12
-0.005
-0.155
-0.155
-0.085
-0.025
-0.005
-0.49
-0.47
-0.55
-0.17
2.605
2.29
1.33
0.715
-0.11
-0.09
-0.035
-0.24
-0.22
-0.15
-0.195
-0.155
-0.215
-0.155
-0.185
-0.165
-0.23
-0.16
-0.24
-0.19
-0.255
-0.21
-0.265
-0.235
-0.27
-0.225
-0.22
-0.19
-0.14
-0.055
0.015
0.07
0.125
0.105
0.09
0.065
0.045
0.015
0.0
-0.03
-0.035
-0.07
-0.045
-0.065
-0.065
-0.065
-0.075
-0.055
-0.005
-0.035
-0.105
-0.11
-0.095
-0.07
-0.085
-0.05
-0.075
-0.065
-0.08
-0.06
-0.09
-0.06
-0.075
-0.065
-0.08
-0.045
-0.08
-0.04
-0.01
0.105
0.065
0.275
0.24
0.185
0.115
0.045
-0.11
-0.07
-0.115
-0.07
-0.14
-0.185
-0.705
-0.885
-0.43
0.66
2.93
1.86
1.16
0.39
-0.125
-0.075
-0.15
-0.08
-0.15
-0.135
-0.195
-0.145
-0.195
-0.135
-0.195
-0.16
-0.19
-0.17
-0.215
-0.185
-0.22
-0.2
-0.245
-0.215
-0.215
-0.225
-0.205
-0.155
-0.105
-0.01
0.065
0.105
0.095
0.1
0.11
0.05
0.0
-0.005
-0.015
-0.03
-0.035
-0.045
-0.06
-0.065
-0.055
-0.055
-0.07
-0.07
-0.08
-0.09
-0.07
-0.03
-0.095
-0.065
-0.075
-0.065
-0.075
-0.085
-0.06
-0.07
-0.06
-0.06
-0.055
-0.065
-0.065
-0.065
-0.04
0.065
0.09
0.175
0.265
0.21
0.15
0.07
-0.04
-0.065
-0.075
-0.075
-0.09
-0.12
-0.465
-0.715
-0.775
-0.19
2.215
2.65
1.4
0.84
0.045
-0.075
-0.1
-0.13
-0.13
-0.115
-0.09
-0.17
-0.14
-0.16
-0.16
-0.17
-0.16
-0.17
-0.18
-0.19
-0.195
-0.21
-0.21
-0.225
-0.22
-0.225
-0.215
-0.155
-0.12
-0.06
0.01
0.07
0.115
0.12
0.1
0.06
0.03
0.02
0.0
-0.005
-0.035
-0.025
-0.04
-0.04
-0.055
-0.055
-0.075
-0.055
-0.055
-0.055
-0.07
-0.07
-0.08
-0.065
-0.07
-0.06
-0.07
-0.05
-0.08
-0.045
-0.06
-0.06
-0.065
-0.025
-0.06
-0.025
0.0
0.105
0.095
0.3
0.265
0.215
0.115
0.045
-0.075
-0.025
-0.105
-0.05
-0.12
-0.18
-0.68
-0.88
-0.415
0.715
2.93
1.82
1.15
0.455
-0.1
-0.055
-0.155
-0.12
-0.165
-0.125
-0.17
-0.13
-0.17
-0.155
-0.19
-0.15
-0.19
-0.18
-0.22
-0.185
-0.22
-0.195
-0.24
-0.21
-0.23
-0.215
-0.2
-0.14
-0.075
0.015
0.06
0.11
0.115
0.11
0.065
0.05
0.035
0.025
-0.01
-0.015
-0.015
-0.025
-0.015
-0.04
-0.045
-0.035
-0.035
-0.07
-0.04
-0.04
-0.015
-0.01
-0.045
-0.06
-0.035
-0.035
-0.005
-0.035
-0.01
-0.075
-0.015
-0.035
0.0
-0.025
-0.01
0.04
0.15
0.14
0.345
0.32
0.265
0.18
0.09
-0.03
0.0
-0.06
-0.015
-0.055
-0.155
-0.695
-0.895
-0.315
1.165
3.19
1.915
1.135
0.26
-0.115
-0.065
-0.115
-0.075
-0.14
-0.105
-0.135
-0.095
-0.145
-0.11
-0.19
-0.135
-0.18
-0.17
-0.205
-0.18
-0.22
-0.205
-0.225
-0.22
-0.225
-0.195
-0.18
-0.14
-0.14
-0.05
0.025
0.08
0.075
0.065
0.065
0.055
0.005
0.0
0.0
-0.02
-0.03
-0.035
-0.055
-0.06
-0.055
-0.065
-0.055
-0.065
-0.075
-0.07
-0.07
-0.07
-0.07
-0.07
-0.07
-0.05
-0.06
-0.075
-0.05
-0.06
-0.055
-0.035
0.015
0.105
0.115
0.27
0.26
0.195
0.145
0.0
-0.035
-0.055
-0.07
-0.065
-0.06
-0.105
-0.58
-0.845
-0.815
-0.13
2.515
2.745
1.58
0.67
-0.125
0.115
0.06
-0.245
-0.17
-0.2
-0.135
-0.22
-0.19
-0.17
-0.2
0.105
-0.265
0.025
-0.22
-0.215
-0.12
-0.16
-0.23
-0.285
-0.145
-0.315
-0.25
-0.23
-0.175
-0.14
-0.055
-0.03
0.02
0.025
0.045
0.015
0.015
0.005
0.0
-0.025
-0.015
-0.04
-0.045
-0.055
-0.055
-0.055
-0.065
-0.06
-0.075
-0.065
-0.065
-0.04
-0.065
-0.04
-0.06
-0.04
-0.05
-0.025
-0.06
0.015
0.06
0.125
0.185
0.3
0.205
0.19
0.07
-0.01
-0.09
-0.045
-0.105
-0.07
-0.12
-0.16
-0.75
-0.97
-0.585
0.41
2.93
2.255
1.295
0.37
-0.205
-0.14
-0.165
-0.16
-0.165
-0.14
-0.165
-0.17
-0.135
-0.04
-0.145
-0.185
-0.21
-0.175
-0.21
-0.19
-0.235
-0.205
-0.23
-0.23
-0.24
-0.24
-0.225
-0.185
-0.13
-0.05
0.0
0.03
0.045
0.055
0.05
0.03
0.005
-0.005
-0.005
-0.03
-0.035
-0.03
-0.07
-0.045
-0.085
-0.1
-0.105
-0.095
-0.1
-0.115
-0.1
-0.11
-0.085
-0.07
-0.11
-0.09
-0.085
0.02
0.06
0.095
0.23
0.255
0.17
0.09
-0.01
-0.045
-0.085
-0.11
-0.11
-0.1
-0.13
-0.53
-0.855
-0.99
-0.315
2.105
2.97
1.7
0.93
-0.06
-0.135
-0.145
-0.175
-0.18
-0.17
-0.14
-0.19
-0.18
-0.165
-0.185
-0.205
-0.17
-0.225
-0.195
-0.215
-0.205
-0.235
-0.225
-0.23
-0.225
-0.21
-0.185
-0.12
-0.12
-0.03
0.015
0.05
0.085
0.075
0.065
0.025
0.035
-0.015
-0.02
-0.025
-0.035
-0.05
-0.075
-0.08
-0.045
-0.08
-0.095
-0.08
-0.085
-0.12
-0.08
-0.07
-0.075
-0.08
-0.055
-0.055
0.03
0.08
0.125
0.235
0.28
0.205
0.18
0.025
-0.005
-0.045
-0.03
-0.075
-0.05
-0.095
-0.395
-0.78
-0.975
-0.34
1.795
3.035
1.85
1.135
0.1
-0.14
-0.11
-0.14
-0.145
-0.155
-0.145
-0.17
-0.16
-0.165
-0.15
-0.195
-0.18
-0.185
-0.2
-0.205
-0.19
-0.225
-0.22
-0.235
-0.205
-0.215
-0.15
-0.13
-0.065
0.0
0.055
0.075
0.1
0.1
0.075
0.045
0.01
0.0
0.01
-0.015
-0.04
-0.035
-0.04
-0.05
-0.06
-0.09
-0.1
-0.115
-0.095
-0.115
-0.12
-0.125
-0.09
-0.1
-0.085
-0.095
0.0
0.04
0.075
0.185
0.235
0.15
0.13
0.01
-0.04
-0.09
-0.075
-0.115
-0.095
-0.13
-0.37
-0.77
-0.975
-0.4
1.6
3.015
1.745
1.1
0.13
-0.175
-0.13
-0.19
-0.17
-0.19
-0.18
-0.19
-0.155
-0.2
-0.175
-0.2
-0.17
-0.215
-0.2
-0.23
-0.225
-0.23
-0.21
-0.23
-0.2
-0.17
-0.12
-0.095
-0.035
0.03
0.09
0.13
0.115
0.09
0.055
0.04
0.02
0.0
0.025
-0.005
-0.05
-0.04
-0.065
-0.05
-0.085
-0.08
-0.115
-0.105
-0.14
-0.115
-0.135
-0.115
-0.12
-0.12
-0.13
-0.07
0.0
0.075
0.095
0.24
0.19
0.145
0.07
-0.03
-0.095
-0.085
-0.115
-0.095
-0.13
-0.145
-0.63
-0.84
-0.775
-0.045
2.625
2.555
1.41
0.685
-0.13
-0.145
-0.19
-0.18
-0.22
-0.215
-0.22
-0.195
-0.215
-0.21
-0.215
-0.21
-0.23
-0.225
-0.235
-0.265
-0.29
-0.29
-0.285
-0.3
-0.255
-0.235
-0.215
-0.13
-0.1
-0.02
0.05
0.03
0.015
0.02
0.0
-0.035
-0.095
-0.075
-0.12
-0.1
-0.1
-0.175
-0.105
-0.115
-0.175
-0.215
-0.145
-0.21
-0.215
-0.19
-0.205
-0.215
-0.215
-0.145
-0.145
-0.105
0.0
0.06
0.145
0.065
0.055
0.01
-0.125
-0.12
-0.155
-0.24
-0.135
-0.195
-0.185
-0.75
-0.98
-0.82
-0.045
2.705
2.58
1.485
0.725
-0.155
-0.155
-0.22
-0.235
-0.225
-0.2
-0.235
-0.245
-0.255
-0.295
-0.31
-0.265
-0.315
-0.24
-0.26
-0.3
-0.225
-0.25
-0.245
-0.195
-0.195
-0.21
-0.08
-0.065
-0.03
0.01
0.06
0.08
0.06
0.04
-0.035
0.01
-0.015
0.01
-0.015
-0.035
0.075
-0.055
-0.085
-0.055
-0.105
-0.09
-0.19
-0.22
-0.095
-0.2
-0.19
-0.17
-0.09
-0.16
-0.1
0.0
0.075
0.105
0.22
0.215
0.145
0.065
0.015
-0.08
-0.08
-0.13
-0.01
-0.195
-0.19
-0.725
-0.865
-0.49
0.475
3.045
2.27
1.34
0.545
-0.16
-0.045
-0.155
-0.14
-0.17
-0.11
-0.185
-0.165
-0.19
-0.155
-0.2
-0.18
-0.205
-0.18
-0.23
-0.195
-0.18
-0.21
-0.185
-0.155
-0.195
-0.115
-0.045
0.025
0.055
0.13
0.135
0.175
0.12
0.08
0.045
0.035
0.01
0.005
-0.005
-0.01
-0.015
-0.045
-0.06
-0.055
-0.06
-0.11
-0.12
-0.095
-0.125
-0.125
-0.095
-0.125
-0.085
-0.105
-0.085
0.0
0.05
0.09
0.26
0.215
0.15
0.105
0.015
-0.06
-0.075
-0.08
-0.07
-0.09
-0.12
-0.585
-0.795
-0.635
0.175
2.81
2.595
1.445
0.755
-0.09
-0.08
-0.155
-0.14
-0.16
-0.14
-0.175
-0.17
-0.19
-0.18
-0.2
-0.22
-0.175
-0.205
-0.225
-0.24
-0.205
-0.21
-0.215
-0.15
-0.17
-0.105
-0.085
-0.005
0.045
0.12
0.14
0.16
0.115
0.07
0.065
0.035
0.02
0.025
-0.01
-0.05
-0.03
-0.03
-0.04
-0.07
-0.085
-0.095
-0.11
-0.145
-0.135
-0.105
-0.14
-0.13
-0.12
-0.11
-0.125
-0.09
-0.015
0.025
0.045
0.2
0.18
0.12
0.095
-0.015
-0.09
-0.08
-0.1
-0.09
-0.11
-0.135
-0.585
-0.81
-0.695
0.12
2.76
2.595
1.515
0.79
-0.035
-0.1
-0.145
-0.15
-0.165
-0.16
-0.17
-0.17
-0.175
-0.16
-0.185
-0.175
-0.185
-0.19
-0.225
-0.185
-0.225
-0.215
-0.23
-0.21
-0.185
-0.135
-0.085
-0.02
0.04
0.11
0.145
0.125
0.12
0.08
0.04
0.01
0.015
-0.015
-0.025
-0.04
-0.005
-0.06
-0.065
-0.085
-0.08
-0.12
-0.125
-0.15
-0.145
-0.165
-0.135
-0.15
-0.105
-0.15
-0.11
-0.135
-0.08
-0.01
0.06
0.08
0.21
0.14
0.1
0.06
-0.025
-0.12
-0.09
-0.14
-0.115
-0.155
-0.22
-0.71
-0.91
-0.47
0.875
2.96
2.02
1.36
0.565
-0.11
-0.105
-0.145
-0.15
-0.205
-0.18
-0.21
-0.175
-0.215
-0.18
-0.22
-0.195
-0.21
-0.21
-0.23
-0.215
-0.255
-0.205
-0.235
-0.19
-0.185
-0.12
-0.065
0.005
0.065
0.145
0.145
0.135
0.105
0.075
0.025
0.015
0.005
-0.02
-0.055
-0.03
-0.07
-0.07
-0.08
-0.07
-0.095
-0.115
-0.145
-0.12
-0.145
-0.11
-0.145
-0.12
-0.13
-0.1
-0.12
-0.085
-0.12
-0.05
0.015
0.055
0.125
0.25
0.165
0.125
0.055
-0.03
-0.11
-0.07
-0.13
-0.1
-0.145
-0.2
-0.69
-0.94
-0.475
0.925
3.01
2.045
1.385
0.555
-0.1
-0.105
-0.175
-0.125
-0.195
-0.16
-0.18
-0.135
-0.185
-0.165
-0.18
-0.145
-0.17
-0.155
-0.21
-0.18
-0.19
-0.195
-0.195
-0.16
-0.165
-0.035
-0.015
0.04
0.095
0.18
0.21
0.145
0.105
0.04
0.04
0.0
-0.05
-0.035
-0.07
-0.05
-0.035
-0.055
-0.09
-0.095
-0.095
-0.115
-0.135
-0.115
-0.1
-0.115
-0.115
-0.12
-0.105
-0.115
-0.095
-0.075
-0.065
-0.095
-0.075
-0.005
0.06
0.075
0.24
0.255
0.155
0.11
0.01
-0.065
-0.06
-0.09
-0.095
-0.08
-0.135
-0.56
-0.815
-0.79
-0.065
2.585
2.71
1.56
0.85
-0.005
-0.06
-0.15
-0.15
-0.155
-0.145
-0.165
-0.19
-0.165
-0.16
-0.175
-0.18
-0.155
-0.185
-0.21
-0.185
-0.195
-0.21
-0.225
-0.16
-0.16
-0.14
-0.09
-0.04
0.01
0.07
0.16
0.13
0.125
0.11
0.075
0.045
0.005
0.01
-0.005
-0.025
-0.035
-0.01
-0.07
-0.08
-0.09
-0.105
-0.105
-0.105
-0.125
-0.115
-0.11
-0.105
-0.115
-0.09
-0.12
-0.065
-0.105
-0.07
-0.09
-0.04
-0.005
0.085
0.135
0.25
0.15
0.13
0.02
-0.05
-0.11
-0.075
-0.145
-0.1
-0.155
-0.225
-0.755
-0.975
-0.55
0.805
3.03
2.065
1.325
0.385
-0.155
-0.135
-0.195
-0.155
-0.215
-0.17
-0.205
-0.19
-0.22
-0.16
-0.215
-0.205
-0.235
-0.21
-0.245
-0.215
-0.24
-0.215
-0.26
-0.2
-0.2
-0.155
-0.115
-0.035
0.0
0.065
0.095
0.13
0.09
0.085
0.045
0.01
0.0
-0.005
-0.005
-0.035
-0.055
-0.035
-0.075
-0.065
-0.175
-0.095
0.45
0.97
1.695
1.465
1.055
0.3
-0.16
-0.205
-0.42
-0.385
-0.5
-0.31
-0.17
-0.115
-0.14
-0.15
-0.155
-0.165
-0.18
-0.205
-0.19
-0.19
-0.235
-0.215
-0.19
-0.195
-0.18
-0.13
-0.04
0.005
0.04
0.085
0.115
0.12
0.145
0.115
0.09
0.065
0.045
0.01
0.02
0.01
-0.025
-0.025
-0.03
-0.015
-0.03
-0.035
-0.05
-0.03
-0.05
-0.04
-0.025
-0.05
-0.035
-0.045
-0.02
-0.03
-0.05
-0.055
-0.055
-0.04
-0.045
-0.04
-0.055
-0.06
-0.04
-0.055
-0.055
-0.06
-0.05
-0.05
-0.07
-0.07
-0.08
-0.09
-0.085
-0.085
-0.065
-0.065
-0.085
-0.095
-0.075
-0.085
-0.075
-0.1
-0.085
-0.1
-0.1
-0.11
-0.09
-0.11
-0.07
-0.115
-0.065
-0.045
0.06
0.05
0.225
0.185
0.14
0.065
0.0
-0.08
-0.085
-0.12
-0.11
-0.14
-0.2
-0.72
-0.9
-0.55
0.5
2.905
2.21
1.39
0.455
-0.135
-0.115
-0.175
-0.14
-0.18
0.045
-0.195
0.0
0.21
-0.045
-0.29
-0.165
-0.18
-0.095
-0.31
-0.26
-0.205
-0.165
-0.195
-0.21
0.005
-0.26
-0.285
-0.14
-0.08
0.015
0.085
0.185
0.215
0.23
0.185
0.16
0.095
0.065
0.02
-0.01
-0.03
-0.035
-0.08
-0.07
-0.105
-0.095
-0.12
-0.14
-0.15
-0.135
-0.135
-0.125
-0.14
-0.115
-0.12
-0.095
-0.1
-0.085
-0.08
-0.065
0.0
0.065
0.115
0.225
0.175
0.12
0.075
-0.04
-0.095
-0.085
-0.12
-0.1
-0.135
-0.145
-0.665
-0.88
-0.8
-0.065
2.61
2.58
1.53
0.75
-0.12
-0.14
-0.155
-0.205
-0.205
-0.215
-0.195
-0.17
-0.25
-0.17
-0.2
-0.205
-0.25
-0.26
-0.25
-0.235
-0.255
-0.27
-0.285
-0.265
-0.23
-0.215
-0.165
-0.11
-0.055
-0.005
0.055
0.06
0.06
0.055
0.045
0.0
0.01
-0.04
0.0
-0.03
-0.06
-0.045
-0.055
-0.145
-0.1
0.415
0.925
1.685
1.54
1.26
0.465
-0.17
-0.185
-0.46
-0.42
-0.5
-0.385
-0.175
-0.115
-0.14
-0.12
-0.175
-0.185
-0.14
-0.145
-0.21
-0.2
-0.22
-0.225
-0.22
-0.19
-0.195
-0.13
-0.125
-0.05
0.02
0.035
0.12
0.085
0.135
0.135
0.055
0.085
0.11
0.045
0.02
-0.005
0.045
-0.01
-0.05
-0.055
-0.01
-0.01
-0.01
-0.035
-0.045
-0.05
-0.06
-0.01
-0.075
-0.035
-0.04
-0.015
-0.04
-0.045
-0.06
-0.045
-0.01
-0.015
-0.03
-0.05
-0.115
-0.06
-0.05
-0.04
-0.025
-0.055
-0.03
-0.05
-0.045
-0.06
-0.015
-0.055
-0.05
-0.055
-0.06
-0.05
-0.03
-0.055
-0.07
-0.045
-0.06
-0.05
-0.055
-0.05
-0.075
-0.03
-0.06
-0.06
-0.085
-0.04
-0.02
0.07
0.065
0.205
0.2
0.195
0.1
0.04
-0.06
-0.055
-0.085
-0.085
-0.11
-0.13
-0.655
-0.855
-0.62
0.235
2.785
2.44
1.46
0.64
-0.115
-0.105
-0.15
-0.15
-0.2
-0.175
-0.19
-0.16
-0.18
-0.165
-0.205
-0.185
-0.2
-0.2
-0.215
-0.215
-0.225
-0.215
-0.23
-0.225
-0.205
-0.175
-0.145
-0.085
-0.05
0.015
0.105
0.2
0.25
0.255
0.21
0.17
0.13
0.1
0.04
0.0
-0.01
-0.01
-0.045
-0.075
-0.07
-0.085
-0.125
-0.13
-0.14
-0.155
-0.12
-0.145
-0.125
-0.125
-0.115
-0.115
-0.1
-0.13
-0.085
-0.105
-0.055
0.0
0.05
0.11
0.23
0.15
0.14
0.055
-0.025
-0.13
-0.1
-0.14
-0.125
-0.155
-0.175
-0.715
-0.91
-0.62
0.465
2.94
2.3
1.44
0.585
-0.135
-0.11
-0.19
-0.195
-0.205
-0.19
-0.22
-0.19
-0.21
-0.21
-0.205
-0.22
-0.255
-0.225
-0.245
-0.25
-0.25
-0.24
-0.27
-0.24
-0.215
-0.185
-0.13
-0.09
-0.015
0.075
0.085
0.095
0.105
0.065
0.07
0.0
0.0
0.0
-0.035
-0.015
-0.015
-0.045
-0.085
-0.165
-0.07
0.535
1.11
1.805
1.54
1.16
0.33
-0.135
-0.205
-0.41
-0.375
-0.5
-0.305
-0.19
-0.11
-0.18
-0.095
-0.165
-0.18
-0.19
-0.235
-0.21
-0.21
-0.215
-0.27
-0.26
-0.22
-0.205
-0.155
-0.145
-0.035
0.025
0.03
0.06
0.115
0.13
0.125
0.09
0.08
0.05
0.05
0.04
0.01
-0.01
-0.04
-0.045
-0.03
-0.03
-0.005
-0.05
-0.07
-0.045
-0.03
-0.025
-0.04
-0.02
-0.015
-0.035
-0.035
-0.04
-0.065
-0.08
-0.07
-0.005
-0.045
-0.035
-0.085
-0.03
-0.045
-0.045
-0.025
-0.075
-0.05
-0.05
-0.07
-0.08
-0.045
-0.025
-0.075
-0.085
-0.105
-0.1
-0.075
-0.1
-0.085
-0.115
-0.025
-0.145
-0.1
-0.09
-0.08
-0.09
-0.045
-0.13
-0.12
-0.13
-0.03
-0.065
-0.06
0.05
0.185
0.175
0.14
0.035
0.075
-0.06
-0.15
-0.16
-0.07
-0.125
-0.22
-0.755
-0.905
-0.61
0.295
3.005
2.465
1.475
0.59
-0.175
-0.18
-0.11
-0.17
-0.29
-0.205
-0.24
-0.145
-0.225
-0.2
-0.205
-0.135
-0.225
-0.215
-0.225
-0.195
-0.285
-0.24
-0.27
-0.18
-0.25
-0.225
-0.195
-0.175
-0.135
-0.035
0.04
0.125
0.215
0.2
0.18
0.185
0.175
0.075
0.065
0.05
0.015
0.005
-0.015
-0.045
-0.03
-0.08
-0.08
-0.105
-0.095
-0.15
-0.11
-0.13
-0.08
-0.12
-0.1
-0.12
-0.07
-0.105
-0.03
0.0
0.06
0.09
0.24
0.125
0.14
0.045
-0.05
-0.095
-0.1
-0.15
-0.1
-0.17
-0.235
-0.75
-0.945
-0.515
0.775
3.07
2.12
1.275
0.4
-0.185
-0.155
-0.205
-0.19
-0.225
-0.185
-0.215
-0.215
-0.26
-0.205
-0.24
-0.24
-0.26
-0.24
-0.27
-0.245
-0.265
-0.27
-0.28
-0.25
-0.225
-0.175
-0.155
-0.08
0.0
0.04
0.095
0.08
0.095
0.085
0.025
0.01
0.0
0.005
-0.01
-0.055
0.005
-0.04
-0.05
-0.135
0.01
0.605
1.09
1.735
1.45
1.075
0.29
-0.115
-0.215
-0.4
-0.32
-0.48
-0.23
-0.135
-0.135
-0.14
-0.175
-0.195
-0.175
-0.175
-0.22
-0.23
-0.21
-0.24
-0.28
-0.265
-0.24
-0.22
-0.185
-0.145
-0.06
-0.01
0.04
0.055
0.1
0.135
0.11
0.075
0.06
0.055
0.03
0.0
0.025
-0.01
-0.035
-0.055
-0.055
-0.05
-0.025
-0.07
-0.045
-0.05
-0.05
-0.05
-0.065
-0.05
-0.09
-0.07
-0.065
-0.04
-0.045
-0.005
-0.11
-0.03
-0.08
-0.12
-0.045
-0.04
-0.075
-0.075
-0.135
-0.07
-0.1
-0.075
-0.1
-0.065
-0.045
-0.095
-0.04
-0.125
-0.085
-0.065
-0.105
-0.145
-0.12
-0.11
-0.055
-0.09
-0.125
-0.09
-0.08
-0.125
-0.145
-0.055
-0.015
0.025
0.095
0.235
0.125
0.135
0.035
-0.05
-0.045
-0.14
-0.13
-0.11
-0.205
-0.445
-0.815
-0.91
-0.225
2.195
2.925
1.615
0.935
-0.015
-0.165
-0.16
-0.165
-0.195
-0.205
-0.245
-0.22
-0.21
-0.225
-0.205
-0.18
-0.27
-0.24
-0.23
-0.21
-0.24
-0.265
-0.26
-0.205
-0.185
-0.18
-0.145
-0.14
-0.02
-0.02
0.08
0.235
0.26
0.235
0.19
0.17
0.1
0.13
0.055
-0.015
0.1
-0.03
-0.025
0.04
-0.04
-0.065
-0.18
-0.115
-0.095
-0.21
-0.09
-0.185
-0.06
-0.195
-0.085
-0.09
-0.045
-0.17
-0.08
-0.01
0.065
0.11
0.22
0.15
0.15
0.035
-0.02
-0.055
-0.095
-0.15
-0.065
-0.145
-0.245
-0.775
-0.915
-0.41
1.155
3.15
1.99
1.24
0.305
-0.13
-0.105
-0.175
-0.1
-0.19
-0.15
-0.19
-0.18
-0.175
-0.17
-0.215
-0.215
-0.19
-0.235
-0.235
-0.225
-0.25
-0.215
-0.205
-0.215
-0.2
-0.15
-0.115
-0.065
0.045
0.065
0.105
0.07
0.085
0.01
0.06
0.005
0.015
-0.005
0.03
-0.045
-0.03
-0.045
-0.03
-0.14
0.18
0.845
1.465
1.645
1.415
0.875
0.135
-0.06
-0.285
-0.36
-0.375
-0.375
-0.15
-0.12
-0.14
-0.15
-0.19
-0.15
-0.19
-0.195
-0.22
-0.215
-0.24
-0.235
-0.225
-0.245
-0.24
-0.17
-0.145
-0.1
-0.04
0.045
0.075
0.13
0.155
0.145
0.15
0.14
0.075
0.085
0.04
0.05
0.035
0.01
-0.025
0.01
-0.005
0.0
0.04
-0.035
-0.055
-0.035
-0.05
-0.01
-0.09
-0.035
-0.045
-0.025
-0.025
-0.02
-0.065
-0.05
-0.035
-0.02
-0.06
-0.075
-0.04
-0.06
-0.04
-0.045
-0.055
-0.04
-0.05
-0.05
-0.05
-0.04
-0.035
-0.04
-0.035
-0.035
-0.055
-0.065
-0.075
-0.06
-0.06
-0.065
-0.09
-0.095
-0.1
-0.09
-0.09
-0.09
-0.06
0.025
0.055
0.14
0.225
0.18
0.12
0.065
-0.035
-0.1
-0.095
-0.095
-0.12
-0.14
-0.465
-0.745
-0.78
-0.15
2.265
2.79
1.56
0.98
0.07
-0.16
-0.135
-0.195
-0.195
-0.15
-0.205
-0.175
-0.17
-0.22
-0.215
-0.22
-0.205
-0.215
-0.215
-0.23
-0.22
-0.225
-0.195
-0.21
-0.185
-0.155
-0.14
-0.085
-0.015
0.04
0.115
0.22
0.27
0.275
0.235
0.2
0.135
0.095
0.06
0.04
-0.01
-0.015
-0.03
-0.025
-0.065
-0.09
-0.12
-0.095
-0.14
-0.125
-0.135
-0.115
-0.13
-0.125
-0.12
-0.08
-0.105
-0.005
0.02
0.08
0.18
0.235
0.14
0.14
0.0
-0.04
-0.085
-0.065
-0.115
-0.08
-0.145
-0.325
-0.75
-0.97
-0.4
1.45
3.02
1.875
1.185
0.165
-0.16
-0.095
-0.145
-0.125
-0.175
-0.125
-0.185
-0.155
-0.185
-0.15
-0.185
-0.14
-0.195
-0.18
-0.21
-0.19
-0.215
-0.2
-0.22
-0.185
-0.165
-0.125
-0.11
-0.04
0.025
0.08
0.105
0.12
0.1
0.075
0.04
0.03
0.005
0.0
0.0
-0.02
-0.045
-0.045
-0.045
-0.075
-0.075
-0.09
-0.075
-0.105
-0.075
-0.09
-0.06
-0.105
-0.08
-0.085
-0.075
-0.07
0.015
0.055
0.09
0.195
0.245
0.16
0.12
0.015
-0.015
-0.09
-0.07
-0.1
-0.075
-0.12
-0.315
-0.73
-0.935
-0.395
1.54
3.025
1.775
1.145
0.2
-0.145
-0.12
-0.185
-0.145
-0.17
-0.165
-0.175
-0.145
-0.185
-0.145
-0.19
-0.17
-0.185
-0.18
-0.215
-0.21
-0.22
-0.195
-0.2
-0.18
-0.165
-0.13
-0.075
0.0
0.045
0.135
0.15
0.135
0.1
0.085
0.05
0.025
0.02
0.025
-0.015
-0.03
-0.04
-0.03
-0.065
-0.08
-0.11
-0.105
-0.115
-0.12
-0.13
-0.12
-0.125
-0.11
-0.13
-0.095
-0.09
-0.06
0.0
0.06
0.09
0.24
0.19
0.145
0.075
-0.035
-0.095
-0.08
-0.14
-0.125
-0.115
-0.18
-0.61
-0.835
-0.755
-0.055
2.615
2.565
1.465
0.705
-0.125
-0.185
-0.18
-0.17
-0.18
-0.21
-0.2
-0.19
-0.22
-0.175
-0.205
-0.17
-0.25
-0.225
-0.225
-0.23
-0.24
-0.205
-0.225
-0.195
-0.195
-0.12
-0.15
-0.075
-0.005
0.11
0.065
0.105
0.075
0.065
0.055
0.005
0.01
-0.035
-0.005
-0.055
-0.055
-0.08
-0.005
-0.105
-0.105
-0.15
-0.1
-0.13
-0.12
-0.14
-0.12
-0.1
-0.12
-0.11
-0.035
-0.105
-0.05
0.025
0.08
0.195
0.195
0.16
0.16
-0.03
-0.115
-0.105
-0.05
-0.15
-0.08
-0.125
-0.325
-0.795
-1.015
-0.445
1.43
2.99
