signal
0.115
0.155
0.115
0.08
0.115
0.18
0.17
0.195
0.3
0.405
0.41
0.37
0.27
0.15
0.085
0.065
0.05
0.05
0.035
0.04
0.02
0.025
-0.005
-0.025
0.46
1.535
3.355
3.935
1.8
0.045
-0.065
-0.075
-0.185
-0.2
-0.16
-0.135
-0.145
-0.15
-0.15
-0.145
-0.15
-0.15
-0.17
-0.18
-0.185
-0.21
-0.21
-0.235
-0.285
-0.335
-0.4
-0.4
-0.375
-0.385
-0.385
-0.285
-0.165
-0.055
0.02
0.05
0.085
0.1
0.045
0.06
0.08
0.085
0.095
0.065
0.04
0.02
0.015
0.01
0.045
0.06
0.05
0.08
0.08
0.075
0.08
0.085
0.105
0.085
0.125
0.14
0.13
0.205
0.315
0.395
0.425
0.415
0.265
0.11
0.085
0.095
0.035
0.005
0.015
-0.015
-0.01
0.025
-0.015
0.01
0.515
1.535
3.23
3.685
1.575
-0.03
-0.13
-0.18
-0.185
-0.23
-0.195
-0.15
-0.175
-0.165
-0.175
-0.205
-0.2
-0.175
-0.17
-0.185
-0.19
-0.15
-0.225
-0.24
-0.22
-0.305
-0.305
-0.235
-0.26
-0.315
-0.265
-0.165
-0.085
-0.045
0.005
0.07
0.06
0.04
0.065
0.07
-0.005
-0.015
-0.025
-0.045
-0.005
-0.025
-0.045
-0.015
-0.04
0.005
0.045
0.02
0.025
0.045
0.035
0.015
0.04
0.065
0.055
0.07
0.155
0.25
0.305
0.31
0.25
0.115
0.02
-0.025
-0.045
-0.035
-0.05
-0.06
-0.07
-0.09
-0.125
-0.16
0.2
1.115
2.79
3.975
2.27
0.095
-0.315
-0.325
-0.32
-0.295
-0.255
-0.235
-0.2
-0.205
-0.24
-0.255
-0.24
-0.225
-0.24
-0.26
-0.285
-0.24
-0.225
-0.275
-0.325
-0.33
-0.275
-0.29
-0.355
-0.35
-0.3
-0.265
-0.165
-0.07
-0.025
0.015
0.035
0.025
0.0
-0.02
-0.04
-0.065
-0.065
-0.07
-0.075
-0.07
-0.075
-0.07
-0.075
-0.07
-0.045
-0.03
-0.025
-0.025
0.005
0.025
0.05
0.04
0.05
0.12
0.2
0.29
0.33
0.3
0.24
0.105
-0.025
-0.05
-0.02
-0.05
-0.075
-0.09
-0.09
-0.065
-0.105
-0.145
0.31
1.33
3.305
4.325
2.23
0.065
-0.195
-0.19
-0.275
-0.295
-0.29
-0.27
-0.255
-0.275
-0.265
-0.27
-0.305
-0.3
-0.275
-0.295
-0.31
-0.33
-0.325
-0.36
-0.395
-0.4
-0.39
-0.4
-0.435
-0.395
-0.34
-0.285
-0.185
-0.095
-0.015
0.015
0.015
0.005
-0.005
-0.02
0.01
-0.01
-0.01
-0.03
-0.06
-0.065
-0.095
-0.08
-0.045
-0.055
-0.07
-0.1
-0.09
-0.105
-0.09
-0.06
-0.005
0.03
0.04
0.03
0.135
0.23
0.285
0.305
0.245
0.115
0.015
-0.035
-0.035
-0.055
-0.05
-0.06
-0.085
-0.135
-0.115
-0.165
0.03
0.72
2.085
3.96
3.555
1.015
-0.145
-0.17
-0.225
-0.31
-0.28
-0.255
-0.24
-0.285
-0.265
-0.275
-0.305
-0.255
-0.255
-0.3
-0.34
-0.345
-0.315
-0.35
-0.365
-0.38
-0.39
-0.37
-0.35
-0.34
-0.28
-0.23
-0.16
-0.05
0.045
0.01
-0.04
-0.025
-0.005
-0.015
-0.045
-0.065
-0.04
-0.06
-0.065
-0.14
-0.13
-0.075
-0.125
-0.13
-0.085
-0.125
-0.135
-0.125
-0.1
-0.105
-0.12
-0.065
-0.035
-0.015
0.095
0.195
0.255
0.265
0.185
0.09
0.025
-0.065
-0.085
-0.105
-0.165
-0.135
-0.09
-0.09
-0.105
-0.175
-0.02
0.775
2.31
3.99
3.175
0.585
-0.385
-0.34
-0.315
-0.3
-0.32
-0.325
-0.29
-0.265
-0.29
-0.285
-0.255
-0.285
-0.305
-0.27
-0.26
-0.24
-0.31
-0.36
-0.35
-0.3
-0.295
-0.335
-0.27
-0.175
-0.175
-0.155
-0.13
-0.075
-0.045
0.02
-0.02
-0.09
-0.065
-0.05
-0.115
-0.11
-0.095
-0.095
-0.18
-0.195
-0.13
-0.14
-0.195
-0.175
-0.17
-0.14
-0.115
-0.14
-0.175
-0.125
-0.125
-0.115
-0.095
0.015
-0.005
-0.03
0.085
0.125
0.14
0.185
0.115
0.015
-0.07
-0.13
-0.185
-0.145
-0.175
-0.155
-0.16
-0.17
-0.16
-0.175
0.24
1.365
3.375
4.355
2.045
-0.24
-0.375
-0.305
-0.375
-0.34
-0.335
-0.335
-0.32
-0.285
-0.305
-0.29
-0.3
-0.3
-0.295
-0.305
-0.32
-0.315
-0.375
-0.355
-0.335
-0.335
-0.3
-0.295
-0.305
-0.235
-0.17
-0.12
-0.09
0.015
0.09
0.105
0.025
-0.035
-0.045
0.005
0.0
-0.015
-0.055
-0.07
-0.075
-0.055
-0.055
-0.07
-0.095
-0.08
-0.12
-0.115
-0.095
-0.09
-0.065
-0.045
-0.04
-0.03
-0.03
0.03
0.05
0.065
0.125
0.24
0.275
0.275
0.23
0.15
0.06
-0.015
-0.055
-0.055
-0.08
-0.065
-0.065
-0.045
-0.07
-0.1
-0.06
0.515
1.815
4.045
4.395
1.715
-0.135
-0.145
-0.14
-0.22
-0.26
-0.205
-0.185
-0.225
-0.265
-0.27
-0.27
-0.23
-0.225
-0.22
-0.295
-0.28
-0.26
-0.31
-0.39
-0.39
-0.38
-0.37
-0.35
-0.315
-0.31
-0.225
-0.105
-0.025
0.025
0.08
0.08
0.085
0.05
0.03
0.035
0.065
0.025
0.05
0.035
0.03
-0.015
-0.025
-0.01
-0.035
-0.085
-0.115
-0.105
-0.025
-0.025
-0.01
-0.04
-0.035
-0.005
0.01
0.015
0.04
0.035
0.065
0.13
0.14
0.135
0.26
0.34
0.355
0.335
0.245
0.13
0.08
0.03
0.01
-0.025
-0.02
-0.04
-0.005
0.0
-0.005
-0.095
0.19
1.115
2.965
4.59
3.155
0.52
-0.16
-0.105
-0.155
-0.225
-0.235
-0.21
-0.16
-0.18
-0.195
-0.205
-0.215
-0.195
-0.175
-0.24
-0.27
-0.29
-0.255
-0.275
-0.31
-0.325
-0.325
-0.285
-0.27
-0.235
-0.105
-0.07
0.005
0.045
0.04
0.085
0.145
0.075
0.045
0.035
0.05
0.045
0.035
-0.005
-0.02
-0.055
-0.03
-0.04
-0.06
-0.08
-0.135
-0.12
-0.06
-0.11
-0.11
-0.135
-0.095
-0.045
-0.045
-0.04
-0.045
-0.08
0.005
-0.015
-0.04
-0.015
0.035
0.03
0.06
0.125
0.25
0.265
0.245
0.195
0.11
0.035
-0.035
-0.06
-0.085
-0.14
-0.055
-0.095
-0.135
-0.095
-0.205
0.005
0.85
2.355
4.29
3.565
0.725
-0.44
-0.36
-0.29
-0.335
-0.385
-0.35
-0.29
-0.265
-0.265
-0.255
-0.26
-0.255
-0.29
-0.295
-0.285
-0.335
-0.35
-0.295
-0.335
-0.355
-0.305
-0.31
-0.3
-0.23
-0.18
-0.195
-0.11
0.01
0.07
0.035
-0.055
-0.04
-0.005
-0.045
-0.055
-0.07
-0.09
-0.085
-0.095
-0.11
-0.14
-0.16
-0.145
-0.125
-0.15
-0.185
-0.13
-0.08
-0.075
-0.08
-0.065
-0.075
-0.065
-0.06
-0.035
-0.05
-0.07
-0.075
-0.015
0.035
0.03
0.055
0.15
0.245
0.21
0.16
0.155
0.065
-0.015
-0.08
-0.055
-0.05
-0.05
-0.09
-0.115
-0.12
-0.095
-0.095
0.26
1.29
3.49
4.89
2.74
0.13
-0.23
-0.205
-0.235
-0.235
-0.255
-0.24
-0.22
-0.24
-0.235
-0.205
-0.21
-0.26
-0.25
-0.24
-0.25
-0.29
-0.295
-0.315
-0.345
-0.35
-0.345
-0.34
-0.305
-0.315
-0.24
-0.105
0.03
0.045
0.09
0.105
0.055
0.025
0.05
0.055
0.045
0.005
-0.005
-0.015
0.03
0.035
-0.025
-0.055
-0.03
-0.065
-0.065
-0.09
-0.095
-0.09
-0.02
0.005
0.005
0.0
0.01
0.005
-0.01
-0.015
0.005
0.02
0.07
0.07
0.13
0.205
0.26
0.285
0.29
0.24
0.175
0.11
0.035
-0.015
-0.02
-0.02
-0.015
-0.02
-0.04
-0.05
-0.095
0.05
0.83
2.49
4.715
4.11
1.145
-0.075
-0.03
-0.15
-0.205
-0.205
-0.205
-0.24
-0.24
-0.245
-0.26
-0.255
-0.235
-0.27
-0.29
-0.3
-0.325
-0.345
-0.345
-0.385
-0.42
-0.455
-0.445
-0.42
-0.365
-0.305
-0.23
-0.165
-0.045
0.02
0.05
0.035
0.03
0.04
0.035
-0.045
-0.035
-0.035
-0.04
-0.06
-0.07
-0.08
-0.095
-0.13
-0.15
-0.12
-0.105
-0.145
-0.135
-0.105
-0.075
-0.1
-0.115
-0.085
-0.055
-0.095
-0.065
-0.045
-0.045
-0.03
0.0
0.08
0.205
0.24
0.155
0.105
0.13
0.08
-0.06
-0.095
-0.08
-0.105
-0.105
-0.115
-0.095
-0.11
-0.135
-0.115
0.385
1.54
3.745
4.565
2.03
-0.105
-0.2
-0.21
-0.265
-0.305
-0.325
-0.295
-0.24
-0.215
-0.23
-0.285
-0.27
-0.24
-0.305
-0.34
-0.33
-0.315
-0.35
-0.35
-0.325
-0.38
-0.365
-0.355
-0.365
-0.3
-0.185
-0.14
-0.13
-0.07
-0.015
0.005
0.005
-0.035
-0.065
-0.07
-0.1
-0.11
-0.105
-0.105
-0.15
-0.175
-0.2
-0.17
-0.14
-0.155
-0.18
-0.19
-0.14
-0.115
-0.14
-0.135
-0.14
-0.145
-0.135
-0.095
-0.07
-0.105
-0.105
-0.07
-0.045
-0.05
0.01
0.105
0.15
0.155
0.13
0.04
-0.07
-0.105
-0.15
-0.175
-0.145
-0.145
-0.17
-0.185
-0.18
-0.205
-0.085
0.57
2.055
4.215
4.08
1.19
-0.39
-0.315
-0.295
-0.325
-0.34
-0.34
-0.325
-0.34
-0.31
-0.29
-0.295
-0.33
-0.345
-0.315
-0.34
-0.365
-0.38
-0.4
-0.425
-0.415
-0.41
-0.425
-0.455
-0.425
-0.355
-0.3
-0.22
-0.08
-0.03
-0.06
-0.03
-0.01
-0.035
-0.07
-0.1
-0.105
-0.08
-0.095
-0.11
-0.115
-0.15
-0.195
-0.185
-0.165
-0.14
-0.145
-0.165
-0.14
-0.105
-0.09
-0.115
-0.135
-0.105
-0.085
-0.125
-0.13
-0.115
-0.095
-0.01
-0.005
-0.03
0.05
0.165
0.185
0.12
0.095
0.055
-0.05
-0.125
-0.105
-0.095
-0.155
-0.17
-0.185
-0.165
-0.125
-0.18
-0.145
0.4
1.695
4.055
4.655
1.91
-0.135
-0.205
-0.225
-0.325
-0.32
-0.335
-0.36
-0.375
-0.335
-0.315
-0.33
-0.365
-0.4
-0.38
-0.355
-0.385
-0.405
-0.44
-0.5
-0.535
-0.555
-0.595
-0.56
-0.535
-0.525
-0.43
-0.305
-0.215
-0.14
-0.095
-0.06
-0.06
-0.07
-0.095
-0.13
-0.095
-0.08
-0.155
-0.165
-0.145
-0.165
-0.135
-0.17
-0.235
-0.25
-0.215
-0.21
-0.21
-0.185
-0.155
-0.15
-0.135
-0.125
-0.145
-0.175
-0.14
-0.135
-0.13
-0.07
-0.05
-0.065
0.04
0.155
0.175
0.16
0.09
0.0
-0.055
-0.095
-0.13
-0.145
-0.135
-0.135
-0.14
-0.185
-0.24
-0.285
-0.06
0.72
2.235
4.325
3.835
0.985
-0.23
-0.175
-0.265
-0.32
-0.33
-0.355
-0.33
-0.33
-0.345
-0.325
-0.335
-0.38
-0.36
-0.345
-0.34
-0.36
-0.42
-0.425
-0.475
-0.505
-0.475
-0.56
-0.545
-0.46
-0.425
-0.36
-0.285
-0.145
-0.03
-0.065
-0.1
-0.08
-0.12
-0.105
-0.06
-0.125
-0.155
-0.13
-0.145
-0.19
-0.215
-0.215
-0.225
-0.23
-0.2
-0.185
-0.19
-0.155
-0.13
-0.12
-0.115
-0.125
-0.125
-0.145
-0.15
-0.135
-0.11
-0.11
-0.08
-0.015
0.055
0.12
0.185
0.2
0.145
0.05
-0.075
-0.125
-0.125
-0.135
-0.145
-0.16
-0.15
-0.145
-0.145
-0.195
-0.09
0.54
1.895
4.095
4.145
1.385
-0.215
-0.215
-0.24
-0.31
-0.33
-0.325
-0.335
-0.335
-0.32
-0.33
-0.365
-0.37
-0.345
-0.34
-0.37
-0.385
-0.395
-0.425
-0.465
-0.53
-0.545
-0.54
-0.55
-0.515
-0.475
-0.41
-0.3
-0.215
-0.135
-0.075
-0.045
-0.05
-0.085
-0.095
-0.115
-0.09
-0.08
-0.145
-0.185
-0.165
-0.17
-0.18
-0.185
-0.195
-0.185
-0.165
-0.18
-0.155
-0.085
-0.065
-0.085
-0.13
-0.16
-0.12
-0.105
-0.08
-0.07
-0.055
-0.035
-0.05
-0.02
0.095
0.19
0.175
0.145
0.115
0.015
-0.05
-0.08
-0.11
-0.15
-0.15
-0.14
-0.165
-0.145
-0.135
-0.155
0.255
1.295
3.47
4.695
2.505
0.185
-0.1
-0.135
-0.24
-0.265
-0.265
-0.285
-0.31
-0.325
-0.3
-0.325
-0.36
-0.355
-0.335
-0.355
-0.355
-0.385
-0.41
-0.47
-0.495
-0.525
-0.555
-0.585
-0.55
-0.52
-0.44
-0.34
-0.23
-0.145
-0.055
-0.035
-0.03
-0.035
-0.015
-0.01
-0.015
-0.08
-0.095
-0.12
-0.105
-0.065
-0.065
-0.115
-0.12
-0.19
-0.175
-0.13
-0.11
-0.1
-0.105
-0.105
-0.095
-0.135
-0.095
-0.065
-0.055
-0.04
-0.005
-0.075
-0.005
0.135
0.21
0.225
0.21
0.14
0.025
-0.065
-0.09
-0.115
-0.095
-0.105
-0.125
-0.11
-0.105
-0.155
-0.18
0.325
1.44
3.455
4.375
2.1
0.025
-0.13
-0.155
-0.265
-0.295
-0.265
-0.27
-0.29
-0.29
-0.285
-0.275
-0.285
-0.285
-0.305
-0.315
-0.325
-0.335
-0.365
-0.4
-0.43
-0.455
-0.485
-0.49
-0.465
-0.43
-0.41
-0.355
-0.215
-0.11
-0.055
-0.015
-0.035
-0.055
-0.065
-0.05
-0.05
-0.08
-0.11
-0.13
-0.125
-0.135
-0.155
-0.165
-0.14
-0.14
-0.115
-0.135
-0.125
-0.08
-0.085
-0.08
-0.07
-0.095
-0.09
-0.07
-0.07
-0.07
-0.06
-0.1
-0.02
0.095
0.195
0.215
0.17
0.11
0.045
-0.055
-0.105
-0.13
-0.12
-0.13
-0.12
-0.12
-0.115
-0.155
-0.2
0.185
1.175
3.17
4.595
2.675
0.325
-0.06
-0.125
-0.25
-0.325
-0.365
-0.325
-0.325
-0.3
-0.31
-0.325
-0.345
-0.325
-0.335
-0.355
-0.39
-0.41
-0.45
-0.495
-0.525
-0.545
-0.6
-0.625
-0.63
-0.58
-0.525
-0.425
-0.335
-0.26
-0.155
-0.08
-0.06
-0.02
-0.035
-0.08
-0.095
-0.07
-0.11
-0.145
-0.18
-0.15
-0.15
-0.145
-0.135
-0.17
-0.17
-0.12
-0.135
-0.08
-0.08
-0.115
-0.1
-0.085
-0.11
-0.06
-0.085
-0.07
-0.01
-0.01
0.05
0.14
0.185
0.205
0.155
0.1
-0.01
-0.05
-0.14
-0.15
-0.105
-0.155
-0.2
-0.13
-0.13
-0.17
-0.025
0.585
1.75
3.78
3.925
1.46
-0.05
-0.12
-0.17
-0.255
-0.295
-0.295
-0.305
-0.305
-0.335
-0.325
-0.31
-0.295
-0.285
-0.255
-0.335
-0.39
-0.415
-0.425
-0.435
-0.46
-0.495
-0.515
-0.555
-0.535
-0.525
-0.45
-0.35
-0.22
-0.125
-0.075
-0.05
-0.03
-0.07
-0.09
-0.09
-0.095
-0.125
-0.13
-0.15
-0.13
-0.175
-0.18
-0.145
-0.135
-0.14
-0.11
-0.11
-0.095
-0.075
-0.045
-0.08
-0.1
-0.08
-0.07
-0.07
-0.035
-0.045
-0.005
0.035
0.125
0.205
0.215
0.19
0.145
-0.005
-0.07
-0.095
-0.11
-0.125
-0.125
-0.125
-0.145
-0.13
-0.14
-0.1
0.49
1.62
3.63
4.08
1.665
-0.045
-0.095
-0.185
-0.28
-0.285
-0.27
-0.29
-0.305
-0.305
-0.28
-0.275
-0.275
-0.32
-0.305
-0.3
-0.325
-0.385
-0.39
-0.43
-0.46
-0.485
-0.5
-0.535
-0.545
-0.55
-0.465
-0.355
-0.245
-0.185
-0.105
-0.04
-0.015
-0.03
-0.045
-0.07
-0.075
-0.11
-0.08
-0.105
-0.115
-0.115
-0.095
-0.105
-0.095
-0.09
-0.07
-0.08
-0.065
-0.065
-0.04
-0.03
-0.035
-0.055
-0.03
-0.045
-0.015
0.005
-0.025
0.005
0.155
0.275
0.315
0.21
0.145
0.085
0.01
-0.065
-0.055
-0.08
-0.055
-0.055
-0.105
-0.115
-0.095
-0.125
0.28
1.315
3.455
4.525
2.385
0.265
0.0
-0.105
-0.215
-0.22
-0.24
-0.29
-0.275
-0.325
-0.33
-0.315
-0.28
-0.265
-0.305
-0.32
-0.305
-0.355
-0.405
-0.425
-0.47
-0.535
-0.535
-0.545
-0.54
-0.52
-0.475
-0.41
-0.26
-0.15
-0.09
-0.025
0.035
0.035
0.015
0.025
-0.03
-0.045
-0.055
-0.07
-0.03
-0.015
-0.06
-0.09
-0.07
-0.08
-0.055
-0.01
-0.01
-0.03
-0.09
-0.065
0.025
0.04
-0.025
-0.02
0.03
0.025
0.02
0.195
0.33
0.335
0.24
0.14
0.08
0.045
0.045
-0.005
-0.065
-0.05
-0.065
-0.06
-0.05
-0.045
-0.08
0.26
1.16
2.915
4.175
2.455
0.27
-0.13
-0.175
-0.21
-0.26
-0.245
-0.23
-0.21
-0.225
-0.21
-0.215
-0.215
-0.23
-0.24
-0.275
-0.24
-0.24
-0.29
-0.305
-0.295
-0.36
-0.395
-0.425
-0.415
-0.4
-0.36
-0.32
-0.255
-0.155
-0.04
-0.025
0.015
0.02
0.015
-0.025
-0.03
-0.055
-0.06
-0.08
-0.085
-0.125
-0.085
-0.045
-0.035
-0.04
-0.015
-0.02
-0.015
-0.005
0.01
-0.03
-0.02
-0.015
-0.01
0.01
0.055
0.025
0.005
0.09
0.215
0.265
0.265
0.235
0.175
0.07
0.025
-0.03
-0.025
-0.055
-0.065
-0.065
-0.04
-0.06
-0.095
0.0
0.575
1.765
3.85
4.145
1.67
-0.005
-0.07
-0.1
-0.18
-0.215
-0.205
-0.225
-0.245
-0.265
-0.25
-0.275
-0.27
-0.275
-0.27
-0.3
-0.325
-0.32
-0.31
-0.355
-0.445
-0.485
-0.47
-0.515
-0.515
-0.51
-0.45
-0.35
-0.22
-0.125
-0.05
0.01
0.045
0.035
0.025
0.01
0.015
-0.025
-0.03
-0.075
-0.07
-0.05
-0.045
-0.085
-0.08
-0.06
-0.015
0.0
-0.015
-0.025
-0.015
-0.03
-0.005
0.015
0.02
0.015
0.03
0.015
0.045
0.14
0.27
0.275
0.27
0.215
0.145
0.04
-0.01
-0.015
-0.035
-0.03
-0.06
-0.08
-0.055
-0.045
-0.115
0.085
0.835
2.37
4.285
3.55
1.01
0.04
-0.04
-0.125
-0.2
-0.22
-0.24
-0.24
-0.23
-0.225
-0.235
-0.265
-0.24
-0.25
-0.27
-0.28
-0.29
-0.34
-0.35
-0.365
-0.455
-0.5
-0.495
-0.53
-0.535
-0.49
-0.41
-0.275
-0.18
-0.08
-0.01
0.025
0.03
0.035
0.04
0.005
-0.01
0.005
-0.015
-0.05
-0.055
-0.07
-0.08
-0.08
-0.07
-0.03
-0.015
-0.055
-0.07
-0.025
0.04
0.015
-0.03
-0.02
-0.005
0.015
-0.01
0.015
0.105
0.19
0.275
0.305
0.275
0.17
0.065
0.03
-0.03
-0.035
-0.005
-0.025
-0.055
-0.06
-0.09
-0.095
-0.115
0.275
1.23
2.92
4.03
2.28
0.205
-0.09
-0.13
-0.22
-0.28
-0.235
-0.205
-0.215
-0.225
-0.245
-0.23
-0.205
-0.225
-0.235
-0.28
-0.255
-0.24
-0.27
-0.265
-0.3
-0.395
-0.425
-0.37
-0.395
-0.425
-0.385
-0.34
-0.25
-0.115
-0.055
-0.025
0.01
0.025
0.005
-0.02
-0.05
-0.095
-0.12
-0.08
-0.055
-0.08
-0.055
-0.035
-0.07
-0.02
0.005
-0.025
-0.03
-0.005
-0.025
-0.035
0.015
0.03
-0.025
-0.035
-0.005
0.03
0.035
0.055
0.155
0.28
0.285
0.24
0.165
0.07
0.005
-0.055
-0.08
-0.08
-0.07
-0.065
-0.095
-0.08
-0.075
-0.11
0.28
1.32
3.24
4.225
2.145
0.1
-0.105
-0.165
-0.225
-0.205
-0.2
-0.225
-0.24
-0.22
-0.215
-0.24
-0.245
-0.235
-0.24
-0.23
-0.24
-0.27
-0.285
-0.315
-0.365
-0.38
-0.415
-0.455
-0.455
-0.445
-0.43
-0.345
-0.225
-0.12
-0.065
-0.025
0.0
0.035
0.035
-0.02
-0.04
-0.03
-0.045
-0.055
-0.05
-0.03
-0.05
-0.05
-0.03
-0.01
0.015
-0.01
-0.015
0.015
0.01
-0.005
0.005
0.025
0.015
-0.01
0.02
0.045
0.02
0.05
0.155
0.25
0.29
0.275
0.19
0.115
0.035
-0.035
-0.04
-0.03
-0.055
-0.07
-0.035
-0.045
-0.07
-0.16
0.095
0.915
2.51
4.31
3.355
0.875
0.01
-0.065
-0.155
-0.225
-0.24
-0.265
-0.245
-0.235
-0.265
-0.29
-0.29
-0.27
-0.27
-0.295
-0.3
-0.305
-0.36
-0.39
-0.395
-0.455
-0.485
-0.54
-0.555
-0.525
-0.485
-0.435
-0.33
-0.235
-0.14
-0.055
-0.015
-0.015
-0.015
-0.025
-0.05
-0.045
-0.055
-0.075
-0.08
-0.125
-0.125
-0.105
-0.12
-0.1
-0.085
-0.095
-0.07
-0.07
-0.065
-0.07
-0.045
-0.035
-0.055
-0.075
-0.05
-0.015
-0.015
-0.035
0.055
0.165
0.25
0.24
0.19
0.1
-0.005
-0.075
-0.1
-0.105
-0.09
-0.105
-0.095
-0.1
-0.08
-0.13
-0.14
0.29
1.25
3.225
4.345
2.33
0.265
-0.015
-0.075
-0.2
-0.265
-0.285
-0.29
-0.345
-0.295
-0.28
-0.28
-0.305
-0.31
-0.335
-0.32
-0.34
-0.385
-0.44
-0.435
-0.49
-0.525
-0.565
-0.585
-0.59
-0.59
-0.575
-0.46
-0.33
-0.19
-0.105
-0.07
-0.07
-0.05
-0.055
-0.045
-0.05
-0.085
-0.1
-0.08
-0.09
-0.09
-0.125
-0.135
-0.135
-0.125
-0.135
-0.12
-0.06
-0.07
-0.09
-0.075
-0.05
-0.015
-0.025
-0.06
-0.05
-0.04
-0.07
-0.04
0.08
0.185
0.265
0.27
0.195
0.075
-0.02
-0.08
-0.115
-0.115
-0.115
-0.12
-0.09
-0.09
-0.105
-0.17
-0.055
0.515
1.68
3.515
3.55
1.245
-0.09
-0.205
-0.175
-0.23
-0.32
-0.31
-0.24
-0.27
-0.295
-0.305
-0.29
-0.29
-0.28
-0.27
-0.29
-0.34
-0.345
-0.375
-0.37
-0.415
-0.45
-0.5
-0.5
-0.49
-0.475
-0.43
-0.28
-0.215
-0.18
-0.095
-0.02
-0.02
-0.045
-0.035
-0.06
-0.11
-0.115
-0.13
-0.095
-0.1
-0.13
-0.1
-0.08
-0.085
-0.045
-0.08
-0.07
-0.055
-0.035
-0.055
-0.025
-0.065
-0.095
-0.08
-0.09
-0.075
-0.045
-0.045
0.04
0.135
0.25
0.24
0.155
0.105
0.045
-0.055
-0.09
-0.105
-0.095
-0.105
-0.115
-0.115
-0.11
-0.13
-0.17
0.175
1.13
2.84
3.995
2.165
0.08
-0.235
-0.26
-0.285
-0.285
-0.295
-0.285
-0.31
-0.305
-0.285
-0.285
-0.31
-0.335
-0.31
-0.24
-0.295
-0.31
-0.34
-0.375
-0.41
-0.435
-0.475
-0.49
-0.5
-0.52
-0.515
-0.445
-0.36
-0.225
-0.155
-0.095
-0.07
-0.045
-0.08
-0.095
-0.13
-0.13
-0.155
-0.135
-0.135
-0.13
-0.13
-0.085
-0.085
-0.065
-0.085
-0.065
-0.055
-0.055
-0.075
-0.06
-0.075
-0.08
-0.065
-0.035
-0.07
-0.085
-0.05
-0.015
-0.02
0.09
0.175
0.195
0.17
0.135
0.055
-0.025
-0.095
-0.105
-0.115
-0.13
-0.15
-0.135
-0.145
-0.16
-0.215
0.01
0.755
2.27
4.13
3.445
0.895
-0.08
-0.14
-0.215
-0.295
-0.32
-0.33
-0.315
-0.335
-0.305
-0.305
-0.305
-0.295
-0.305
-0.35
-0.355
-0.38
-0.395
-0.415
-0.455
-0.53
-0.555
-0.56
-0.56
-0.59
-0.57
-0.52
-0.385
-0.285
-0.165
-0.095
-0.075
-0.06
-0.035
-0.06
-0.065
-0.075
-0.09
-0.14
-0.1
-0.12
-0.15
-0.16
-0.12
-0.125
-0.135
-0.15
-0.12
-0.105
-0.095
-0.08
-0.055
-0.085
-0.105
-0.105
-0.06
-0.05
-0.02
-0.045
-0.02
0.075
0.19
0.175
0.195
0.165
0.09
-0.035
-0.065
-0.065
-0.075
-0.13
-0.125
-0.115
-0.105
-0.12
-0.19
-0.025
0.71
2.185
4.125
3.555
1.05
0.035
-0.04
-0.165
-0.26
-0.29
-0.265
-0.275
-0.285
-0.3
-0.29
-0.285
-0.27
-0.305
-0.35
-0.345
-0.325
-0.39
-0.41
-0.435
-0.465
-0.53
-0.555
-0.56
-0.56
-0.52
-0.435
-0.34
-0.205
-0.12
-0.035
-0.015
0.005
0.015
0.025
0.03
0.005
-0.01
-0.03
-0.065
-0.06
-0.075
-0.07
-0.065
-0.08
-0.09
-0.065
-0.03
-0.01
-0.03
-0.035
-0.025
-0.03
-0.025
-0.01
-0.025
-0.05
-0.01
0.025
0.065
0.2
0.285
0.26
0.25
0.205
0.13
0.035
-0.03
-0.04
-0.025
-0.03
-0.03
-0.03
-0.055
-0.07
-0.11
0.11
0.825
2.235
3.92
3.13
0.855
0.05
-0.045
-0.13
-0.205
-0.225
-0.21
-0.2
-0.19
-0.24
-0.21
-0.215
-0.235
-0.245
-0.24
-0.25
-0.24
-0.27
-0.295
-0.355
-0.38
-0.395
-0.415
-0.4
-0.38
-0.38
-0.32
-0.26
-0.135
-0.04
-0.005
0.08
0.085
0.005
-0.01
-0.005
0.035
0.025
0.02
-0.02
-0.05
-0.04
-0.03
-0.04
-0.02
-0.01
0.01
-0.025
-0.01
0.015
0.015
0.005
0.03
0.025
0.04
0.015
0.035
0.055
0.07
0.075
0.195
0.295
0.33
0.3
0.255
0.145
0.045
-0.005
0.01
-0.015
-0.04
-0.05
-0.04
-0.045
-0.035
-0.11
0.135
0.915
2.395
3.965
2.93
0.67
-0.02
-0.105
-0.155
-0.21
-0.22
-0.235
-0.225
-0.235
-0.21
-0.21
-0.235
-0.225
-0.24
-0.265
-0.25
-0.265
-0.27
-0.315
-0.36
-0.405
-0.445
-0.465
-0.455
-0.48
-0.47
-0.405
-0.29
-0.205
-0.075
-0.015
-0.01
-0.005
0.015
-0.005
-0.025
-0.035
-0.035
-0.055
-0.07
-0.09
-0.045
-0.025
-0.045
-0.065
-0.045
-0.05
0.015
0.035
0.01
-0.02
-0.005
0.01
-0.005
-0.025
-0.025
-0.03
0.03
0.045
0.035
0.04
0.17
0.28
0.295
0.245
0.185
0.08
0.005
-0.04
-0.03
-0.03
-0.035
-0.07
-0.05
-0.04
-0.065
-0.09
0.315
1.28
3.305
4.4
2.38
0.33
0.075
-0.03
-0.155
-0.215
-0.22
-0.23
-0.22
-0.205
-0.225
-0.235
-0.23
-0.25
-0.26
-0.285
-0.285
-0.295
-0.315
-0.375
-0.415
-0.44
-0.475
-0.525
-0.525
-0.485
-0.425
-0.34
-0.22
-0.125
-0.04
0.015
0.055
0.045
0.055
0.055
0.045
0.02
0.0
0.0
0.015
-0.005
-0.005
-0.04
-0.05
-0.035
-0.03
-0.015
0.02
0.03
0.025
0.03
0.035
0.02
0.04
0.035
0.025
0.065
0.09
0.085
0.11
0.205
0.3
0.31
0.27
0.275
0.215
0.085
0.04
0.025
0.015
0.01
0.01
-0.005
0.01
0.03
-0.03
0.215
0.97
2.51
4.115
3.035
0.755
0.1
0.03
-0.1
-0.17
-0.165
-0.175
-0.175
-0.13
-0.15
-0.2
-0.21
-0.21
-0.18
-0.185
-0.26
-0.255
-0.245
-0.29
-0.315
-0.335
-0.375
-0.395
-0.38
-0.43
-0.395
-0.275
-0.165
-0.08
0.01
0.065
0.08
0.065
0.055
0.07
0.05
0.03
-0.005
-0.01
0.005
0.015
-0.005
-0.045
-0.08
-0.055
0.005
0.015
0.045
0.05
0.025
0.015
0.015
0.02
0.06
0.04
0.02
0.03
0.03
0.065
0.155
0.24
0.295
0.355
0.275
0.205
0.155
0.065
0.025
0.005
-0.005
-0.015
-0.045
-0.025
-0.04
-0.05
-0.105
0.23
1.175
2.83
4.035
2.435
0.28
-0.155
-0.185
-0.2
-0.22
-0.21
-0.21
-0.165
-0.2
-0.22
-0.165
-0.18
-0.205
-0.2
-0.195
-0.205
-0.225
-0.21
-0.22
-0.24
-0.255
-0.285
-0.315
-0.295
-0.265
-0.24
-0.2
-0.135
-0.05
0.01
0.065
0.085
0.08
0.095
0.08
0.06
0.035
0.005
-0.005
0.015
-0.015
-0.03
-0.01
0.015
0.015
0.04
0.065
0.045
0.045
0.06
0.045
0.05
0.055
0.045
0.035
0.05
0.075
0.07
0.085
0.195
0.305
0.325
0.315
0.31
0.205
0.06
0.01
0.015
-0.005
-0.025
-0.025
-0.025
-0.03
-0.025
-0.05
-0.01
0.505
1.58
3.585
4.165
1.81
0.05
-0.03
-0.085
-0.175
-0.2
-0.195
-0.195
-0.205
-0.2
-0.195
-0.2
-0.215
-0.21
-0.235
-0.24
-0.255
-0.295
-0.315
-0.34
-0.36
-0.385
-0.425
-0.465
-0.47
-0.435
-0.375
-0.28
-0.17
-0.075
0.015
0.035
0.035
0.08
0.07
0.03
0.02
0.01
-0.02
0.01
0.01
-0.03
-0.03
-0.035
-0.045
-0.05
-0.03
-0.005
0.005
0.03
0.025
0.02
0.04
0.035
0.03
0.02
0.02
0.025
0.05
0.035
0.085
0.23
0.33
0.345
0.31
0.235
0.145
0.08
0.025
-0.005
-0.025
-0.03
-0.005
0.005
0.015
-0.01
-0.1
0.155
0.95
2.605
4.44
3.435
0.895
0.085
0.045
-0.09
-0.155
-0.175
-0.185
-0.195
-0.195
-0.21
-0.205
-0.205
-0.215
-0.235
-0.24
-0.25
-0.27
-0.33
-0.375
-0.395
-0.4
-0.44
-0.455
-0.455
-0.44
-0.41
-0.34
-0.255
-0.115
-0.005
0.055
0.075
0.115
0.115
0.1
0.09
0.08
0.02
0.035
0.025
0.015
-0.005
-0.01
-0.015
-0.035
-0.04
0.005
-0.005
-0.015
-0.025
0.01
0.02
0.045
0.035
0.005
0.03
0.06
0.065
0.105
0.08
0.1
0.175
0.29
0.34
0.325
0.26
0.17
0.08
0.025
0.015
0.03
-0.005
0.02
-0.005
-0.03
-0.025
-0.06
0.12
0.81
2.135
3.97
3.485
1.135
0.14
0.045
-0.075
-0.2
-0.2
-0.2
-0.19
-0.18
-0.175
-0.185
-0.205
-0.21
-0.21
-0.225
-0.24
-0.255
-0.29
-0.285
-0.295
-0.35
-0.4
-0.41
-0.415
-0.405
-0.365
-0.335
-0.235
-0.08
0.02
0.055
0.105
0.095
0.085
0.085
0.08
0.055
0.045
0.045
0.0
0.0
0.04
-0.01
-0.035
-0.01
0.03
-0.005
0.005
0.02
0.04
0.07
0.08
0.055
0.04
0.025
0.035
0.055
0.105
0.08
0.05
0.17
0.32
0.33
0.31
0.3
0.25
0.145
0.085
0.015
0.005
0.005
0.02
0.005
-0.015
-0.015
-0.045
-0.065
0.44
1.425
3.25
4.1
2.005
0.09
-0.015
-0.105
-0.205
-0.25
-0.235
-0.19
-0.18
-0.205
-0.175
-0.165
-0.165
-0.195
-0.195
-0.225
-0.215
-0.21
-0.205
-0.24
-0.28
-0.295
-0.3
-0.325
-0.33
-0.325
-0.225
-0.185
-0.125
-0.045
0.05
0.09
0.1
0.07
0.04
0.01
0.06
0.025
-0.025
-0.05
-0.03
0.01
0.015
-0.02
0.005
0.005
0.03
0.07
0.085
0.065
0.08
0.08
0.075
0.045
0.05
0.055
0.055
0.055
0.095
0.09
0.12
0.175
0.29
0.34
0.345
0.305
0.25
0.155
0.13
0.07
0.03
0.0
0.025
0.035
0.02
0.005
0.035
-0.025
0.275
1.155
2.985
4.425
2.8
0.515
0.06
-0.025
-0.115
-0.165
-0.16
-0.15
-0.115
-0.15
-0.165
-0.15
-0.135
-0.165
-0.17
-0.22
-0.205
-0.19
-0.23
-0.295
-0.305
-0.325
-0.345
-0.37
-0.38
-0.39
-0.345
-0.305
-0.165
-0.03
0.025
0.045
0.085
0.095
0.11
0.08
0.065
0.055
0.065
0.035
-0.005
-0.01
0.035
-0.005
-0.02
-0.01
0.025
0.03
0.04
0.045
0.05
0.055
0.06
0.035
0.055
0.065
0.075
0.06
0.1
0.115
0.115
0.18
0.305
0.365
0.4
0.335
0.245
0.16
0.11
0.05
0.035
0.005
0.03
0.045
0.045
0.025
-0.025
-0.025
0.435
1.415
3.51
4.56
2.425
0.36
0.14
0.035
-0.125
-0.15
-0.14
-0.155
-0.165
-0.19
-0.195
-0.2
-0.2
-0.185
-0.165
-0.21
-0.24
-0.27
-0.28
-0.335
-0.385
-0.425
-0.45
-0.49
-0.475
-0.435
-0.375
-0.285
-0.14
-0.055
0.035
0.085
0.12
0.105
0.095
0.085
0.08
0.055
0.045
0.05
0.055
0.02
0.02
0.005
-0.02
-0.03
0.005
0.02
0.03
0.04
0.03
0.025
0.055
0.065
0.07
0.07
0.065
0.07
0.085
0.105
0.13
0.155
0.23
0.315
0.385
0.375
0.305
0.23
0.11
0.04
0.03
0.01
0.04
0.045
0.025
0.04
0.01
-0.015
0.005
0.44
1.445
3.515
4.395
2.235
0.375
0.19
0.035
-0.155
-0.185
-0.155
-0.165
-0.175
-0.19
-0.195
-0.22
-0.19
-0.18
-0.2
-0.215
-0.225
-0.29
-0.33
-0.33
-0.35
-0.445
-0.455
-0.465
-0.465
-0.455
-0.38
-0.275
-0.15
-0.015
0.075
0.105
0.13
0.1
0.115
0.1
0.105
0.09
0.045
0.045
0.08
0.035
0.035
0.03
0.015
0.01
0.025
0.015
0.025
0.04
0.045
0.005
0.05
0.09
0.095
0.055
0.08
0.055
0.08
0.12
0.155
0.155
0.195
0.275
0.4
0.42
0.37
0.255
0.15
0.075
0.065
0.05
0.03
0.015
0.035
0.01
0.005
0.03
0.015
0.3
1.18
2.855
4.05
2.42
0.415
0.085
0.01
-0.13
-0.17
-0.165
-0.14
-0.145
-0.145
-0.19
-0.16
-0.12
-0.105
-0.125
-0.11
-0.175
-0.235
-0.235
-0.2
-0.24
-0.27
-0.305
-0.38
-0.4
-0.335
-0.26
-0.195
-0.14
-0.035
0.0
0.05
0.1
0.15
0.105
0.07
0.06
0.035
0.015
-0.01
-0.05
0.01
0.02
0.015
0.015
0.02
0.01
0.055
0.12
0.115
0.08
0.045
0.025
0.08
0.085
0.045
0.04
0.085
0.07
0.085
0.13
0.145
0.23
0.315
0.35
0.38
0.34
0.24
0.105
0.055
0.04
0.025
0.0
0.02
0.02
0.005
-0.005
-0.035
-0.05
0.375
1.355
3.2
4.215
2.245
0.17
-0.08
-0.155
-0.2
-0.22
-0.195
-0.19
-0.195
-0.195
-0.2
-0.2
-0.185
-0.19
-0.185
-0.215
-0.215
-0.21
-0.24
-0.285
-0.305
-0.315
-0.35
-0.38
-0.375
-0.365
-0.345
-0.27
-0.16
-0.095
-0.025
0.045
0.07
0.06
0.05
0.055
0.035
0.005
-0.01
-0.02
-0.025
-0.03
-0.025
-0.01
0.0
-0.01
0.015
0.055
0.085
0.055
0.025
0.045
0.065
0.065
0.05
0.05
0.045
0.02
0.025
0.05
0.065
0.085
0.11
0.195
0.32
0.365
0.335
0.275
0.17
0.07
0.015
-0.01
-0.005
-0.03
-0.04
-0.025
-0.05
-0.02
-0.07
0.005
0.57
1.795
3.94
4.195
1.655
0.065
0.005
-0.085
-0.19
-0.2
-0.215
-0.225
-0.215
-0.205
-0.22
-0.24
-0.26
-0.24
-0.235
-0.255
-0.285
-0.31
-0.34
-0.375
-0.42
-0.45
-0.465
-0.495
-0.52
-0.49
-0.415
-0.31
-0.205
-0.1
-0.025
0.025
0.05
0.025
0.02
0.03
0.015
-0.005
-0.015
-0.025
-0.03
-0.045
-0.07
-0.065
-0.075
-0.065
-0.05
-0.045
-0.045
-0.05
-0.04
-0.015
-0.02
-0.025
-0.005
-0.005
0.005
0.005
-0.005
0.01
0.045
0.045
0.08
0.185
0.28
0.305
0.31
0.27
0.165
0.05
-0.005
-0.015
-0.025
-0.065
-0.06
-0.045
-0.04
-0.025
-0.09
-0.02
0.515
1.73
3.905
4.215
1.735
0.155
0.055
-0.055
-0.175
-0.21
-0.24
-0.225
-0.22
-0.24
-0.245
-0.23
-0.22
-0.225
-0.25
-0.29
-0.32
-0.325
-0.345
-0.38
-0.415
-0.46
-0.505
-0.505
-0.505
-0.475
-0.415
-0.33
-0.195
-0.065
0.015
0.065
0.07
0.09
0.085
0.045
0.065
0.06
0.025
0.01
0.01
-0.045
-0.05
0.01
0.01
-0.05
-0.06
-0.04
-0.02
0.005
0.02
0.055
0.015
-0.025
0.015
0.055
0.04
0.02
0.045
0.045
0.08
0.13
0.115
0.135
0.285
0.345
0.315
0.33
0.25
0.135
0.075
0.005
-0.035
-0.01
-0.01
-0.05
-0.045
-0.035
0.005
-0.08
0.2
1.05
2.48
3.83
2.665
0.49
-0.175
-0.2
-0.145
-0.14
-0.265
-0.245
-0.19
-0.22
-0.225
-0.19
-0.185
-0.185
-0.175
-0.205
-0.235
-0.21
-0.2
-0.26
-0.315
-0.34
-0.265
-0.235
-0.24
-0.285
-0.325
-0.24
-0.185
-0.095
-0.04
-0.015
0.015
0.015
0.015
-0.035
-0.035
-0.02
-0.055
-0.085
-0.075
-0.065
-0.085
-0.07
-0.03
-0.04
-0.04
-0.01
-0.01
0.02
0.035
0.02
-0.025
-0.045
-0.025
-0.015
-0.045
-0.04
0.015
0.06
0.03
0.03
0.145
0.26
0.295
0.275
0.185
0.095
-0.005
-0.055
-0.095
-0.105
-0.115
-0.125
-0.115
-0.125
-0.13
-0.195
-0.105
0.55
1.87
3.75
3.695
1.17
-0.305
-0.265
-0.27
-0.3
-0.295
-0.29
-0.275
-0.27
-0.285
-0.28
-0.295
-0.29
-0.27
-0.26
-0.27
-0.285
-0.29
-0.295
-0.32
-0.335
-0.375
-0.405
-0.405
-0.41
-0.435
-0.375
-0.28
-0.2
-0.12
-0.07
-0.04
-0.03
-0.035
-0.015
-0.02
-0.05
-0.065
-0.1
-0.12
-0.09
-0.095
-0.105
-0.105
-0.085
-0.085
-0.075
-0.075
-0.04
-0.03
-0.05
-0.05
-0.035
-0.05
-0.04
-0.055
-0.035
-0.03
-0.005
0.01
0.04
0.11
0.175
0.205
0.215
0.17
0.08
-0.04
-0.07
-0.1
-0.105
-0.13
-0.135
-0.145
-0.135
-0.145
-0.2
-0.065
0.68
2.32
4.365
3.725
0.89
-0.325
-0.265
-0.285
-0.3
-0.3
-0.3
-0.31
-0.29
-0.315
-0.33
-0.28
-0.23
-0.23
-0.255
-0.31
-0.365
-0.375
-0.25
-0.2
-0.315
-0.475
-0.53
-0.515
-0.52
-0.485
-0.4
-0.33
-0.235
-0.115
-0.015
0.035
0.03
0.005
0.015
0.01
-0.005
-0.015
-0.035
-0.06
-0.055
-0.08
-0.085
-0.09
-0.095
-0.105
-0.095
-0.08
-0.08
-0.075
-0.065
-0.075
-0.06
-0.055
-0.07
-0.05
0.02
0.03
0.02
0.08
0.195
0.245
0.23
0.185
0.08
-0.02
-0.07
-0.115
-0.105
-0.1
-0.125
-0.135
-0.155
-0.125
-0.19
0.01
0.835
2.455
4.145
3.11
0.54
-0.315
-0.295
-0.295
-0.315
-0.305
-0.285
-0.285
-0.28
-0.27
-0.275
-0.27
-0.29
-0.28
-0.28
-0.295
-0.295
-0.3
-0.345
-0.34
-0.34
-0.375
-0.43
-0.425
-0.41
-0.365
-0.305
-0.23
-0.155
-0.055
-0.005
0.025
0.005
-0.005
-0.015
0.015
-0.025
-0.03
-0.035
-0.06
-0.055
-0.055
-0.09
-0.09
-0.105
-0.07
-0.055
-0.025
-0.02
-0.035
-0.06
-0.025
0.0
0.035
0.04
0.055
0.135
0.25
0.29
0.255
0.17
0.105
0.0
-0.065
-0.075
-0.055
-0.075
-0.08
-0.105
-0.08
-0.095
-0.16
0.125
1.075
2.93
4.375
2.725
0.25
-0.315
-0.25
-0.28
-0.265
-0.28
-0.265
-0.255
-0.245
-0.24
-0.22
-0.23
-0.235
-0.235
-0.225
-0.255
-0.26
-0.29
-0.29
-0.325
-0.345
-0.355
-0.365
-0.395
-0.39
-0.38
-0.255
-0.175
-0.06
0.02
0.05
0.035
0.055
0.045
0.035
0.01
0.015
-0.01
-0.025
-0.03
-0.025
-0.045
-0.03
-0.05
-0.04
-0.045
-0.03
-0.035
-0.025
-0.03
-0.005
0.025
0.05
0.035
0.115
0.22
0.315
0.305
0.245
0.16
0.09
0.005
-0.05
-0.09
-0.07
-0.07
-0.07
-0.09
-0.08
-0.1
-0.105
0.33
1.365
3.225
3.895
1.775
-0.005
-0.155
-0.18
-0.245
-0.225
-0.26
-0.24
-0.24
-0.25
-0.26
-0.24
-0.26
-0.27
-0.275
-0.265
-0.295
-0.315
-0.35
-0.355
-0.39
-0.41
-0.485
-0.5
-0.49
-0.465
-0.45
-0.345
-0.255
-0.155
-0.08
-0.01
-0.005
-0.005
-0.025
-0.005
-0.02
-0.04
-0.07
-0.055
-0.07
-0.08
-0.105
-0.095
-0.08
-0.065
-0.065
-0.045
-0.05
-0.04
-0.065
-0.035
-0.025
0.035
0.03
0.04
0.105
0.225
0.29
0.275
0.205
0.115
-0.005
-0.045
-0.075
-0.08
-0.095
-0.09
-0.105
-0.095
-0.07
-0.135
0.03
0.755
2.195
3.83
3.01
0.79
-0.01
-0.055
-0.185
-0.28
-0.28
-0.255
-0.26
-0.27
-0.29
-0.235
-0.23
-0.26
-0.29
-0.265
-0.305
-0.325
-0.345
-0.34
-0.37
-0.42
-0.52
-0.555
-0.53
-0.505
-0.5
-0.43
-0.305
-0.165
-0.11
-0.045
-0.025
-0.015
0.015
0.03
-0.03
-0.045
-0.045
-0.065
-0.07
-0.03
-0.055
-0.065
-0.08
-0.07
-0.05
-0.045
-0.03
0.015
-0.015
0.005
0.035
0.08
0.055
0.155
0.285
0.315
0.295
0.255
0.155
0.095
-0.015
-0.05
-0.045
-0.08
-0.095
-0.085
-0.115
-0.08
-0.175
-0.07
0.525
1.625
3.235
3.195
1.055
-0.135
-0.155
-0.24
-0.295
-0.265
-0.27
-0.255
-0.24
-0.24
-0.27
-0.24
-0.24
-0.255
-0.275
-0.26
-0.275
-0.315
-0.325
-0.325
-0.375
-0.42
-0.425
-0.425
-0.435
-0.455
-0.39
-0.265
-0.17
-0.09
-0.07
-0.04
0.005
-0.045
-0.07
-0.07
-0.075
-0.08
-0.11
-0.095
-0.08
-0.11
-0.105
-0.075
-0.055
-0.035
-0.045
-0.05
-0.05
-0.025
-0.035
-0.065
0.01
0.07
0.065
0.12
0.23
0.25
0.215
0.17
0.095
-0.015
-0.065
-0.135
-0.145
-0.15
-0.19
-0.175
-0.14
-0.135
-0.205
-0.02
0.73
2.18
3.695
2.645
0.39
-0.345
-0.345
-0.335
-0.36
-0.345
-0.31
-0.305
-0.285
-0.285
-0.28
-0.3
-0.3
-0.305
-0.305
-0.3
-0.305
-0.33
-0.34
-0.39
-0.4
-0.435
-0.45
-0.475
-0.47
-0.455
-0.405
-0.33
-0.215
-0.135
-0.095
-0.065
-0.065
-0.085
-0.08
-0.11
-0.115
-0.155
-0.18
-0.17
-0.12
-0.145
-0.13
-0.105
-0.09
-0.07
-0.045
-0.065
-0.05
-0.08
-0.08
-0.1
-0.075
-0.055
-0.005
-0.005
0.07
0.16
0.22
0.205
0.18
0.095
-0.015
-0.115
-0.12
-0.145
-0.16
-0.165
-0.15
-0.155
-0.155
-0.235
-0.13
0.455
1.73
3.71
3.73
1.23
-0.165
-0.18
-0.25
-0.345
-0.325
-0.325
-0.345
-0.355
-0.335
-0.345
-0.325
-0.335
-0.35
-0.365
-0.345
-0.38
-0.38
-0.395
-0.435
-0.48
-0.5
-0.53
-0.55
-0.57
-0.53
-0.475
-0.365
-0.235
-0.125
-0.085
-0.06
-0.045
-0.045
-0.06
-0.055
-0.07
-0.065
-0.095
-0.105
-0.125
-0.155
-0.145
-0.115
-0.135
-0.125
-0.115
-0.105
-0.11
-0.095
-0.09
-0.075
-0.08
-0.03
0.0
-0.005
0.03
0.145
0.24
0.285
0.215
0.145
0.025
-0.055
-0.085
-0.095
-0.12
-0.115
-0.11
-0.14
-0.155
-0.13
-0.175
0.14
0.995
2.86
4.345
2.755
0.445
-0.03
-0.09
-0.255
-0.3
-0.295
-0.31
-0.325
-0.335
-0.325
-0.325
-0.335
-0.335
-0.345
-0.37
-0.37
-0.38
-0.405
-0.455
-0.495
-0.53
-0.555
-0.565
-0.58
-0.565
-0.495
-0.395
-0.275
-0.155
-0.075
-0.05
-0.04
-0.03
-0.025
-0.03
-0.045
-0.045
-0.07
-0.08
-0.08
-0.08
-0.075
-0.1
-0.115
-0.115
-0.1
-0.11
-0.1
-0.09
-0.08
-0.065
-0.055
-0.05
-0.035
-0.02
0.02
0.04
0.05
0.13
0.24
0.265
0.265
0.215
0.125
0.015
-0.03
-0.045
-0.065
-0.065
-0.065
-0.07
-0.075
-0.07
-0.15
-0.045
0.56
1.785
3.84
3.87
1.4
0.09
0.025
-0.115
-0.235
-0.24
-0.27
-0.285
-0.275
-0.265
-0.275
-0.275
-0.285
-0.285
-0.3
-0.33
-0.33
-0.34
-0.36
-0.425
-0.47
-0.5
-0.53
-0.51
-0.49
-0.47
-0.38
-0.27
-0.145
-0.03
0.02
0.04
0.05
0.05
0.04
0.045
0.035
0.01
0.01
0.005
-0.015
-0.025
-0.035
-0.04
-0.07
-0.04
-0.02
-0.04
-0.01
-0.01
-0.005
-0.01
-0.035
-0.025
0.01
0.045
0.085
0.085
0.07
0.145
0.255
0.31
0.345
0.31
0.2
0.06
0.01
-0.005
-0.005
0.005
-0.05
-0.065
-0.02
-0.005
-0.065
-0.065
0.405
1.335
3.105
3.815
1.775
0.09
0.0
-0.11
-0.175
-0.215
-0.24
-0.23
-0.23
-0.19
-0.19
-0.21
-0.205
-0.2
-0.195
-0.205
-0.215
-0.255
-0.285
-0.265
-0.3
-0.365
-0.39
-0.36
-0.35
-0.345
-0.315
-0.255
-0.155
-0.04
0.015
0.03
0.05
0.05
0.04
0.005
-0.015
-0.025
-0.03
-0.055
-0.06
-0.035
-0.005
-0.01
-0.025
-0.005
0.02
0.03
0.04
0.03
0.025
0.04
0.035
0.025
0.05
0.035
0.05
0.095
0.08
0.095
0.205
0.33
0.345
0.305
0.24
0.13
0.05
0.01
-0.025
-0.03
-0.025
-0.045
-0.05
-0.04
-0.055
-0.15
0.045
0.805
2.16
3.855
3.23
0.89
-0.035
-0.085
-0.185
-0.235
-0.24
-0.255
-0.23
-0.235
-0.235
-0.23
-0.24
-0.245
-0.25
-0.275
-0.275
-0.29
-0.315
-0.345
-0.355
-0.385
-0.42
-0.455
-0.48
-0.495
-0.445
-0.365
-0.275
-0.17
-0.08
-0.01
0.02
0.015
0.025
0.03
-0.005
-0.025
-0.05
-0.06
-0.07
-0.065
-0.06
-0.07
-0.055
-0.03
-0.015
-0.01
-0.015
0.0
0.04
0.04
0.01
0.025
0.03
0.015
0.015
0.045
0.08
0.085
0.12
0.205
0.305
0.35
0.31
0.24
0.13
0.03
-0.01
-0.005
-0.03
-0.035
-0.02
-0.03
-0.06
-0.035
-0.105
0.09
0.82
2.375
4.275
3.47
0.935
0.08
0.015
-0.125
-0.215
-0.24
-0.23
-0.225
-0.245
-0.265
-0.28
-0.265
-0.27
-0.27
-0.285
-0.31
-0.33
-0.345
-0.38
-0.425
-0.455
-0.49
-0.52
-0.54
-0.515
-0.45
-0.39
-0.275
-0.185
-0.06
0.025
0.055
0.045
0.045
0.04
0.025
-0.005
-0.02
-0.045
-0.035
-0.04
-0.055
-0.075
-0.075
-0.065
-0.06
-0.04
-0.015
-0.02
-0.025
-0.035
-0.005
-0.005
-0.005
-0.015
0.01
-0.005
0.01
0.055
0.095
0.08
0.165
0.255
0.325
0.345
0.3
0.18
0.08
-0.005
-0.005
-0.01
-0.025
-0.07
-0.05
-0.045
-0.045
-0.065
-0.08
0.255
1.18
3.12
4.38
2.57
0.46
0.09
-0.005
-0.175
-0.21
-0.235
-0.245
-0.235
-0.215
-0.24
-0.255
-0.255
-0.285
-0.29
-0.27
-0.305
-0.325
-0.35
-0.385
-0.445
-0.475
-0.51
-0.51
-0.515
-0.485
-0.455
-0.37
-0.255
-0.11
0.005
0.06
0.1
0.115
0.095
0.05
0.015
0.035
0.055
0.025
-0.01
-0.025
-0.015
0.0
-0.02
-0.015
-0.005
-0.01
0.015
0.03
0.03
0.01
0.015
0.04
0.045
0.05
0.045
0.05
0.08
0.085
0.09
0.09
0.19
0.295
0.37
0.355
0.29
0.215
0.13
0.07
0.03
-0.005
-0.005
-0.005
-0.025
-0.055
-0.02
-0.025
-0.05
0.325
1.22
2.925
3.85
2.055
0.3
0.08
-0.06
-0.205
-0.215
-0.225
-0.195
-0.17
-0.17
-0.185
-0.185
-0.2
-0.23
-0.24
-0.215
-0.225
-0.24
-0.31
-0.335
-0.35
-0.37
-0.4
-0.395
-0.41
-0.44
-0.385
-0.275
-0.185
-0.065
0.01
0.06
0.045
0.06
0.055
0.05
0.015
-0.02
-0.015
0.01
-0.025
-0.02
-0.03
-0.02
0.005
0.025
0.035
0.08
0.055
0.04
0.05
0.08
0.065
0.08
0.04
0.05
0.055
0.07
0.085
0.12
0.095
0.145
0.245
0.355
0.4
0.365
0.29
0.195
0.09
0.05
0.025
0.02
-0.01
-0.01
-0.035
-0.005
-0.025
-0.1
0.105
0.81
2.135
3.94
3.43
1.105
0.13
0.03
-0.085
-0.165
-0.195
-0.19
-0.2
-0.18
-0.175
-0.175
-0.21
-0.21
-0.215
-0.21
-0.225
-0.235
-0.285
-0.305
-0.36
-0.375
-0.39
-0.43
-0.445
-0.435
-0.435
-0.365
-0.24
-0.105
-0.02
0.06
0.08
0.09
0.1
0.115
0.07
0.04
0.045
0.065
0.035
0.005
-0.015
0.02
0.015
0.015
0.025
0.045
0.045
0.08
0.055
0.055
0.07
0.075
0.07
0.085
0.06
0.065
0.035
0.085
0.125
0.13
0.155
0.265
0.35
0.38
0.34
0.27
0.155
0.105
0.035
0.01
-0.01
0.015
0.02
0.005
-0.025
-0.01
-0.065
0.205
0.98
2.695
4.35
3.125
0.77
0.175
0.08
-0.095
-0.2
-0.2
-0.2
-0.21
-0.23
-0.22
-0.225
-0.23
-0.27
-0.27
-0.27
-0.26
-0.3
-0.35
-0.39
-0.415
-0.455
-0.485
-0.535
-0.55
-0.535
-0.465
-0.4
-0.27
-0.16
-0.045
0.01
0.045
0.065
0.07
0.05
0.03
-0.005
0.01
0.01
0.015
-0.005
-0.025
-0.045
-0.055
-0.08
-0.05
-0.02
0.0
-0.015
-0.005
0.01
0.015
-0.005
0.03
0.045
0.05
0.015
0.035
0.065
0.105
0.125
0.19
0.275
0.345
0.36
0.345
0.2
0.105
0.08
0.06
-0.01
0.01
0.01
-0.015
-0.045
-0.025
-0.015
-0.03
0.34
1.205
2.92
3.94
2.205
0.375
0.075
0.005
-0.13
-0.205
-0.205
-0.175
-0.185
-0.2
-0.23
-0.19
-0.155
-0.175
-0.265
-0.25
-0.24
-0.26
-0.28
-0.27
-0.35
-0.39
-0.415
-0.445
-0.415
-0.415
-0.41
-0.285
-0.18
-0.075
-0.005
0.03
0.06
0.055
0.05
0.05
-0.005
-0.02
-0.015
-0.055
-0.08
-0.065
-0.05
-0.05
-0.055
-0.025
-0.01
-0.01
0.015
0.035
0.015
-0.01
-0.01
-0.015
0.025
0.065
0.025
-0.015
0.045
0.075
0.07
0.145
0.275
0.315
0.33
0.285
0.17
0.075
0.01
-0.025
-0.025
-0.03
-0.03
-0.095
-0.075
-0.055
-0.125
-0.105
0.475
1.545
3.28
3.72
1.555
-0.03
-0.08
-0.155
-0.24
-0.305
-0.255
-0.215
-0.215
-0.24
-0.24
-0.24
-0.25
-0.24
-0.24
-0.27
-0.255
-0.27
-0.3
-0.33
-0.325
-0.38
-0.41
-0.41
-0.4
-0.4
-0.37
-0.31
-0.19
-0.08
-0.015
-0.01
0.01
-0.015
-0.025
-0.035
-0.03
-0.055
-0.08
-0.09
-0.08
-0.1
-0.06
-0.05
-0.04
-0.03
-0.015
-0.03
0.015
0.015
0.015
-0.015
-0.025
-0.055
-0.04
-0.055
-0.055
-0.01
0.045
0.005
0.04
0.15
0.265
0.29
0.255
0.175
0.08
-0.035
-0.07
-0.105
-0.09
-0.1
-0.095
-0.115
-0.115
-0.105
-0.17
0.01
0.795
2.32
4.045
3.155
0.75
-0.115
-0.155
-0.235
-0.295
-0.295
-0.28
-0.295
-0.28
-0.285
-0.275
-0.295
-0.29
-0.315
-0.31
-0.325
-0.31
-0.34
-0.385
-0.405
-0.425
-0.475
-0.495
-0.49
-0.465
-0.46
-0.39
-0.305
-0.18
-0.105
-0.055
-0.03
-0.01
-0.015
-0.015
-0.035
-0.04
-0.095
-0.095
-0.095
-0.105
-0.115
-0.115
-0.135
-0.115
-0.11
-0.095
-0.07
-0.065
-0.065
-0.045
-0.065
-0.04
-0.07
-0.06
-0.07
-0.06
-0.025
0.02
-0.005
0.045
0.14
0.23
0.255
0.235
0.16
0.065
-0.035
-0.07
-0.09
-0.08
-0.1
-0.12
-0.13
-0.1
-0.135
-0.195
0.055
0.86
2.595
4.395
3.215
0.695
-0.03
-0.08
-0.225
-0.285
-0.315
-0.29
-0.29
-0.29
-0.315
-0.34
-0.345
-0.315
-0.34
-0.35
-0.37
-0.37
-0.415
-0.445
-0.48
-0.535
-0.575
-0.56
-0.57
-0.56
-0.54
-0.45
-0.34
-0.21
-0.115
-0.06
-0.055
-0.03
-0.035
-0.05
-0.06
-0.05
-0.065
-0.075
-0.1
-0.105
-0.11
-0.11
-0.115
-0.11
-0.115
-0.115
-0.12
-0.12
-0.12
-0.105
-0.09
-0.07
-0.07
-0.045
-0.045
-0.055
-0.055
-0.035
0.005
0.03
0.06
0.155
0.23
0.25
0.22
0.175
0.1
0.005
-0.055
-0.07
-0.09
-0.105
-0.115
-0.09
-0.08
-0.075
-0.145
-0.01
0.645
1.985
3.89
3.585
1.125
0.0
-0.03
-0.115
-0.24
-0.275
-0.28
-0.3
-0.32
-0.295
-0.285
-0.295
-0.285
-0.31
-0.335
-0.315
-0.325
-0.395
-0.4
-0.4
-0.475
-0.515
-0.49
-0.495
-0.515
-0.485
-0.425
-0.31
-0.205
-0.115
-0.055
-0.04
-0.01
0.02
-0.005
-0.025
-0.06
-0.075
-0.085
-0.095
-0.115
-0.115
-0.08
-0.1
-0.145
-0.155
-0.11
-0.08
-0.115
-0.11
-0.065
-0.08
-0.105
-0.07
-0.07
-0.055
-0.05
-0.04
-0.055
-0.05
-0.005
0.055
0.125
0.205
0.23
0.205
0.16
0.07
-0.025
-0.095
-0.13
-0.115
-0.11
-0.13
-0.135
-0.15
-0.16
-0.21
-0.03
0.655
1.92
3.515
3.035
0.775
-0.29
-0.305
-0.285
-0.315
-0.335
-0.345
-0.335
-0.335
-0.33
-0.295
-0.265
-0.3
-0.315
-0.33
-0.335
-0.355
-0.345
-0.335
-0.375
-0.41
-0.43
-0.445
-0.465
-0.455
-0.445
-0.405
-0.31
-0.21
-0.14
-0.135
-0.125
-0.105
-0.12
-0.145
-0.175
-0.19
-0.2
-0.23
-0.23
-0.225
-0.2
-0.175
-0.19
-0.17
-0.14
-0.13
-0.115
-0.1
-0.095
-0.1
-0.12
-0.115
-0.115
-0.12
-0.125
-0.13
-0.135
-0.12
-0.085
-0.06
-0.04
0.055
0.155
0.185
0.155
0.1
0.01
-0.095
-0.155
-0.165
-0.15
-0.175
-0.195
-0.2
-0.2
-0.205
-0.265
-0.105
0.61
1.985
3.785
3.34
0.9
-0.225
-0.26
-0.305
-0.365
-0.375
-0.345
-0.33
-0.345
-0.34
-0.335
-0.325
-0.34
-0.35
-0.335
-0.345
-0.355
-0.365
-0.385
-0.415
-0.44
-0.455
-0.48
-0.49
-0.48
-0.47
-0.425
-0.345
-0.24
-0.175
-0.12
-0.08
-0.075
-0.075
-0.09
-0.1
-0.115
-0.15
-0.155
-0.155
-0.155
-0.165
-0.165
-0.17
-0.165
-0.155
-0.125
-0.11
-0.11
-0.105
-0.08
-0.075
-0.09
-0.11
-0.1
-0.08
-0.09
-0.08
-0.08
-0.055
-0.025
-0.025
0.025
0.115
0.21
0.21
0.155
0.11
0.005
-0.085
-0.115
-0.13
-0.14
-0.135
-0.14
-0.15
-0.155
-0.155
-0.195
0.135
1.08
3.085
4.475
2.64
0.225
-0.19
-0.19
-0.315
-0.33
-0.315
-0.315
-0.325
-0.335
-0.335
-0.33
-0.315
-0.32
-0.325
-0.34
-0.355
-0.375
-0.375
-0.39
-0.435
-0.465
-0.49
-0.5
-0.49
-0.485
-0.445
-0.345
-0.25
-0.165
-0.08
-0.035
-0.01
-0.035
-0.05
-0.04
-0.045
-0.055
-0.095
-0.105
-0.075
-0.1
-0.135
-0.135
-0.125
-0.125
-0.13
-0.13
-0.145
-0.125
-0.12
-0.125
-0.13
-0.105
-0.075
-0.085
-0.085
-0.085
-0.08
-0.08
-0.08
-0.05
-0.015
0.0
-0.005
0.09
0.205
0.24
0.225
0.165
0.065
-0.015
-0.055
-0.08
-0.095
-0.095
-0.12
-0.115
-0.115
-0.105
-0.17
-0.04
0.62
2.0
3.965
3.65
1.115
-0.05
-0.08
-0.17
-0.27
-0.28
-0.29
-0.305
-0.295
-0.275
-0.3
-0.315
-0.305
-0.31
-0.33
-0.35
-0.375
-0.375
-0.42
-0.465
-0.49
-0.495
-0.54
-0.545
-0.545
-0.505
-0.44
-0.345
-0.255
-0.14
-0.075
-0.045
-0.035
-0.04
-0.05
-0.05
-0.075
-0.08
-0.105
-0.095
-0.09
-0.105
-0.13
-0.125
-0.145
-0.135
-0.135
-0.105
-0.105
-0.1
-0.095
-0.08
-0.08
-0.075
-0.095
-0.06
-0.05
-0.055
-0.075
-0.07
-0.06
-0.025
-0.005
0.0
0.04
0.155
0.255
0.28
0.235
0.185
0.08
-0.015
-0.065
-0.09
-0.095
-0.08
-0.11
-0.11
-0.1
-0.105
-0.185
0.07
0.835
2.435
4.01
2.945
0.72
0.04
-0.065
-0.185
-0.255
-0.29
-0.29
-0.275
-0.3
-0.3
-0.305
-0.325
-0.305
-0.3
-0.325
-0.335
-0.365
-0.4
-0.46
-0.485
-0.49
-0.525
-0.56
-0.575
-0.555
-0.51
-0.46
-0.375
-0.225
-0.11
-0.06
-0.025
0.005
-0.015
-0.03
-0.03
-0.03
-0.055
-0.07
-0.075
-0.09
-0.12
-0.08
-0.04
-0.07
-0.125
-0.12
-0.12
-0.09
-0.075
-0.05
-0.06
-0.055
-0.055
-0.025
-0.045
-0.065
-0.075
-0.03
0.01
0.015
0.01
0.015
0.03
0.135
0.24
0.31
0.285
0.22
0.115
-0.005
-0.05
-0.045
-0.07
-0.07
-0.06
-0.055
-0.08
-0.075
-0.145
0.0
0.66
1.88
3.415
2.96
0.855
-0.025
-0.115
-0.19
-0.25
-0.25
-0.24
-0.265
-0.255
-0.19
-0.19
-0.235
-0.25
-0.215
-0.235
-0.25
-0.24
-0.25
-0.3
-0.305
-0.34
-0.365
-0.4
-0.4
-0.42
-0.39
-0.37
-0.325
-0.2
-0.07
-0.005
0.03
-0.035
-0.055
-0.03
-0.035
-0.075
-0.065
-0.085
-0.105
-0.11
-0.09
-0.05
-0.035
-0.08
-0.055
-0.025
0.005
-0.015
-0.015
-0.035
-0.015
-0.02
0.005
0.01
0.01
0.015
0.02
0.005
0.02
0.04
0.08
0.125
0.215
0.28
0.35
0.335
0.26
0.165
0.1
0.025
0.0
-0.01
-0.035
-0.045
-0.02
-0.005
0.005
-0.095
0.125
0.94
2.485
3.935
2.765
0.56
-0.06
-0.14
-0.17
-0.195
-0.185
-0.195
-0.185
-0.185
-0.16
-0.175
-0.175
-0.195
-0.18
-0.205
-0.205
-0.22
-0.23
-0.255
-0.27
-0.31
-0.34
-0.355
-0.345
-0.385
-0.35
-0.3
-0.225
-0.15
-0.04
0.005
0.03
0.015
0.015
-0.02
-0.01
-0.015
-0.05
-0.085
-0.065
-0.08
-0.08
-0.07
-0.03
-0.03
0.005
0.0
0.015
0.01
0.03
0.025
0.03
0.005
0.0
0.0
0.005
-0.005
0.01
-0.015
0.015
0.05
0.08
0.095
0.185
0.285
0.33
0.295
0.25
0.14
0.045
-0.005
-0.02
-0.045
-0.045
-0.055
-0.045
-0.05
-0.04
-0.11
0.155
0.975
2.73
4.425
3.18
0.685
0.035
-0.02
-0.145
-0.215
-0.22
-0.23
-0.225
-0.23
-0.235
-0.24
-0.23
-0.255
-0.24
-0.26
-0.275
-0.305
-0.32
-0.355
-0.375
-0.435
-0.445
-0.475
-0.485
-0.47
-0.415
-0.355
-0.245
-0.145
-0.065
-0.01
0.035
0.03
0.025
0.0
0.015
-0.005
-0.025
-0.04
-0.03
-0.05
-0.06
-0.08
-0.075
-0.095
-0.085
-0.09
-0.08
-0.065
-0.04
-0.045
-0.03
-0.05
-0.025
-0.035
-0.025
-0.04
-0.015
-0.025
-0.03
0.005
0.045
0.025
0.11
0.205
0.295
0.295
0.27
0.175
0.08
-0.015
-0.05
-0.07
-0.07
-0.065
-0.065
-0.085
-0.08
-0.095
-0.11
0.2
1.09
3.03
4.405
2.64
0.415
0.03
-0.01
-0.185
-0.24
-0.255
-0.255
-0.255
-0.255
-0.255
-0.25
-0.265
-0.275
-0.29
-0.29
-0.325
-0.33
-0.345
-0.37
-0.425
-0.465
-0.49
-0.51
-0.52
-0.505
-0.46
-0.37
-0.27
-0.15
-0.04
0.01
0.02
0.03
0.025
0.02
0.01
0.005
-0.015
-0.025
-0.045
-0.06
-0.06
-0.07
-0.065
-0.075
-0.075
-0.09
-0.075
-0.065
-0.05
-0.045
-0.04
-0.03
-0.015
-0.035
-0.03
-0.015
-0.015
-0.015
-0.02
-0.015
0.025
0.045
0.055
0.11
0.24
0.3
0.305
0.25
0.155
0.05
0.005
-0.025
-0.035
-0.045
-0.05
-0.055
-0.055
-0.05
-0.08
-0.075
0.395
1.41
3.465
4.145
1.95
0.235
0.075
-0.045
-0.175
-0.24
-0.24
-0.235
-0.215
-0.235
-0.24
-0.26
-0.255
-0.275
-0.285
-0.3
-0.295
-0.32
-0.355
-0.4
-0.435
-0.485
-0.515
-0.55
-0.525
-0.49
-0.44
-0.36
-0.23
-0.125
-0.025
0.035
0.06
0.06
0.065
0.055
0.02
0.005
-0.005
0.005
0.015
-0.005
-0.005
-0.03
-0.045
-0.035
0.0
-0.03
-0.04
-0.045
-0.005
0.005
0.015
-0.015
0.0
0.01
0.04
0.01
0.005
0.02
0.035
0.045
0.09
0.11
0.205
0.315
0.405
0.375
0.315
0.195
0.105
0.04
0.01
0.0
0.005
-0.015
0.01
0.015
0.015
-0.05
-0.055
0.355
1.215
2.87
3.715
1.925
0.285
0.11
0.005
-0.12
-0.185
-0.205
-0.17
-0.14
-0.155
-0.205
-0.19
-0.185
-0.19
-0.22
-0.195
-0.19
-0.2
-0.24
-0.295
-0.36
-0.395
-0.435
-0.425
-0.445
-0.445
-0.4
-0.3
-0.23
-0.135
-0.025
0.055
0.06
0.06
0.055
0.055
0.015
0.0
0.005
-0.015
-0.04
-0.02
0.015
0.02
0.01
0.03
0.045
0.055
0.045
0.055
0.04
0.055
0.04
0.025
0.015
0.03
0.035
0.045
0.03
0.045
0.065
0.095
0.105
0.15
0.245
0.37
0.4
0.385
0.285
0.185
0.085
0.045
0.015
0.015
-0.015
-0.015
-0.005
-0.015
-0.03
-0.075
0.145
0.89
2.3
3.835
2.84
0.785
0.165
0.03
-0.08
-0.145
-0.155
-0.145
-0.16
-0.155
-0.17
-0.17
-0.155
-0.155
-0.175
-0.185
-0.195
-0.19
-0.205
-0.24
-0.295
-0.325
-0.38
-0.4
-0.44
-0.445
-0.425
-0.365
-0.275
-0.175
-0.065
0.03
0.06
0.09
0.075
0.075
0.055
0.03
0.01
0.005
-0.03
-0.02
0.02
0.035
0.035
0.03
0.045
0.08
0.115
0.13
0.105
0.09
0.085
0.08
0.07
0.08
0.045
0.05
0.06
0.065
0.065
0.085
0.11
0.1
0.175
0.305
0.38
0.395
0.355
0.265
0.15
0.08
0.04
0.025
0.03
0.01
-0.005
0.015
0.015
-0.02
-0.005
0.44
1.405
3.475
4.385
2.23
0.37
0.185
0.05
-0.115
-0.16
-0.17
-0.195
-0.19
-0.19
-0.19
-0.2
-0.215
-0.215
-0.225
-0.24
-0.24
-0.26
-0.3
-0.345
-0.38
-0.435
-0.485
-0.525
-0.55
-0.525
-0.465
-0.375
-0.235
-0.11
-0.015
0.04
0.065
0.09
0.09
0.07
0.05
0.03
0.035
0.03
-0.005
-0.03
-0.025
-0.015
-0.015
-0.025
-0.025
-0.025
-0.02
-0.02
-0.005
0.02
0.02
0.02
0.015
0.03
0.035
0.025
0.03
0.04
0.04
0.065
0.085
0.09
0.175
0.275
0.355
0.37
0.315
0.215
0.115
0.06
0.015
0.005
0.005
-0.03
-0.015
-0.005
-0.01
-0.05
-0.04
0.42
1.44
3.505
4.255
2.085
0.335
0.155
0.02
-0.15
-0.18
-0.195
-0.2
-0.205
-0.205
-0.215
-0.23
-0.24
-0.245
-0.25
-0.255
-0.285
-0.31
-0.33
-0.355
-0.4
-0.45
-0.495
-0.54
-0.55
-0.54
-0.495
-0.39
-0.25
-0.13
-0.035
0.05
0.07
0.07
0.085
0.08
0.055
0.055
0.04
0.025
-0.005
0.005
-0.005
-0.01
-0.03
-0.03
-0.015
-0.02
-0.005
0.005
0.015
0.025
0.03
0.035
0.04
0.04
0.03
0.035
0.03
0.025
0.035
0.07
0.085
0.09
0.15
0.265
0.355
0.37
0.33
0.24
0.13
0.055
0.035
0.015
-0.005
-0.005
-0.005
-0.01
-0.015
-0.015
-0.055
0.255
1.085
2.875
4.215
2.675
0.615
0.2
0.08
-0.1
-0.18
-0.19
-0.2
-0.205
-0.21
-0.2
-0.215
-0.24
-0.24
-0.25
-0.26
-0.26
-0.255
-0.28
-0.315
-0.375
-0.45
-0.51
-0.565
-0.58
-0.575
-0.55
-0.47
-0.335
-0.19
-0.075
0.01
0.06
0.08
0.075
0.08
0.065
0.04
0.015
0.005
-0.005
-0.04
-0.05
-0.035
-0.015
-0.005
-0.015
-0.015
0.005
0.005
0.005
0.005
0.015
0.025
0.025
0.01
0.005
0.0
-0.005
-0.015
0.005
0.03
0.065
0.065
0.095
0.215
0.325
0.34
0.305
0.235
0.13
0.045
0.005
-0.03
-0.045
-0.045
-0.055
-0.055
-0.045
-0.055
-0.145
0.03
0.675
1.87
3.445
2.91
0.93
0.16
0.01
-0.105
-0.215
-0.235
-0.23
-0.225
-0.245
-0.265
-0.265
-0.275
-0.27
-0.24
-0.255
-0.275
-0.285
-0.32
-0.37
-0.41
-0.46
-0.515
-0.56
-0.595
-0.605
-0.595
-0.535
-0.44
-0.32
-0.205
-0.11
-0.045
-0.025
-0.035
-0.04
-0.055
-0.08
-0.08
-0.1
-0.095
-0.095
-0.095
-0.095
-0.095
-0.07
-0.055
-0.04
-0.03
-0.035
-0.035
-0.05
-0.055
-0.055
-0.065
-0.065
-0.07
-0.08
-0.1
-0.09
-0.06
-0.025
-0.005
0.005
0.105
0.22
0.27
0.26
0.175
0.08
-0.03
-0.075
-0.09
-0.12
-0.14
-0.125
-0.13
-0.13
-0.125
-0.19
-0.13
0.415
1.52
3.35
3.53
1.39
0.095
0.005
-0.135
-0.265
-0.29
-0.32
-0.315
-0.325
-0.325
-0.335
-0.345
-0.34
-0.345
-0.345
-0.35
-0.35
-0.38
-0.425
-0.475
-0.53
-0.565
-0.62
-0.665
-0.685
-0.685
-0.635
-0.54
-0.41
-0.295
-0.19
-0.105
-0.07
-0.045
-0.045
-0.05
-0.07
-0.085
-0.1
-0.11
-0.115
-0.12
-0.135
-0.11
-0.085
-0.06
-0.06
-0.055
-0.05
-0.03
-0.035
-0.04
-0.045
-0.03
-0.04
-0.035
-0.035
-0.045
-0.05
-0.045
-0.03
0.005
0.0
0.065
0.195
0.285
0.295
0.255
0.165
0.06
-0.025
-0.055
-0.07
-0.07
-0.085
-0.075
-0.095
-0.105
-0.11
-0.16
0.095
0.885
2.51
4.04
2.84
0.69
0.125
0.025
-0.17
-0.245
-0.27
-0.28
-0.29
-0.28
-0.29
-0.29
-0.305
-0.295
-0.31
-0.3
-0.315
-0.32
-0.36
-0.395
-0.455
-0.51
-0.6
-0.625
-0.64
-0.655
-0.63
-0.55
-0.435
-0.295
-0.175
-0.065
-0.015
0.025
0.005
0.015
-0.015
-0.025
-0.045
-0.04
-0.065
-0.075
-0.08
-0.06
-0.065
-0.065
-0.07
-0.05
-0.06
-0.04
-0.035
-0.025
-0.025
-0.02
-0.025
-0.01
-0.015
-0.01
-0.025
-0.03
-0.02
-0.005
0.03
0.065
0.065
0.175
0.29
0.33
0.3
0.24
0.135
0.03
-0.025
-0.045
-0.045
-0.045
-0.05
-0.05
-0.05
-0.045
-0.125
-0.015
0.535
1.735
3.625
3.545
1.33
0.22
0.11
-0.06
-0.195
-0.22
-0.23
-0.24
-0.24
-0.245
-0.255
-0.255
-0.26
-0.265
-0.26
-0.26
-0.27
-0.295
-0.34
-0.39
-0.45
-0.515
-0.57
-0.625
-0.64
-0.63
-0.565
-0.485
-0.335
-0.185
-0.075
0.0
0.035
0.05
0.05
0.025
0.03
0.005
-0.005
-0.02
-0.015
-0.03
-0.01
-0.005
-0.01
-0.015
0.005
0.01
0.025
0.025
0.03
0.025
0.04
0.025
0.025
0.035
0.04
0.0
0.015
0.005
0.015
0.025
0.08
0.08
0.1
0.195
0.315
0.355
0.335
0.255
0.155
0.055
0.01
-0.01
0.005
-0.015
-0.015
-0.015
-0.015
-0.03
-0.095
0.045
0.665
1.91
3.675
3.29
1.16
0.25
0.12
-0.055
-0.165
-0.2
-0.19
-0.195
-0.215
-0.235
-0.23
-0.24
-0.23
-0.245
-0.245
-0.25
-0.24
-0.27
-0.315
-0.385
-0.445
-0.53
-0.57
-0.62
-0.63
-0.635
-0.56
-0.46
-0.315
-0.175
-0.075
0.005
0.055
0.05
0.065
0.055
0.05
0.02
0.02
-0.02
-0.015
-0.015
0.005
0.025
0.035
0.03
0.045
0.045
0.08
0.065
0.08
0.065
0.08
0.07
0.09
0.075
0.075
0.055
0.065
0.07
0.08
0.085
0.125
0.145
0.165
0.245
0.39
0.44
0.435
0.355
0.245
0.135
0.1
0.065
0.075
0.065
0.085
0.09
0.095
0.09
0.005
0.08
0.615
1.65
3.34
3.39
1.43
0.325
0.215
0.065
-0.05
-0.105
-0.105
-0.105
-0.11
-0.135
-0.125
-0.125
-0.125
-0.15
-0.155
-0.165
-0.15
-0.165
-0.185
-0.255
-0.315
-0.4
-0.455
-0.505
-0.495
-0.49
-0.445
-0.36
-0.255
-0.13
0.0
0.07
0.11
0.115
0.13
0.115
0.12
0.085
0.06
0.055
0.08
0.065
0.08
0.095
0.105
0.09
0.13
0.135
0.135
0.12
0.135
0.125
0.12
0.1
0.11
0.11
0.115
0.1
0.115
0.095
0.13
0.155
0.165
0.195
0.31
0.41
0.46
0.43
0.345
0.2
0.125
0.07
0.07
0.055
0.055
0.05
0.045
0.03
0.04
-0.04
0.155
0.795
2.04
3.44
2.645
0.82
0.26
0.1
-0.02
-0.125
-0.145
-0.145
-0.135
-0.145
-0.15
-0.155
-0.14
-0.165
-0.15
-0.175
-0.165
-0.17
-0.185
-0.24
-0.275
-0.335
-0.385
-0.44
-0.455
-0.485
-0.49
-0.485
-0.375
-0.235
-0.095
0.005
0.08
0.09
0.09
0.055
0.065
0.07
0.065
0.04
0.035
0.035
0.05
0.05
0.075
0.09
0.115
0.11
0.115
0.105
0.12
0.1
0.095
0.095
0.095
0.08
0.08
0.055
0.06
0.045
0.055
0.08
0.12
0.12
0.205
0.315
0.39
0.4
0.345
0.24
0.125
0.055
0.05
0.035
0.015
0.0
0.01
0.01
0.015
-0.065
-0.015
0.46
1.475
3.375
3.895
1.83
0.34
0.21
0.04
-0.13
-0.155
-0.185
-0.195
-0.21
-0.2
-0.21
-0.21
-0.225
-0.235
-0.23
-0.23
-0.225
-0.255
-0.295
-0.35
-0.4
-0.485
-0.535
-0.58
-0.605
-0.61
-0.565
-0.485
-0.355
-0.205
-0.075
0.005
0.06
0.08
0.08
0.055
0.05
0.03
0.035
0.025
0.02
0.01
0.005
0.01
0.03
0.03
0.035
0.05
0.045
0.04
0.07
0.055
0.055
0.06
0.07
0.055
0.045
0.045
0.04
0.05
0.085
0.095
0.125
0.145
0.235
0.33
0.38
0.365
0.285
0.15
0.08
0.035
0.025
0.035
0.035
-0.015
-0.01
-0.015
-0.015
-0.115
0.085
0.76
2.025
3.52
2.88
0.925
0.23
0.085
-0.05
-0.185
-0.175
-0.185
-0.22
-0.23
-0.185
-0.21
-0.23
-0.21
-0.23
-0.275
-0.235
-0.265
-0.285
-0.32
-0.37
-0.405
-0.41
-0.47
-0.505
-0.505
-0.495
-0.43
-0.32
-0.25
-0.14
-0.045
0.03
0.025
0.035
0.02
0.015
-0.005
-0.005
-0.035
-0.06
-0.08
-0.035
-0.015
-0.005
-0.02
-0.005
-0.005
0.04
0.03
0.01
-0.01
0.01
0.025
0.025
-0.015
0.02
0.02
0.045
0.065
0.055
0.075
0.205
0.315
0.36
0.325
0.24
0.11
0.035
-0.015
-0.025
-0.03
-0.01
-0.04
-0.065
-0.08
-0.085
-0.155
0.13
0.955
2.415
3.6
2.235
0.355
-0.055
-0.18
-0.19
-0.24
-0.265
-0.265
-0.2
-0.175
-0.205
-0.25
-0.21
-0.19
-0.19
-0.23
-0.23
-0.265
-0.24
-0.235
-0.255
-0.28
-0.315
-0.35
-0.315
-0.35
-0.375
-0.33
-0.215
-0.15
-0.075
-0.015
-0.01
-0.005
-0.01
-0.045
-0.045
-0.075
-0.055
-0.035
-0.065
-0.105
-0.075
-0.035
0.0
-0.015
-0.025
-0.015
0.0
0.0
0.03
-0.005
-0.04
-0.045
-0.01
-0.005
0.0
0.01
0.0
0.025
0.125
0.19
0.245
0.315
0.285
0.125
0.03
-0.045
-0.07
-0.045
-0.085
-0.115
-0.035
-0.055
-0.13
-0.195
-0.075
0.595
1.825
3.55
3.375
0.935
-0.335
-0.28
-0.315
-0.31
-0.295
-0.305
-0.29
-0.275
-0.275
-0.27
-0.25
-0.225
-0.25
-0.235
-0.215
-0.25
-0.225
-0.23
-0.235
-0.28
-0.32
-0.31
-0.295
-0.295
-0.31
-0.245
-0.185
-0.145
-0.08
-0.025
-0.005
-0.005
-0.005
-0.01
-0.05
-0.08
-0.065
-0.075
-0.095
-0.105
-0.1
-0.085
-0.07
-0.05
-0.055
-0.04
-0.015
0.01
0.035
0.02
-0.025
-0.045
-0.005
0.01
0.015
0.035
0.065
0.14
0.24
0.265
0.275
0.265
0.205
0.11
0.015
-0.035
-0.045
-0.05
-0.045
-0.06
-0.055
-0.055
-0.1
-0.045
0.525
1.8
3.895
4.155
1.55
-0.2
-0.225
-0.19
-0.22
-0.21
-0.215
-0.21
-0.225
-0.225
-0.21
-0.205
-0.215
-0.225
-0.21
-0.205
-0.215
-0.235
-0.255
-0.28
-0.29
-0.305
-0.315
-0.315
-0.3
-0.265
-0.21
-0.14
-0.055
0.005
0.045
0.055
0.04
0.04
0.03
0.025
0.02
0.01
0.005
-0.005
-0.02
-0.035
-0.065
-0.07
-0.07
-0.075
-0.07
-0.075
-0.06
-0.055
-0.04
-0.045
-0.05
-0.04
-0.005
0.05
0.065
0.065
0.14
0.235
0.285
0.275
0.24
0.15
0.05
-0.01
-0.035
-0.04
-0.055
-0.045
-0.045
-0.035
-0.025
-0.1
0.09
0.86
2.535
4.49
3.615
0.87
-0.1
-0.08
-0.205
-0.24
-0.225
-0.21
-0.19
-0.24
-0.24
-0.235
-0.265
-0.275
-0.26
-0.275
-0.295
-0.315
-0.34
-0.385
-0.385
-0.4
-0.48
-0.475
-0.455
-0.425
-0.365
-0.275
-0.17
-0.09
-0.015
0.03
0.01
-0.03
0.025
0.045
-0.01
-0.045
-0.05
-0.015
-0.015
-0.075
-0.13
-0.115
-0.09
-0.085
-0.09
-0.115
-0.14
-0.135
-0.1
-0.065
-0.09
-0.11
-0.05
-0.045
-0.02
0.045
0.055
0.145
0.23
0.255
0.28
0.23
0.12
0.055
0.01
-0.065
-0.09
-0.115
-0.08
-0.075
-0.085
-0.075
-0.15
0.08
0.885
2.425
4.015
3.03
0.605
-0.26
-0.255
-0.31
-0.275
-0.225
-0.23
-0.23
-0.24
-0.24
-0.24
-0.24
-0.25
-0.24
-0.24
-0.27
-0.295
-0.285
-0.235
-0.275
-0.315
-0.31
-0.215
-0.215
-0.23
-0.145
-0.12
-0.07
-0.02
0.015
0.065
0.075
-0.01
-0.06
-0.05
-0.05
-0.025
-0.065
-0.105
-0.08
-0.1
-0.125
-0.11
-0.125
-0.125
-0.13
-0.13
-0.1
-0.08
-0.08
-0.05
-0.075
-0.145
-0.06
0.005
-0.02
0.045
0.085
0.155
0.245
0.225
0.17
0.085
0.025
0.005
-0.115
-0.185
-0.115
-0.08
-0.09
-0.12
-0.115
-0.2
-0.015
0.77
2.2
4.035
3.415
0.585
-0.625
-0.475
-0.33
-0.33
-0.305
-0.245
-0.235
-0.28
-0.31
-0.24
-0.15
-0.295
-0.315
-0.21
-0.22
-0.24
-0.24
-0.275
-0.295
-0.26
-0.175
-0.31
-0.325
-0.205
-0.155
-0.115
-0.025
0.01
0.005
-0.05
-0.045
-0.035
-0.11
-0.155
-0.13
-0.21
-0.24
-0.21
-0.22
-0.24
-0.215
-0.23
-0.225
-0.22
-0.215
-0.215
-0.18
-0.165
-0.15
-0.155
-0.155
-0.135
-0.105
-0.075
-0.005
0.07
0.145
0.195
0.175
0.085
-0.03
-0.075
-0.09
-0.125
-0.155
-0.175
-0.155
-0.17
-0.15
-0.15
-0.14
0.4
1.665
3.775
4.14
1.435
-0.52
-0.505
-0.34
-0.34
-0.325
-0.295
-0.275
-0.27
-0.27
-0.245
-0.235
-0.275
-0.265
-0.27
-0.26
-0.27
-0.27
-0.255
-0.26
-0.295
-0.3
-0.26
-0.235
-0.24
-0.205
-0.11
-0.055
0.0
0.04
0.06
0.05
0.045
0.01
0.005
0.005
-0.03
-0.05
-0.04
-0.045
-0.07
-0.06
-0.08
-0.115
-0.095
-0.1
-0.08
-0.1
-0.095
-0.065
-0.035
-0.04
-0.025
0.01
0.055
0.06
0.125
0.245
0.295
0.295
0.29
0.175
0.08
0.0
-0.025
-0.05
-0.05
-0.065
-0.065
-0.075
-0.05
-0.115
0.02
0.685
2.16
4.265
4.015
1.175
-0.26
-0.2
-0.165
-0.215
-0.2
-0.225
-0.225
-0.225
-0.205
-0.215
-0.21
-0.22
-0.215
-0.22
-0.225
-0.255
-0.27
-0.31
-0.3
-0.315
-0.305
-0.305
-0.265
-0.26
-0.225
-0.155
-0.055
0.01
0.065
0.075
0.095
0.115
0.115
0.065
0.055
0.04
0.055
0.055
0.05
0.005
0.025
0.03
0.015
-0.03
-0.03
-0.06
-0.015
0.015
0.005
-0.035
0.015
0.045
0.125
0.12
0.15
0.225
0.325
0.38
0.405
0.295
0.14
0.05
0.005
0.04
0.065
-0.06
-0.05
-0.03
-0.065
-0.02
-0.075
0.175
1.105
2.845
4.47
3.1
0.51
-0.185
-0.1
-0.165
-0.175
-0.19
-0.215
-0.21
-0.195
-0.22
-0.15
-0.185
-0.225
-0.235
-0.245
-0.24
-0.215
-0.235
-0.255
-0.3
-0.315
-0.315
-0.24
-0.25
-0.24
-0.155
-0.065
-0.005
0.065
0.075
0.065
0.085
0.115
0.06
0.005
-0.035
-0.005
0.025
-0.005
-0.06
-0.025
-0.015
-0.035
-0.1
-0.08
-0.095
-0.065
-0.08
-0.105
-0.12
-0.04
0.05
0.01
0.055
0.205
0.265
0.3
0.27
0.27
0.135
-0.025
-0.055
-0.025
-0.035
-0.055
-0.075
-0.07
-0.09
-0.08
-0.115
0.19
1.07
2.875
4.405
2.81
0.205
-0.41
-0.29
-0.24
-0.28
-0.235
-0.235
-0.205
-0.185
-0.19
-0.21
-0.21
-0.2
-0.205
-0.23
-0.2
-0.21
-0.215
-0.24
-0.24
-0.23
-0.235
-0.22
-0.14
-0.15
-0.135
-0.04
0.04
0.045
0.095
0.07
0.035
0.015
0.005
0.0
-0.015
-0.095
-0.09
-0.05
-0.095
-0.1
-0.1
-0.155
-0.125
-0.13
-0.11
-0.11
-0.1
-0.065
-0.05
-0.095
-0.025
0.025
0.03
0.095
0.21
0.22
0.255
0.24
0.135
-0.015
-0.05
-0.07
-0.09
-0.095
-0.09
-0.1
-0.085
-0.1
-0.125
-0.045
0.565
1.925
4.065
4.125
1.3
-0.46
-0.345
-0.265
-0.275
-0.24
-0.22
-0.22
-0.215
-0.215
-0.195
-0.2
-0.185
-0.225
-0.215
-0.215
-0.21
-0.235
-0.22
-0.265
-0.265
-0.25
-0.23
-0.205
-0.175
-0.165
-0.08
-0.01
0.055
0.09
0.125
0.095
0.08
0.065
0.075
0.065
0.04
0.035
0.035
-0.02
-0.015
-0.03
-0.045
-0.025
-0.04
-0.055
-0.055
-0.085
-0.055
0.0
-0.005
0.015
0.075
0.11
0.2
0.285
0.305
0.33
0.3
0.195
0.1
0.04
0.01
0.01
0.005
0.005
0.01
-0.035
-0.05
-0.08
-0.02
0.51
1.755
3.97
4.53
1.845
-0.205
-0.235
-0.15
-0.175
-0.18
-0.18
-0.175
-0.165
-0.125
-0.11
-0.165
-0.19
-0.18
-0.18
-0.19
-0.185
-0.2
-0.215
-0.255
-0.26
-0.265
-0.26
-0.255
-0.23
-0.205
-0.105
-0.005
0.08
0.115
0.15
0.125
0.12
0.1
0.1
0.085
0.1
0.095
0.095
0.07
0.035
0.01
-0.01
-0.04
0.01
0.03
-0.015
-0.05
0.01
0.02
-0.005
0.03
0.085
0.145
0.185
0.24
0.36
0.355
0.315
0.27
0.195
0.08
0.03
-0.01
-0.025
-0.03
-0.01
-0.04
-0.03
-0.045
-0.095
0.155
1.045
2.82
4.52
3.16
0.495
-0.235
-0.145
-0.165
-0.195
-0.235
-0.21
-0.185
-0.195
-0.185
-0.145
-0.19
-0.205
-0.185
-0.205
-0.245
-0.215
-0.265
-0.285
-0.29
-0.295
-0.295
-0.3
-0.295
-0.23
-0.195
-0.11
-0.005
0.045
0.045
0.095
0.09
0.09
0.085
0.06
0.03
-0.005
-0.08
-0.06
-0.015
-0.03
-0.055
-0.065
-0.09
-0.095
-0.08
-0.095
-0.105
-0.065
-0.05
0.01
0.025
0.08
0.15
0.245
0.28
0.31
0.285
0.19
0.065
-0.025
-0.035
-0.065
-0.095
-0.07
-0.07
-0.075
-0.105
-0.1
-0.055
0.44
1.51
3.55
4.29
1.845
-0.24
-0.28
-0.235
-0.235
-0.23
-0.24
-0.19
-0.195
-0.25
-0.165
-0.17
-0.195
-0.185
-0.205
-0.195
-0.21
-0.24
-0.215
-0.225
-0.255
-0.285
-0.265
-0.27
-0.205
-0.155
-0.13
-0.09
-0.01
0.04
0.065
0.05
0.06
0.05
0.035
-0.03
-0.04
-0.025
-0.04
-0.065
-0.09
-0.095
-0.095
-0.08
-0.075
-0.09
-0.07
-0.07
-0.05
-0.025
-0.02
-0.03
0.015
0.06
0.085
0.14
0.235
0.295
0.305
0.25
0.14
0.03
-0.015
-0.05
-0.08
-0.09
-0.09
-0.055
-0.075
-0.105
-0.145
-0.075
0.55
1.855
3.955
4.07
1.31
-0.375
-0.28
-0.22
-0.26
-0.245
-0.21
-0.21
-0.2
-0.195
-0.19
-0.2
-0.2
-0.185
-0.18
-0.185
-0.21
-0.23
-0.245
-0.265
-0.24
-0.23
-0.24
-0.24
-0.235
-0.215
-0.145
-0.065
0.02
0.075
0.115
0.125
0.12
0.08
0.045
0.045
0.03
-0.005
-0.015
-0.01
-0.015
-0.025
-0.045
-0.06
-0.055
-0.035
-0.025
-0.01
-0.03
-0.025
0.025
0.04
0.06
0.085
0.095
0.17
0.275
0.345
0.345
0.31
0.225
0.105
0.03
-0.02
-0.04
-0.03
-0.05
-0.065
-0.05
-0.04
-0.05
-0.09
0.275
1.32
3.42
4.645
2.475
0.055
-0.23
-0.19
-0.25
-0.24
-0.21
-0.18
-0.17
-0.205
-0.215
-0.23
-0.235
-0.215
-0.205
-0.22
-0.21
-0.21
-0.21
-0.24
-0.305
-0.33
-0.36
-0.37
-0.34
-0.29
-0.235
-0.17
-0.075
0.005
0.04
0.055
0.05
0.045
0.025
0.005
0.03
-0.005
-0.04
-0.035
-0.065
-0.07
-0.09
-0.09
-0.065
-0.08
-0.085
-0.1
-0.105
-0.09
-0.055
0.005
0.005
0.0
0.03
0.11
0.18
0.26
0.3
0.23
0.17
0.06
-0.025
-0.065
-0.095
-0.075
-0.065
-0.13
-0.13
-0.11
-0.105
-0.18
0.055
0.93
2.555
4.205
3.04
0.44
-0.335
-0.265
-0.29
-0.285
-0.255
-0.255
-0.275
-0.27
-0.255
-0.265
-0.275
-0.25
-0.235
-0.245
-0.27
-0.315
-0.335
-0.315
-0.33
-0.345
-0.38
-0.385
-0.36
-0.34
-0.29
-0.235
-0.14
-0.08
-0.035
-0.005
0.005
-0.01
-0.025
-0.045
-0.08
-0.095
-0.09
-0.115
-0.145
-0.175
-0.185
-0.185
-0.17
-0.15
-0.135
-0.14
-0.14
-0.125
-0.125
-0.105
-0.045
-0.01
-0.025
0.03
0.11
0.18
0.225
0.215
0.165
0.055
-0.06
-0.115
-0.15
-0.165
-0.155
-0.135
-0.135
-0.155
-0.175
-0.23
0.005
0.845
2.365
4.085
3.13
0.485
-0.435
-0.35
-0.31
-0.3
-0.265
-0.27
-0.25
-0.235
-0.245
-0.25
-0.235
-0.225
-0.24
-0.24
-0.24
-0.225
-0.245
-0.265
-0.275
-0.29
-0.315
-0.325
-0.315
-0.305
-0.29
-0.22
-0.135
-0.055
0.015
0.025
0.025
0.02
-0.01
-0.01
-0.035
-0.06
-0.075
-0.07
-0.075
-0.08
-0.09
-0.08
-0.075
-0.05
-0.065
-0.035
-0.015
-0.005
-0.015
-0.01
-0.03
0.005
0.035
0.06
0.08
0.165
0.25
0.29
0.255
0.225
0.12
0.055
-0.015
-0.05
-0.07
-0.07
-0.095
-0.105
-0.105
-0.09
-0.12
-0.09
0.4
1.535
3.585
4.215
1.75
-0.215
-0.255
-0.195
-0.24
-0.22
-0.22
-0.23
-0.245
-0.205
-0.21
-0.24
-0.24
-0.215
-0.225
-0.23
-0.23
-0.245
-0.285
-0.31
-0.345
-0.35
-0.375
-0.365
-0.345
-0.325
-0.295
-0.23
-0.145
-0.055
0.025
0.06
0.055
0.065
0.035
-0.005
-0.025
-0.035
-0.05
-0.06
-0.025
-0.04
-0.09
-0.1
-0.07
-0.045
-0.07
-0.095
-0.045
0.015
-0.025
-0.04
-0.005
-0.01
0.015
0.04
0.155
0.265
0.295
0.295
0.255
0.135
0.065
0.005
-0.035
-0.065
-0.095
-0.095
-0.065
-0.1
-0.08
-0.105
-0.125
0.275
1.28
3.11
4.085
2.045
-0.01
-0.24
-0.21
-0.24
-0.255
-0.28
-0.255
-0.26
-0.23
-0.235
-0.22
-0.215
-0.24
-0.28
-0.23
-0.225
-0.25
-0.26
-0.29
-0.345
-0.32
-0.33
-0.34
-0.37
-0.38
-0.325
-0.24
-0.175
-0.055
-0.01
0.015
-0.005
-0.01
0.01
0.005
-0.04
-0.06
-0.095
-0.105
-0.115
-0.09
-0.09
-0.09
-0.12
-0.08
-0.045
-0.005
-0.005
-0.04
-0.05
-0.005
-0.005
0.03
0.045
0.055
0.12
0.24
0.285
0.28
0.215
0.13
0.025
-0.01
-0.07
-0.08
-0.075
-0.045
-0.08
-0.09
-0.09
-0.11
-0.08
0.445
1.535
3.44
3.925
1.555
-0.28
-0.28
-0.245
-0.25
-0.23
-0.215
-0.215
-0.205
-0.22
-0.205
-0.205
-0.205
-0.215
-0.19
-0.185
-0.175
-0.225
-0.24
-0.265
-0.27
-0.29
-0.33
-0.345
-0.335
-0.345
-0.305
-0.26
-0.155
-0.07
0.025
0.05
0.07
0.04
0.035
0.025
0.0
-0.015
-0.01
-0.03
-0.035
-0.03
0.015
0.005
0.005
0.005
0.045
0.05
0.08
0.05
0.045
0.045
0.08
0.11
0.12
0.13
0.225
0.315
0.355
0.33
0.28
0.185
0.095
0.025
0.01
-0.005
-0.02
-0.035
-0.015
-0.02
-0.03
-0.11
0.03
0.675
2.025
3.91
3.71
1.115
-0.23
-0.19
-0.165
-0.205
-0.18
-0.175
-0.15
-0.175
-0.175
-0.195
-0.165
-0.165
-0.17
-0.19
-0.15
-0.165
-0.205
-0.235
-0.25
-0.285
-0.31
-0.34
-0.34
-0.355
-0.335
-0.315
-0.235
-0.14
-0.03
0.05
0.105
0.09
0.095
0.08
0.065
0.055
0.05
0.03
0.035
0.02
0.015
0.005
0.03
0.035
0.04
0.03
0.065
0.08
0.09
0.065
0.085
0.125
0.145
0.145
0.24
0.33
0.39
0.355
0.315
0.225
0.125
0.075
0.035
0.015
0.015
0.015
-0.01
-0.015
0.015
-0.035
-0.02
0.495
1.625
3.535
3.96
1.585
-0.14
-0.17
-0.155
-0.205
-0.19
-0.175
-0.17
-0.165
-0.175
-0.165
-0.165
-0.175
-0.185
-0.185
-0.185
-0.19
-0.195
-0.19
-0.195
-0.215
-0.24
-0.295
-0.385
-0.39
-0.37
-0.335
-0.26
-0.165
-0.07
-0.03
-0.035
-0.005
0.005
0.015
-0.01
-0.01
-0.015
-0.015
-0.03
-0.03
-0.04
-0.015
-0.015
0.0
0.02
0.025
0.01
0.025
0.015
0.05
0.08
0.085
0.115
0.215
0.325
0.365
0.32
0.245
0.13
0.04
-0.015
-0.025
-0.03
-0.03
-0.05
-0.05
-0.065
-0.065
-0.165
0.045
0.82
2.25
3.69
2.71
0.525
-0.19
-0.215
-0.22
-0.265
-0.25
-0.25
-0.235
-0.23
-0.225
-0.235
-0.23
-0.225
-0.205
-0.23
-0.23
-0.255
-0.265
-0.29
-0.315
-0.335
-0.365
-0.435
-0.46
-0.48
-0.44
-0.42
-0.34
-0.24
-0.125
-0.045
0.015
0.01
-0.015
-0.015
0.0
0.245
0.13
-0.085
-0.02
-0.03
-0.015
-0.005
0.02
0.02
0.04
0.04
0.055
0.07
0.09
0.085
0.115
0.2
0.325
0.345
0.34
0.285
0.215
0.085
0.005
-0.035
-0.025
-0.05
-0.045
-0.05
-0.04
-0.05
-0.1
0.005
0.635
1.915
3.675
3.345
0.95
-0.225
-0.2
-0.205
-0.215
-0.205
-0.185
-0.195
-0.185
-0.19
-0.17
-0.185
-0.19
-0.19
-0.185
-0.18
-0.2
-0.245
-0.27
-0.29
-0.29
-0.34
-0.375
-0.4
-0.405
-0.41
-0.37
-0.29
-0.185
-0.085
-0.005
0.035
0.065
0.055
0.04
0.035
0.035
0.01
0.005
0.0
0.015
0.025
0.035
0.02
0.03
0.035
0.045
0.05
0.1
0.12
0.115
0.155
0.275
0.37
0.385
0.32
0.24
0.12
0.045
0.01
-0.01
-0.015
-0.015
-0.035
-0.045
-0.045
-0.055
-0.09
0.28
1.205
2.95
3.83
1.945
0.08
-0.12
-0.145
-0.205
-0.225
-0.215
-0.195
-0.175
-0.195
-0.2
-0.215
-0.215
-0.225
-0.22
-0.23
-0.235
-0.25
-0.27
-0.295
-0.33
-0.385
-0.41
-0.445
-0.47
-0.485
-0.465
-0.4
-0.275
-0.16
-0.08
-0.015
0.04
0.05
0.035
0.01
0.015
0.005
0.005
-0.015
-0.025
-0.025
-0.02
0.01
0.035
0.04
0.05
0.04
0.055
0.08
0.095
0.11
0.21
0.33
0.39
0.385
0.34
0.23
0.095
0.035
0.015
-0.01
-0.02
-0.025
-0.035
-0.025
-0.02
-0.09
-0.065
0.445
1.495
3.285
3.645
1.5
0.03
-0.04
-0.095
-0.175
-0.195
-0.215
-0.205
-0.2
-0.19
-0.205
-0.225
-0.245
-0.225
-0.22
-0.215
-0.235
-0.25
-0.27
-0.315
-0.37
-0.415
-0.455
-0.495
-0.525
-0.525
-0.49
-0.4
-0.275
-0.145
-0.06
-0.005
0.025
0.045
0.185
0.165
-0.045
0.045
0.01
0.03
0.04
0.035
0.045
0.065
0.055
0.08
0.085
0.08
0.08
0.095
0.105
0.13
0.165
0.25
0.36
0.4
0.365
0.285
0.175
0.095
0.04
0.025
0.005
-0.005
-0.01
-0.03
-0.005
-0.005
-0.095
0.075
0.765
2.145
3.655
2.81
0.74
0.065
-0.03
-0.11
-0.175
-0.195
-0.21
-0.195
-0.185
-0.185
-0.205
-0.21
-0.185
-0.18
-0.195
-0.23
-0.24
-0.245
-0.27
-0.305
-0.36
-0.415
-0.485
-0.545
-0.56
-0.54
-0.485
-0.365
-0.235
-0.11
-0.025
0.02
0.03
0.05
0.035
0.015
0.02
0.015
0.02
0.045
0.035
0.035
0.055
0.08
0.085
0.085
0.07
0.08
0.095
0.115
0.145
0.13
0.185
0.315
0.415
0.43
0.39
0.285
0.165
0.085
0.045
0.035
0.035
0.03
0.015
0.015
0.015
0.01
-0.075
0.19
0.975
2.495
3.67
2.335
0.505
0.11
-0.01
-0.11
-0.17
-0.19
-0.185
-0.17
-0.165
-0.16
-0.165
-0.185
-0.195
-0.185
-0.165
-0.175
-0.22
-0.25
-0.285
-0.325
-0.355
-0.415
-0.475
-0.53
-0.56
-0.545
-0.495
-0.365
-0.22
-0.09
-0.005
0.045
0.06
0.065
0.035
0.005
0.015
0.025
0.025
0.015
0.02
0.035
0.055
0.06
0.08
0.065
0.05
0.04
0.05
0.08
0.1
0.095
0.15
0.255
0.36
0.375
0.35
0.24
0.13
0.05
0.005
-0.01
-0.035
-0.045
-0.045
-0.065
-0.055
-0.045
-0.12
0.12
0.865
2.305
3.63
2.495
0.58
0.08
-0.035
-0.145
-0.21
-0.24
-0.23
-0.21
-0.22
-0.23
-0.225
-0.24
-0.24
-0.235
-0.25
-0.27
-0.29
-0.31
-0.34
-0.4
-0.455
-0.51
-0.55
-0.58
-0.61
-0.615
-0.555
-0.44
-0.3
-0.165
-0.065
-0.03
-0.01
-0.02
-0.005
-0.005
-0.02
-0.025
-0.025
-0.02
-0.01
-0.005
0.02
0.015
0.025
0.03
0.02
-0.005
0.02
0.035
0.065
0.08
0.065
0.145
0.27
0.32
0.335
0.285
0.185
0.065
-0.015
-0.05
-0.045
-0.055
-0.065
-0.07
-0.07
-0.07
-0.08
-0.135
0.24
1.09
2.81
3.685
1.945
0.275
0.08
-0.07
-0.21
-0.245
-0.245
-0.255
-0.265
-0.275
-0.275
-0.295
-0.295
-0.31
-0.3
-0.305
-0.32
-0.35
-0.37
-0.42
-0.46
-0.53
-0.585
-0.645
-0.675
-0.69
-0.655
-0.58
-0.445
-0.315
-0.175
-0.1
-0.065
-0.055
-0.045
-0.065
-0.06
-0.075
-0.08
-0.08
-0.07
-0.07
-0.045
-0.045
-0.03
-0.03
-0.035
-0.05
-0.05
-0.045
-0.025
0.005
0.035
0.01
0.08
0.195
0.28
0.3
0.26
0.145
0.04
-0.045
-0.065
-0.09
-0.08
-0.09
-0.08
-0.1
-0.085
-0.115
-0.165
0.14
0.93
2.58
3.715
2.185
0.415
0.085
-0.06
-0.205
-0.255
-0.265
-0.27
-0.28
-0.26
-0.28
-0.285
-0.285
-0.305
-0.29
-0.285
-0.32
-0.35
-0.38
-0.43
-0.475
-0.53
-0.59
-0.64
-0.685
-0.7
-0.665
-0.595
-0.47
-0.325
-0.205
-0.14
-0.085
-0.06
-0.05
-0.07
-0.075
-0.085
-0.09
-0.08
-0.095
-0.09
-0.06
-0.05
-0.035
-0.03
-0.015
-0.02
-0.015
-0.03
-0.03
-0.03
0.01
0.02
0.03
0.115
0.215
0.265
0.295
0.245
0.145
0.02
-0.045
-0.075
-0.08
-0.1
-0.095
-0.105
-0.105
-0.12
-0.135
-0.145
0.215
1.03
2.755
3.575
1.855
0.245
0.035
-0.105
-0.225
-0.285
-0.295
-0.305
-0.285
-0.295
-0.3
-0.315
-0.31
-0.315
-0.31
-0.325
-0.325
-0.33
-0.325
-0.375
-0.44
-0.53
-0.58
-0.63
-0.645
-0.66
-0.625
-0.545
-0.415
-0.275
-0.125
-0.075
-0.05
-0.04
-0.04
-0.065
-0.04
-0.065
-0.08
-0.055
-0.05
-0.075
-0.05
-0.03
-0.02
-0.015
0.0
-0.035
-0.015
-0.005
0.015
0.01
0.02
0.035
0.055
0.03
0.105
0.215
0.315
0.335
0.265
0.135
0.02
-0.065
-0.065
-0.06
-0.06
-0.08
-0.07
-0.08
-0.07
-0.105
-0.105
0.32
1.245
2.785
3.175
1.29
-0.01
-0.06
-0.145
-0.26
-0.285
-0.255
-0.22
-0.27
-0.265
-0.235
-0.24
-0.27
-0.23
-0.255
-0.255
-0.25
-0.265
-0.335
-0.345
-0.395
-0.41
-0.45
-0.505
-0.545
-0.54
-0.525
-0.445
-0.305
-0.2
-0.14
-0.055
-0.03
-0.045
-0.08
-0.05
-0.045
-0.08
-0.08
-0.05
-0.065
-0.025
-0.03
0.025
0.055
0.035
0.01
0.02
0.0
-0.005
-0.02
-0.015
0.015
0.07
0.065
0.105
0.21
0.36
0.345
0.3
0.195
0.095
0.015
-0.015
-0.065
-0.065
-0.045
-0.045
-0.06
-0.045
-0.06
-0.135
0.045
0.795
2.17
3.46
2.27
0.35
-0.15
-0.195
-0.24
-0.235
-0.23
-0.205
-0.2
-0.195
-0.185
-0.185
-0.195
-0.19
-0.215
-0.19
-0.195
-0.205
-0.215
-0.245
-0.275
-0.305
-0.375
-0.415
-0.465
-0.49
-0.485
-0.425
-0.335
-0.195
-0.115
-0.05
-0.005
0.015
0.015
0.015
-0.01
-0.005
-0.02
-0.005
0.005
0.025
0.025
0.055
0.045
0.08
0.07
0.09
0.065
0.065
0.055
0.075
0.055
0.065
0.11
0.125
0.12
0.245
0.355
0.4
0.35
0.285
0.185
0.095
0.03
0.01
-0.01
0.02
0.01
0.015
-0.01
-0.015
-0.1
0.095
0.82
2.23
3.87
3.12
0.835
0.03
-0.05
-0.115
-0.165
-0.15
-0.18
-0.165
-0.17
-0.16
-0.18
-0.185
-0.195
-0.21
-0.205
-0.19
-0.205
-0.23
-0.265
-0.28
-0.315
-0.365
-0.42
-0.435
-0.455
-0.42
-0.375
-0.255
-0.15
-0.015
0.055
0.09
0.11
0.115
0.095
0.08
0.08
0.07
0.065
0.055
0.05
0.045
0.05
0.055
0.08
0.105
0.08
0.08
0.09
0.095
0.095
0.09
0.085
0.095
0.145
0.155
0.155
0.25
0.38
0.42
0.395
0.315
0.22
0.13
0.085
0.055
0.035
0.03
0.035
0.025
0.025
0.02
-0.035
0.08
0.675
1.915
3.815
3.65
1.325
0.145
0.08
-0.025
-0.125
-0.14
-0.15
-0.16
-0.155
-0.155
-0.16
-0.175
-0.165
-0.175
-0.18
-0.205
-0.21
-0.24
-0.265
-0.31
-0.345
-0.39
-0.415
-0.455
-0.46
-0.45
-0.39
-0.29
-0.16
-0.06
0.04
0.095
0.115
0.11
0.115
0.1
0.085
0.08
0.075
0.065
0.05
0.035
0.05
0.05
0.075
0.085
0.11
0.085
0.08
0.07
0.1
0.11
0.115
0.115
0.125
0.13
0.17
0.15
0.195
0.31
0.435
0.44
0.385
0.295
0.22
0.155
0.13
0.08
0.075
0.08
0.065
0.055
0.055
0.05
0.005
0.215
0.945
2.37
3.85
2.855
0.8
0.19
0.085
-0.07
-0.13
-0.12
-0.11
-0.145
-0.145
-0.13
-0.09
-0.105
-0.145
-0.175
-0.16
-0.14
-0.145
-0.215
-0.23
-0.245
-0.285
-0.365
-0.385
-0.4
-0.39
-0.355
-0.29
-0.205
-0.085
0.025
0.095
0.125
0.135
0.125
0.13
0.115
0.095
0.05
0.06
0.065
0.08
0.06
0.075
0.065
0.105
0.105
0.11
0.115
0.11
0.1
0.105
0.105
0.135
0.13
0.125
0.125
0.175
0.17
0.155
0.23
0.375
0.435
0.47
0.41
0.295
0.17
0.115
0.095
0.125
0.09
0.08
0.055
0.055
0.055
0.05
0.01
0.365
1.205
2.75
3.725
2.125
0.345
0.125
0.04
-0.055
-0.125
-0.115
-0.105
-0.12
-0.155
-0.105
-0.115
-0.105
-0.085
-0.08
-0.1
-0.105
-0.12
-0.135
-0.18
-0.19
-0.24
-0.265
-0.295
-0.31
-0.31
-0.295
-0.235
-0.14
-0.065
0.035
0.115
0.155
0.15
0.13
0.11
0.125
0.105
0.09
0.08
0.095
0.105
0.125
0.135
0.165
0.175
0.17
0.175
0.185
0.17
0.16
0.16
0.155
0.15
0.155
0.155
0.155
0.18
0.205
0.21
0.275
0.365
0.455
0.495
0.45
0.34
0.24
0.17
0.135
0.115
0.1
0.085
0.085
0.09
0.095
0.09
0.025
0.275
1.055
2.605
4.1
2.905
0.725
0.13
0.06
-0.01
-0.055
-0.065
-0.07
-0.065
-0.07
-0.08
-0.08
-0.09
-0.09
-0.105
-0.11
-0.13
-0.145
-0.15
-0.17
-0.23
-0.265
-0.295
-0.335
-0.345
-0.345
-0.32
-0.265
-0.17
-0.045
0.08
0.145
0.165
0.165
0.17
0.175
0.155
0.135
0.12
0.12
0.11
0.11
0.1
0.115
0.115
0.13
0.155
0.165
0.155
0.16
0.175
0.18
0.15
0.16
0.18
0.185
0.175
0.165
0.18
0.22
0.25
0.23
0.315
0.45
0.5
0.505
0.475
0.39
0.285
0.225
0.185
0.175
0.155
0.135
0.15
0.155
0.15
0.14
0.115
0.505
1.425
3.305
4.28
2.395
0.535
0.265
0.17
0.035
-0.02
-0.045
-0.045
-0.025
0.005
-0.045
-0.065
-0.05
-0.075
-0.105
-0.08
-0.06
-0.1
-0.14
-0.16
-0.185
-0.23
-0.275
-0.31
-0.285
-0.23
-0.185
-0.105
-0.01
0.06
0.155
0.195
0.245
0.26
0.205
0.195
0.175
0.155
0.19
0.175
0.115
0.1
0.125
0.12
0.115
0.115
0.105
0.135
0.14
0.125
0.15
0.185
0.195
0.155
0.155
0.16
0.17
0.21
0.22
0.175
0.175
0.24
0.335
0.425
0.51
0.495
0.41
0.29
0.2
0.165
0.135
0.11
0.06
0.07
0.1
0.08
0.055
0.035
0.055
0.485
1.415
3.07
3.725
1.78
0.08
-0.025
-0.065
-0.08
-0.07
-0.135
-0.165
-0.125
-0.09
-0.095
-0.13
-0.135
-0.09
-0.11
-0.11
-0.135
-0.175
-0.18
-0.165
-0.185
-0.22
-0.25
-0.265
-0.265
-0.255
-0.225
-0.185
-0.11
-0.01
0.07
0.11
0.125
0.08
0.06
0.035
0.01
0.015
-0.005
0.015
0.02
0.015
0.025
0.065
0.08
0.095
0.12
0.085
0.09
0.125
0.135
0.125
0.1
0.09
0.095
0.115
0.13
0.135
0.1
0.115
0.14
0.14
0.19
0.29
0.405
0.44
0.405
0.33
0.225
0.115
0.09
0.085
0.065
0.045
0.045
0.05
0.055
0.055
-0.03
0.155
0.915
2.34
3.995
3.215
0.785
-0.135
-0.11
-0.11
-0.16
-0.14
-0.11
-0.09
-0.115
-0.12
-0.095
-0.08
-0.085
-0.1
-0.115
-0.13
-0.145
-0.16
-0.165
-0.18
-0.21
-0.225
-0.24
-0.255
-0.24
-0.22
-0.175
-0.095
-0.02
0.025
0.065
0.125
0.135
0.13
0.11
0.085
0.07
0.055
0.045
0.03
0.02
0.015
0.015
0.01
0.045
0.065
0.05
0.06
0.08
0.075
0.07
0.08
0.065
0.065
0.08
0.065
0.055
0.06
0.065
0.08
0.115
0.13
0.16
0.26
0.36
0.375
0.345
0.27
0.165
0.085
0.04
0.02
0.02
0.0
-0.01
-0.005
-0.005
0.005
-0.07
0.135
0.915
2.51
4.335
3.395
0.82
-0.035
-0.025
-0.115
-0.185
-0.2
-0.19
-0.165
-0.18
-0.2
-0.19
-0.175
-0.195
-0.195
-0.17
-0.18
-0.21
-0.23
-0.25
-0.29
-0.33
-0.36
-0.375
-0.38
-0.355
-0.335
-0.26
-0.17
-0.06
0.015
0.065
0.1
0.095
0.1
0.115
0.08
0.055
0.035
0.025
0.01
0.005
0.01
-0.02
-0.01
-0.01
-0.03
-0.035
-0.02
-0.01
-0.015
-0.005
0.025
0.03
0.03
0.045
0.025
0.005
0.01
0.035
0.03
0.05
0.1
0.105
0.13
0.24
0.325
0.345
0.29
0.21
0.125
0.025
-0.035
-0.045
-0.015
0.01
-0.025
-0.05
-0.075
-0.07
-0.09
0.225
1.05
2.645
3.905
2.45
0.34
-0.09
-0.11
-0.21
-0.28
-0.255
-0.205
-0.185
-0.185
-0.21
-0.245
-0.205
-0.215
-0.215
-0.235
-0.24
-0.24
-0.22
-0.255
-0.305
-0.33
-0.345
-0.34
-0.305
-0.3
-0.235
-0.165
-0.135
-0.065
0.015
0.045
0.085
0.05
0.015
0.01
0.01
0.005
0.02
-0.055
-0.07
-0.04
-0.06
-0.075
-0.035
-0.035
-0.015
0.035
-0.005
-0.06
0.005
0.005
-0.005
0.005
0.005
-0.04
-0.015
-0.02
0.005
0.02
0.015
0.025
0.08
0.075
0.16
0.27
0.34
0.34
0.285
0.145
0.04
-0.005
0.01
-0.02
-0.02
-0.025
-0.02
-0.055
-0.04
-0.095
0.015
0.655
1.895
3.65
3.6
1.16
-0.26
-0.205
-0.175
-0.22
-0.195
-0.175
-0.185
-0.2
-0.165
-0.155
-0.135
-0.135
-0.145
-0.17
-0.15
-0.145
-0.165
-0.2
-0.195
-0.23
-0.235
-0.235
-0.215
-0.235
-0.225
-0.165
-0.08
-0.025
0.05
0.09
0.1
0.1
0.11
0.09
0.08
0.07
0.065
0.035
0.015
0.01
0.02
0.02
0.02
0.01
0.055
0.08
0.095
0.1
0.095
0.09
0.095
0.11
0.115
0.095
0.08
0.065
0.08
0.065
0.07
0.085
0.11
0.145
0.17
0.235
0.345
0.39
0.385
0.325
0.225
0.14
0.095
0.045
0.045
0.02
0.015
0.015
0.005
0.005
-0.01
-0.025
0.39
1.425
3.405
4.415
2.25
0.09
-0.105
-0.095
-0.175
-0.19
-0.19
-0.17
-0.165
-0.185
-0.195
-0.185
-0.185
-0.185
-0.195
-0.19
-0.2
-0.215
-0.25
-0.27
-0.29
-0.315
-0.33
-0.35
-0.35
-0.325
-0.3
-0.205
-0.085
-0.005
0.045
0.08
0.095
0.095
0.09
0.08
0.065
0.065
0.05
0.03
0.01
0.03
0.02
0.02
-0.01
-0.015
-0.03
-0.01
0.01
0.035
0.045
0.075
0.055
0.055
0.045
0.08
0.085
0.075
0.065
0.08
0.08
0.08
0.1
0.145
0.15
0.23
0.37
0.42
0.35
0.3
0.21
0.115
0.045
0.05
0.035
0.01
-0.005
0.03
0.02
-0.005
-0.065
0.015
0.515
1.65
3.65
4.08
1.73
0.04
-0.065
-0.06
-0.17
-0.165
-0.155
-0.175
-0.185
-0.11
-0.15
-0.185
-0.205
-0.25
-0.195
-0.175
-0.2
-0.205
-0.295
-0.33
-0.335
-0.315
-0.32
-0.335
-0.345
-0.275
-0.24
-0.18
-0.065
0.05
0.08
0.08
0.085
0.085
0.04
0.045
0.055
0.045
0.015
-0.015
-0.04
-0.035
-0.025
0.02
-0.065
-0.08
-0.02
0.01
-0.035
-0.01
-0.01
-0.02
-0.02
-0.01
-0.005
0.04
-0.005
0.005
0.03
0.01
0.0
0.08
0.095
0.125
0.2
0.295
0.33
0.31
0.215
0.115
0.01
-0.02
-0.035
-0.03
-0.055
-0.065
-0.045
-0.06
-0.075
-0.095
0.145
0.985
2.425
3.81
2.57
0.33
-0.265
-0.25
-0.33
-0.315
-0.24
-0.24
-0.23
-0.205
-0.24
-0.25
-0.265
-0.24
-0.22
-0.2
-0.215
-0.225
-0.235
-0.24
-0.29
-0.265
-0.27
-0.27
-0.26
-0.265
-0.28
-0.195
-0.11
-0.055
-0.02
0.035
0.03
0.015
-0.045
-0.045
-0.05
-0.05
-0.055
-0.075
-0.11
-0.1
-0.11
-0.095
-0.065
-0.035
-0.045
0.0
-0.025
-0.035
-0.035
-0.015
-0.035
-0.025
-0.025
-0.025
-0.04
-0.035
-0.03
-0.025
-0.005
0.045
0.01
0.055
0.15
0.27
0.295
0.26
0.155
0.075
-0.01
-0.05
-0.085
-0.09
-0.115
-0.105
-0.105
-0.11
-0.125
-0.175
0.045
0.88
2.415
4.11
3.095
0.53
-0.375
-0.32
-0.28
-0.265
-0.25
-0.255
-0.26
-0.245
-0.275
-0.27
-0.265
-0.24
-0.245
-0.235
-0.23
-0.24
-0.285
-0.28
-0.31
-0.315
-0.33
-0.325
-0.325
-0.3
-0.295
-0.225
-0.165
-0.09
-0.015
0.04
0.04
0.02
-0.005
-0.01
-0.045
-0.035
-0.055
-0.04
-0.07
-0.07
-0.08
-0.09
-0.1
-0.08
-0.08
-0.07
-0.075
-0.055
-0.05
-0.045
-0.045
-0.03
-0.05
-0.025
-0.02
-0.045
-0.045
-0.02
-0.015
0.02
0.02
0.055
0.155
0.26
0.275
0.25
0.205
0.11
-0.005
-0.035
-0.065
-0.075
-0.09
-0.08
-0.105
-0.1
-0.1
-0.14
-0.055
0.57
1.88
3.92
3.885
1.225
-0.285
-0.23
-0.225
-0.275
-0.275
-0.255
-0.245
-0.24
-0.27
-0.265
-0.285
-0.27
-0.285
-0.27
-0.29
-0.295
-0.31
-0.315
-0.335
-0.35
-0.395
-0.42
-0.43
-0.42
-0.4
-0.315
-0.225
-0.125
-0.05
0.0
0.005
0.015
-0.005
-0.015
-0.03
-0.01
-0.025
-0.04
-0.065
-0.06
-0.095
-0.08
-0.075
-0.05
-0.065
-0.06
-0.09
-0.095
-0.08
-0.04
-0.045
-0.045
-0.045
-0.03
-0.03
0.25
0.385
0.515
0.51
0.445
0.34
0.275
0.215
0.125
0.115
0.13
0.1
0.09
0.08
0.105
0.035
0.175
0.755
2.045
4.025
3.795
1.355
0.22
0.12
0.02
-0.09
-0.09
-0.065
-0.065
-0.095
-0.105
-0.125
-0.095
-0.075
-0.11
-0.13
-0.115
-0.13
-0.11
-0.145
-0.175
-0.19
-0.215
-0.255
-0.24
-0.23
-0.205
-0.15
-0.025
0.045
0.16
0.23
0.23
0.21
0.215
0.215
0.18
0.13
0.15
0.17
0.165
0.11
0.125
0.155
0.17
0.155
0.18
0.205
0.24
0.225
0.245
0.24
0.245
0.215
0.25
0.375
0.495
0.51
0.495
0.435
0.35
0.23
0.185
0.17
0.165
0.14
0.155
0.155
0.145
0.105
0.12
0.625
1.705
3.455
3.895
1.605
-0.055
-0.08
-0.08
-0.11
-0.06
-0.045
-0.06
-0.06
-0.02
-0.005
-0.015
-0.045
-0.01
-0.01
-0.04
-0.04
-0.04
-0.08
-0.08
-0.13
-0.16
-0.175
-0.18
-0.205
-0.175
-0.13
-0.055
0.025
0.135
0.145
0.15
0.165
0.175
0.1
0.09
0.095
0.095
0.09
0.125
0.14
0.16
0.155
0.17
0.17
0.175
0.185
0.19
0.155
0.165
0.155
0.165
0.17
0.185
0.19
0.305
0.42
0.45
0.4
0.335
0.23
0.135
0.095
0.09
0.04
0.03
0.025
0.02
0.0
-0.035
-0.035
0.455
1.495
3.455
4.015
1.715
-0.03
-0.075
-0.125
-0.185
-0.19
-0.15
-0.15
-0.165
-0.19
-0.23
-0.215
-0.185
-0.21
-0.19
-0.195
-0.205
-0.21
-0.225
-0.27
-0.315
-0.33
-0.325
-0.37
-0.38
-0.385
-0.295
-0.205
-0.08
-0.025
0.03
0.065
0.055
0.01
0.005
0.01
0.005
-0.015
-0.02
-0.035
-0.03
-0.055
-0.06
-0.035
-0.035
-0.04
0.005
0.03
0.035
0.005
0.035
0.05
0.065
0.055
0.06
0.155
0.26
0.275
0.24
0.205
0.155
0.045
-0.01
-0.03
-0.035
-0.08
-0.07
-0.08
-0.095
-0.095
-0.095
0.25
1.13
2.89
4.275
2.585
0.33
-0.09
-0.125
-0.215
-0.24
-0.225
-0.215
-0.2
-0.175
-0.185
-0.2
-0.25
-0.24
-0.285
-0.31
-0.295
-0.255
-0.28
-0.32
-0.295
-0.285
-0.37
-0.415
-0.42
-0.335
-0.26
-0.18
-0.105
-0.04
-0.025
0.01
0.025
0.05
0.045
0.085
0.05
0.01
-0.005
-0.055
-0.065
-0.005
-0.03
-0.055
-0.03
0.0
-0.025
0.035
0.045
-0.015
0.005
0.09
0.08
0.08
0.14
0.23
0.29
0.305
0.27
0.26
0.185
0.07
-0.04
0.01
0.025
-0.055
-0.035
0.005
-0.045
-0.03
-0.02
0.36
1.365
3.255
4.205
2.05
-0.06
-0.205
-0.205
-0.175
-0.155
-0.175
-0.215
-0.15
-0.105
-0.125
-0.15
-0.165
-0.175
-0.145
-0.12
-0.13
-0.155
-0.17
-0.205
-0.175
-0.21
-0.23
-0.205
-0.195
-0.17
-0.14
-0.1
0.01
0.03
0.09
0.095
0.085
0.045
0.025
0.055
0.01
-0.03
-0.03
-0.05
0.01
0.02
0.035
-0.015
-0.005
0.045
0.08
0.085
0.035
0.01
0.055
0.085
0.09
0.07
0.065
0.095
0.205
0.34
0.335
0.24
0.215
0.185
0.1
-0.025
-0.01
-0.005
-0.025
-0.025
-0.01
-0.04
-0.04
0.06
0.665
2.055
4.01
3.745
0.99
-0.445
-0.315
-0.265
-0.245
-0.205
-0.185
-0.155
-0.12
-0.175
-0.155
-0.135
-0.145
-0.175
-0.185
-0.17
-0.13
-0.135
-0.145
-0.2
-0.235
-0.255
-0.225
-0.195
-0.235
-0.235
-0.16
-0.09
0.035
0.055
0.065
0.07
0.045
0.03
-0.005
-0.05
-0.03
-0.05
-0.06
-0.1
-0.06
-0.02
0.01
-0.025
-0.03
0.03
0.04
0.03
0.045
-0.015
0.005
0.035
0.055
0.07
0.075
0.115
0.22
0.29
0.31
0.25
0.215
0.125
0.025
-0.01
0.015
-0.005
-0.025
-0.055
-0.045
-0.045
-0.105
-0.02
0.615
2.015
4.24
4.185
1.28
-0.355
-0.265
-0.225
-0.23
-0.195
-0.165
-0.185
-0.17
-0.18
-0.19
-0.195
-0.155
-0.175
-0.185
-0.215
-0.185
-0.19
-0.2
-0.205
-0.23
-0.285
-0.285
-0.28
-0.265
-0.23
-0.18
-0.12
-0.005
0.085
0.11
0.045
0.025
0.025
0.035
0.055
0.05
-0.03
-0.06
-0.05
-0.035
-0.07
-0.08
-0.075
-0.035
-0.03
-0.05
-0.04
-0.035
-0.08
-0.035
0.01
0.03
0.075
0.065
0.07
0.215
0.3
0.32
0.295
0.195
0.075
0.08
0.01
-0.03
-0.015
-0.025
-0.03
0.02
-0.065
-0.11
0.02
0.545
1.805
3.97
4.24
1.565
-0.255
-0.235
-0.17
-0.225
-0.205
-0.21
-0.155
-0.155
-0.235
-0.16
-0.16
-0.19
-0.145
-0.15
-0.185
-0.185
-0.175
-0.18
-0.23
-0.255
-0.28
-0.22
-0.15
-0.175
-0.195
-0.075
-0.02
0.08
0.13
0.145
0.115
0.085
0.06
0.08
0.07
0.1
-0.005
-0.055
-0.025
-0.03
-0.065
-0.02
0.02
-0.04
-0.08
-0.05
-0.015
0.035
0.015
0.015
0.025
0.08
0.12
0.05
0.085
0.23
0.315
0.32
0.245
0.215
0.145
0.09
0.025
-0.04
-0.055
-0.055
-0.025
0.005
-0.025
-0.1
-0.095
0.42
1.58
3.715
4.455
1.935
-0.335
-0.445
-0.235
-0.205
-0.265
-0.185
-0.12
-0.17
-0.22
-0.19
-0.15
-0.175
-0.155
-0.1
-0.195
-0.21
-0.195
-0.165
-0.17
-0.21
-0.22
-0.235
-0.255
-0.185
-0.145
-0.045
0.035
0.01
0.015
0.055
0.065
0.095
0.015
0.03
-0.005
-0.035
-0.035
-0.05
-0.035
-0.045
-0.08
-0.065
-0.105
-0.125
-0.105
-0.04
-0.015
-0.005
-0.065
-0.065
-0.015
-0.005
0.0
0.035
0.025
0.12
0.25
0.31
0.225
0.175
0.125
0.045
-0.035
-0.06
-0.065
-0.05
-0.08
-0.13
-0.12
-0.055
-0.12
0.21
1.21
3.23
4.685
2.645
-0.12
-0.535
-0.34
-0.265
-0.265
-0.285
-0.225
-0.15
-0.175
-0.21
-0.215
-0.195
-0.195
-0.205
-0.22
-0.185
-0.19
-0.21
-0.24
-0.255
-0.24
-0.2
-0.195
-0.17
-0.175
-0.095
-0.05
0.025
0.08
0.06
0.055
0.05
0.02
0.015
-0.02
0.005
-0.015
-0.01
-0.045
-0.06
-0.08
-0.065
-0.07
-0.055
-0.06
-0.045
-0.01
-0.07
-0.075
0.02
0.02
0.015
0.065
0.085
0.03
0.095
0.185
0.285
0.29
0.235
0.175
0.135
0.02
-0.055
-0.05
-0.045
-0.025
-0.04
-0.075
-0.07
-0.105
-0.025
0.545
1.87
4.15
4.475
1.565
-0.455
-0.4
-0.265
-0.275
-0.215
-0.17
-0.15
-0.19
-0.21
-0.21
-0.19
-0.17
-0.18
-0.21
-0.165
-0.2
-0.215
-0.225
-0.225
-0.255
-0.25
-0.22
-0.205
-0.205
-0.13
-0.09
0.03
0.08
0.055
0.08
0.095
0.1
0.125
0.095
0.015
-0.02
0.045
0.03
0.045
0.01
-0.015
-0.055
-0.045
-0.03
-0.02
-0.03
0.005
-0.015
0.01
0.03
0.05
0.045
0.08
0.14
0.14
0.18
0.305
0.335
0.325
0.315
0.25
0.13
0.085
0.015
0.015
0.01
-0.015
-0.025
0.015
0.005
-0.075
0.12
1.055
2.95
4.815
3.515
0.51
-0.375
-0.225
-0.225
-0.215
-0.225
-0.19
-0.135
-0.12
-0.165
-0.195
-0.205
-0.175
-0.205
-0.195
-0.19
-0.19
-0.24
-0.235
-0.225
-0.28
-0.245
-0.195
-0.23
-0.16
-0.105
-0.015
0.11
0.165
0.12
0.145
0.15
0.135
0.115
0.13
0.095
0.08
0.105
0.135
0.045
0.05
0.08
0.015
-0.03
-0.005
0.035
0.04
0.01
0.03
0.03
0.045
0.07
0.12
0.17
0.17
0.225
0.355
0.36
0.38
0.355
0.255
0.175
0.07
0.03
0.08
0.03
-0.01
0.005
0.015
0.035
-0.025
0.085
0.84
2.335
4.35
3.875
0.895
-0.485
-0.325
-0.265
-0.215
-0.185
-0.21
-0.255
-0.22
-0.12
-0.105
-0.18
-0.17
-0.185
-0.195
-0.185
-0.185
-0.245
-0.255
-0.23
-0.215
-0.23
-0.23
-0.205
-0.155
-0.115
-0.09
-0.02
0.065
0.045
-0.05
-0.095
-0.03
-0.03
-0.075
-0.155
-0.13
-0.1
-0.165
-0.22
-0.245
-0.305
-0.285
-0.24
-0.32
-0.3
-0.305
-0.34
-0.245
-0.28
-0.215
-0.24
-0.24
-0.23
-0.265
-0.19
-0.105
-0.125
-0.065
-0.05
-0.215
-0.33
-0.345
-0.41
-0.365
-0.39
-0.455
-0.475
-0.475
-0.53
-0.63
-0.35
0.49
2.09
3.97
3.165
0.33
-0.775
-0.595
-0.53
-0.49
-0.455
-0.53
-0.76
-0.74
-0.525
-0.395
-0.3
-0.325
-0.38
-0.345
-0.29
-0.35
-0.51
-0.66
-0.715
-0.56
-0.42
-0.495
-0.49
-0.405
-0.405
-0.405
-0.355
-0.225
-0.325
-0.275
-0.11
-0.025
-0.23
-0.27
-0.08
-0.24
-0.395
-0.42
-0.32
-0.42
-0.335
-0.13
-0.29
-0.345
-0.535
-0.495
-0.31
-0.36
-0.41
-0.345
-0.18
-0.235
-0.29
-0.37
-0.295
-0.125
-0.165
-0.085
-0.075
-0.115
-0.175
-0.185
-0.26
-0.385
-0.465
-0.49
-0.39
-0.24
-0.36
-0.315
-0.555
-0.29
0.965
2.875
4.335
2.61
-0.01
-0.6
-0.595
-0.58
-0.555
-0.505
-0.605
-0.69
-0.675
-0.465
-0.42
-0.45
-0.575
-0.755
-0.655
-0.515
-0.59
-0.765
-0.735
-0.69
-0.755
-0.755
-0.695
-0.59
-0.72
-0.58
-0.515
-0.365
-0.245
-0.27
-0.275
-0.305
-0.355
-0.375
-0.26
-0.265
-0.34
-0.385
-0.36
-0.285
-0.285
-0.45
-0.49
-0.475
-0.435
-0.3
-0.28
-0.315
-0.34
-0.385
-0.365
-0.32
-0.32
-0.385
-0.395
-0.33
-0.35
-0.205
-0.025
-0.045
-0.08
-0.005
-0.135
-0.31
-0.325
-0.415
-0.495
-0.395
-0.36
-0.395
-0.385
-0.47
-0.535
-0.085
0.905
2.805
4.4
2.75
0.005
-0.61
-0.515
-0.65
-0.695
-0.56
-0.53
-0.585
-0.69
-0.59
-0.455
-0.68
-0.64
-0.5
-0.655
-0.63
-0.655
-0.8
-0.745
-0.705
-0.815
-0.87
-0.775
-0.585
-0.615
-0.42
-0.325
-0.455
-0.365
-0.24
-0.245
-0.255
-0.235
-0.225
-0.205
-0.175
-0.295
-0.315
-0.27
-0.345
-0.34
-0.32
-0.465
-0.445
-0.315
-0.32
-0.325
-0.39
-0.355
-0.26
-0.375
-0.35
-0.295
-0.435
-0.515
-0.295
-0.235
-0.155
0.05
0.05
-0.045
-0.05
-0.075
-0.185
-0.305
-0.38
-0.445
-0.35
-0.17
-0.24
-0.33
-0.275
-0.285
-0.33
0.035
1.015
3.145
4.475
2.36
-0.105
-0.495
-0.41
-0.425
-0.465
-0.465
-0.34
-0.42
-0.55
-0.49
-0.33
-0.325
-0.475
-0.61
-0.585
-0.53
-0.45
-0.4
-0.415
-0.6
-0.645
-0.635
-0.63
-0.55
-0.565
-0.55
-0.31
-0.005
-0.015
-0.12
-0.025
0.025
0.045
0.025
-0.11
-0.16
-0.175
-0.1
-0.075
-0.15
-0.185
-0.19
-0.25
-0.22
-0.275
-0.295
-0.295
-0.255
-0.185
-0.185
-0.205
-0.125
-0.185
-0.27
-0.225
-0.185
-0.15
-0.185
-0.08
0.05
0.045
0.105
0.18
0.07
-0.09
-0.27
-0.225
-0.075
-0.1
-0.16
-0.195
-0.215
-0.155
-0.26
-0.025
0.735
2.115
4.165
3.875
0.925
-0.42
-0.385
-0.4
-0.305
-0.285
-0.29
-0.315
-0.355
-0.34
-0.345
-0.4
-0.34
-0.3
-0.41
-0.44
-0.42
-0.47
-0.475
-0.465
-0.525
-0.515
-0.545
-0.585
-0.53
-0.39
-0.3
-0.205
-0.12
-0.195
-0.2
-0.05
0.08
0.045
-0.065
-0.05
-0.05
-0.06
-0.065
-0.075
-0.165
-0.21
-0.14
-0.12
-0.135
-0.125
-0.175
-0.18
-0.135
-0.11
-0.115
-0.095
-0.09
-0.105
-0.045
0.015
0.035
0.02
0.06
0.205
0.21
0.195
0.15
0.075
-0.035
-0.11
-0.17
-0.225
-0.17
-0.12
-0.15
-0.12
-0.09
-0.15
-0.12
0.45
1.645
3.67
4.13
1.5
-0.495
-0.44
-0.315
-0.33
-0.31
-0.275
-0.265
-0.225
-0.225
-0.305
-0.335
-0.29
-0.31
-0.34
-0.32
-0.29
-0.295
-0.34
-0.365
-0.395
-0.44
-0.47
-0.49
-0.44
-0.465
-0.455
-0.34
-0.225
-0.165
-0.12
-0.105
-0.095
-0.15
-0.165
-0.165
-0.195
-0.215
-0.225
-0.26
-0.255
-0.225
-0.19
-0.19
-0.2
-0.225
-0.255
-0.235
-0.21
-0.21
-0.205
-0.265
-0.27
-0.2
-0.185
-0.17
-0.165
-0.215
-0.145
0.005
0.045
0.01
-0.03
-0.155
-0.26
-0.31
-0.305
-0.365
-0.43
-0.41
-0.36
-0.37
-0.37
-0.395
-0.135
0.765
2.47
3.88
2.37
-0.115
-0.715
-0.645
-0.545
-0.485
-0.425
-0.42
-0.44
-0.48
-0.465
-0.435
-0.395
-0.43
-0.455
-0.465
-0.48
-0.49
-0.435
-0.47
-0.51
-0.505
-0.525
-0.57
-0.585
-0.55
-0.525
-0.53
-0.435
-0.325
-0.24
-0.215
-0.2
-0.225
-0.215
-0.22
-0.23
-0.225
-0.265
-0.325
-0.305
-0.3
-0.295
-0.27
-0.19
-0.17
-0.195
-0.215
-0.165
-0.165
-0.24
-0.26
-0.22
-0.245
-0.215
-0.19
-0.175
-0.11
0.0
0.04
0.01
-0.05
-0.12
-0.23
-0.29
-0.31
-0.28
-0.27
-0.27
-0.28
-0.27
-0.28
-0.38
-0.225
0.63
2.285
3.885
2.675
0.155
-0.63
-0.585
-0.535
-0.515
-0.485
-0.465
-0.475
-0.475
-0.495
-0.425
-0.41
-0.435
-0.4
-0.375
-0.465
-0.53
-0.53
-0.505
-0.555
-0.58
-0.64
-0.62
-0.52
-0.51
-0.525
-0.5
-0.46
-0.345
-0.215
-0.185
-0.21
-0.15
-0.13
-0.175
-0.225
-0.26
-0.27
-0.23
-0.255
-0.24
-0.23
-0.155
-0.175
-0.225
-0.13
-0.085
-0.14
-0.155
-0.165
-0.115
-0.12
-0.125
-0.065
-0.095
-0.14
-0.05
0.08
0.08
0.05
-0.035
-0.175
-0.205
-0.25
-0.25
-0.255
-0.235
-0.24
-0.235
-0.235
-0.28
-0.185
0.435
1.725
3.55
3.365
0.905
-0.46
-0.435
-0.395
-0.4
-0.395
-0.415
-0.42
-0.425
-0.47
-0.475
-0.445
-0.365
-0.365
-0.365
-0.375
-0.385
-0.365
-0.39
-0.51
-0.555
-0.575
-0.555
-0.6
-0.66
-0.635
-0.53
-0.475
-0.345
-0.175
-0.19
-0.185
-0.08
-0.105
-0.185
-0.28
-0.355
-0.4
-0.35
-0.2
-0.08
-0.08
-0.135
-0.13
-0.1
-0.11
-0.145
-0.245
-0.295
-0.165
-0.03
-0.1
-0.145
-0.155
-0.085
0.065
0.175
0.16
0.145
0.08
0.02
-0.01
-0.075
-0.175
-0.345
-0.375
-0.1
0.02
-0.145
-0.215
-0.275
0.075
1.115
2.955
3.86
1.675
-0.385
-0.455
-0.495
-0.42
-0.325
-0.31
-0.305
-0.255
-0.285
-0.275
-0.295
-0.26
-0.295
-0.305
-0.26
-0.21
-0.205
-0.24
-0.29
-0.33
-0.345
-0.37
-0.445
-0.445
-0.445
-0.42
-0.345
-0.31
-0.24
-0.185
-0.19
-0.195
-0.22
-0.24
-0.205
-0.255
-0.275
-0.24
-0.215
-0.175
-0.14
-0.145
-0.135
-0.145
-0.14
-0.15
-0.155
-0.15
-0.15
-0.14
-0.165
-0.175
-0.065
0.09
0.155
0.165
0.155
0.125
0.01
-0.125
-0.105
-0.08
-0.125
-0.165
-0.165
-0.195
-0.2
-0.25
-0.225
0.275
1.365
3.305
4.08
1.695
-0.42
-0.555
-0.515
-0.455
-0.44
-0.44
-0.295
-0.24
-0.245
-0.285
-0.39
-0.41
-0.37
-0.295
-0.28
-0.3
-0.355
-0.35
-0.35
-0.37
-0.385
-0.39
-0.405
-0.425
-0.41
-0.355
-0.275
-0.175
-0.15
-0.105
-0.06
-0.04
-0.06
-0.07
-0.07
-0.08
-0.135
-0.145
-0.135
-0.12
-0.1
-0.095
-0.105
-0.055
-0.05
-0.045
-0.055
-0.03
-0.05
-0.02
-0.01
-0.025
-0.03
0.065
0.165
0.195
0.165
0.09
-0.015
-0.135
-0.175
-0.21
-0.295
-0.245
-0.15
-0.215
-0.23
-0.3
-0.235
0.36
1.725
3.77
3.67
0.895
-0.685
-0.575
-0.425
-0.375
-0.365
-0.425
-0.475
-0.485
-0.475
-0.41
-0.37
-0.395
-0.395
-0.375
-0.345
-0.35
-0.35
-0.365
-0.395
-0.44
-0.425
-0.415
-0.445
-0.49
-0.455
-0.4
-0.37
-0.345
-0.275
-0.225
-0.195
-0.225
-0.245
-0.32
-0.27
-0.225
-0.21
-0.195
-0.225
-0.33
-0.335
-0.3
-0.225
-0.215
-0.185
-0.16
-0.155
-0.135
-0.135
-0.13
-0.13
-0.14
-0.06
0.045
0.04
-0.025
-0.105
-0.195
-0.275
-0.33
-0.345
-0.27
-0.175
-0.125
-0.095
-0.205
-0.315
-0.14
0.515
1.865
3.81
3.49
0.735
-0.7
-0.505
-0.38
-0.33
-0.33
-0.325
-0.25
-0.295
-0.365
-0.35
-0.32
-0.27
-0.27
-0.31
-0.285
-0.315
-0.385
-0.34
-0.32
-0.33
-0.345
-0.34
-0.37
-0.325
-0.32
-0.33
-0.225
-0.105
-0.045
-0.005
-0.055
-0.09
-0.14
-0.205
-0.195
-0.165
-0.205
-0.23
-0.255
-0.255
-0.275
-0.32
-0.32
-0.275
-0.26
-0.3
-0.285
-0.25
-0.21
-0.15
-0.145
-0.015
0.04
-0.025
-0.015
-0.055
-0.175
-0.225
-0.265
-0.3
-0.345
-0.355
-0.35
-0.335
-0.32
-0.295
-0.24
0.34
1.59
3.555
3.775
1.165
-0.59
-0.545
-0.49
-0.435
-0.4
-0.385
-0.395
-0.365
-0.365
-0.395
-0.395
-0.365
-0.345
-0.345
-0.36
-0.385
-0.415
-0.395
-0.405
-0.395
-0.42
-0.445
-0.495
-0.525
-0.525
-0.475
-0.39
-0.315
-0.24
-0.185
-0.17
-0.165
-0.165
-0.21
-0.255
-0.24
-0.265
-0.295
-0.32
-0.26
-0.245
-0.23
-0.25
-0.28
-0.29
-0.275
-0.24
-0.15
-0.12
-0.12
-0.095
-0.065
-0.03
-0.08
-0.12
-0.09
-0.05
-0.075
-0.185
-0.185
-0.165
-0.185
-0.24
-0.215
-0.215
-0.215
-0.235
-0.18
0.34
1.525
3.7
4.33
1.66
-0.48
-0.54
-0.44
-0.445
-0.385
-0.4
-0.46
-0.45
-0.27
-0.205
-0.25
-0.355
-0.4
-0.335
-0.3
-0.335
-0.295
-0.295
-0.375
-0.425
-0.405
-0.385
-0.27
-0.155
-0.115
-0.05
0.015
0.05
0.055
0.02
-0.04
-0.02
0.06
0.045
-0.02
-0.065
-0.065
-0.105
-0.085
-0.105
-0.15
-0.17
-0.18
-0.165
-0.145
-0.175
-0.13
-0.135
-0.165
-0.135
-0.135
-0.095
-0.02
0.035
0.05
0.01
-0.025
-0.125
-0.205
-0.235
-0.255
-0.255
-0.255
-0.26
-0.265
-0.26
-0.28
-0.22
0.32
1.605
3.835
4.125
1.305
-0.61
-0.585
-0.455
-0.43
-0.39
-0.4
-0.4
-0.395
-0.415
-0.41
-0.395
-0.415
-0.445
-0.435
-0.445
-0.43
-0.43
-0.455
-0.475
-0.465
-0.485
-0.465
-0.465
-0.49
-0.43
-0.33
-0.26
-0.19
-0.155
-0.12
-0.145
-0.135
-0.145
-0.175
-0.165
-0.165
-0.215
-0.225
-0.25
-0.27
-0.26
-0.27
-0.255
-0.25
-0.265
-0.25
-0.23
-0.23
-0.185
-0.135
-0.165
-0.13
-0.005
0.125
0.105
0.035
-0.01
-0.12
-0.19
-0.225
-0.235
-0.23
-0.255
-0.21
-0.24
-0.28
-0.24
-0.285
0.05
1.04
2.975
4.29
2.355
-0.13
-0.5
-0.385
-0.415
-0.445
-0.435
-0.38
-0.37
-0.385
-0.345
-0.325
-0.33
-0.325
-0.35
-0.35
-0.33
-0.305
-0.305
-0.34
-0.365
-0.385
-0.37
-0.34
-0.33
-0.305
-0.27
-0.145
-0.05
-0.005
0.045
-0.005
-0.055
-0.08
-0.08
-0.12
-0.13
-0.135
-0.105
-0.11
-0.165
-0.185
-0.155
-0.14
-0.12
-0.135
-0.115
-0.095
-0.08
-0.08
-0.08
-0.08
-0.045
0.045
0.14
0.225
0.23
0.16
0.05
-0.05
-0.08
-0.125
-0.12
-0.135
-0.155
-0.135
-0.14
-0.17
-0.225
-0.105
0.565
2.005
4.01
3.655
0.77
-0.675
-0.555
-0.465
-0.36
-0.33
-0.295
-0.265
-0.275
-0.29
-0.275
-0.235
-0.22
-0.245
-0.235
-0.26
-0.26
-0.25
-0.25
-0.24
-0.28
-0.3
-0.325
-0.34
-0.295
-0.265
-0.245
-0.18
-0.11
-0.05
0.01
-0.015
-0.045
-0.055
-0.09
-0.095
-0.09
-0.08
-0.05
-0.115
-0.145
-0.095
-0.035
-0.025
-0.025
-0.005
0.01
0.025
0.015
-0.045
-0.005
0.045
0.07
0.09
0.17
0.255
0.29
0.275
0.255
0.175
0.08
-0.01
-0.03
-0.065
-0.065
-0.04
-0.005
-0.02
-0.05
-0.095
-0.035
0.61
2.025
4.115
3.985
1.065
-0.525
-0.445
-0.39
-0.325
-0.305
-0.28
-0.285
-0.285
-0.175
-0.175
-0.15
-0.18
-0.195
-0.2
-0.18
-0.185
-0.17
-0.195
-0.205
-0.19
-0.18
-0.185
-0.185
-0.185
-0.115
-0.105
-0.065
0.055
0.11
0.085
0.105
0.105
0.12
0.09
0.04
0.01
0.015
-0.02
-0.035
-0.035
-0.025
-0.045
-0.025
0.005
0.025
0.03
0.05
0.06
0.095
0.08
0.08
0.085
0.12
0.205
0.29
0.33
0.295
0.23
0.18
0.065
0.005
-0.025
-0.04
-0.045
-0.045
-0.035
-0.03
-0.065
-0.105
-0.035
0.56
1.85
4.045
4.195
1.365
-0.39
-0.31
-0.265
-0.235
-0.225
-0.24
-0.23
-0.215
-0.215
-0.21
-0.235
-0.225
-0.225
-0.215
-0.225
-0.205
-0.235
-0.265
-0.29
-0.305
-0.325
-0.305
-0.305
-0.305
-0.275
-0.195
-0.12
-0.005
0.015
0.025
0.01
0.005
-0.005
-0.015
-0.03
-0.025
-0.06
-0.065
-0.105
-0.11
-0.08
-0.06
-0.085
-0.075
-0.045
-0.03
-0.04
-0.025
-0.01
0.005
0.015
0.045
0.065
0.09
0.165
0.265
0.265
0.255
0.205
0.125
-0.005
-0.04
-0.06
-0.075
-0.08
-0.1
-0.11
-0.08
-0.1
-0.16
-0.02
0.685
2.215
4.33
3.815
0.905
-0.375
-0.265
-0.27
-0.255
-0.235
-0.245
-0.265
-0.26
-0.24
-0.24
-0.25
-0.25
-0.28
-0.255
-0.255
-0.24
-0.29
-0.315
-0.355
-0.395
-0.435
-0.44
-0.435
-0.39
-0.36
-0.28
-0.17
-0.1
-0.055
-0.02
-0.035
-0.025
-0.035
-0.055
-0.06
-0.055
-0.085
-0.075
-0.095
-0.095
-0.12
-0.12
-0.13
-0.115
-0.145
-0.115
-0.1
-0.07
-0.07
-0.06
-0.065
-0.025
-0.005
0.015
0.035
0.15
0.24
0.235
0.2
0.16
0.055
-0.035
-0.1
-0.105
-0.11
-0.12
-0.135
-0.12
-0.115
-0.08
-0.175
0.095
0.925
2.71
4.4
3.02
0.385
-0.255
-0.205
-0.255
-0.285
-0.285
-0.29
-0.275
-0.295
-0.3
-0.295
-0.29
-0.295
-0.295
-0.325
-0.315
-0.35
-0.355
-0.39
-0.4
-0.455
-0.47
-0.5
-0.46
-0.465
-0.415
-0.325
-0.21
-0.15
-0.07
-0.02
0.04
-0.025
-0.08
-0.08
-0.08
-0.105
-0.11
-0.12
-0.05
-0.01
0.025
-0.035
-0.07
-0.05
-0.005
0.01
0.015
-0.01
0.06
0.105
0.135
0.035
0.085
0.2
0.235
0.35
0.41
0.35
0.47
0.555
0.52
0.25
0.085
0.005
-0.045
0.08
0.15
0.17
0.085
-0.115
-0.16
0.165
1.08
2.865
4.305
2.71
0.33
-0.2
-0.16
-0.23
-0.24
-0.315
-0.35
-0.32
-0.265
-0.28
-0.31
-0.285
-0.23
-0.205
-0.25
-0.345
-0.345
-0.375
-0.425
-0.47
-0.48
-0.545
-0.54
-0.54
-0.515
-0.455
-0.325
-0.235
-0.06
-0.025
0.045
0.015
-0.02
-0.07
-0.045
-0.095
-0.02
-0.055
-0.07
-0.14
-0.08
-0.125
-0.075
-0.11
-0.05
-0.09
-0.065
-0.075
-0.06
-0.08
-0.015
0.0
0.055
-0.01
0.035
0.13
0.305
0.3
0.28
0.22
0.195
0.03
0.02
-0.05
-0.08
-0.11
-0.065
-0.08
-0.045
-0.075
-0.125
0.0
0.8
2.23
3.89
2.96
0.575
-0.33
-0.265
-0.235
-0.165
-0.195
-0.2
-0.26
-0.145
-0.195
-0.185
-0.175
-0.135
-0.205
-0.145
-0.165
-0.15
-0.2
-0.195
-0.27
-0.25
-0.285
-0.28
-0.275
-0.265
-0.37
-0.195
-0.14
-0.055
0.01
0.05
0.015
0.04
0.015
0.015
-0.07
0.01
-0.035
-0.025
-0.05
0.015
-0.015
0.08
0.085
0.105
0.05
0.06
0.085
0.155
0.065
0.055
0.055
0.105
0.05
0.155
0.15
0.225
0.29
0.375
0.31
0.245
0.095
0.05
-0.025
0.005
0.02
0.02
-0.08
-0.015
-0.04
-0.095
-0.01
0.595
1.785
3.83
3.93
1.115
-0.595
-0.445
-0.4
-0.3
-0.26
-0.2
-0.215
-0.19
-0.235
-0.2
-0.115
0.03
-0.1
-0.235
-0.29
-0.25
-0.18
-0.09
-0.115
-0.16
-0.235
-0.22
-0.235
-0.235
-0.33
-0.215
-0.065
0.03
0.025
0.08
0.11
0.09
-0.04
0.05
0.035
0.005
-0.03
0.01
-0.005
0.04
0.05
0.115
0.135
0.125
0.155
0.19
0.135
0.185
0.225
0.165
0.09
0.115
0.13
0.175
0.245
0.315
0.33
0.325
0.265
0.225
0.11
0.035
-0.015
-0.045
-0.07
-0.05
-0.07
-0.055
-0.05
-0.035
0.04
0.71
2.235
4.365
4.005
1.045
-0.52
-0.395
-0.315
-0.255
-0.185
-0.145
-0.17
-0.125
-0.15
-0.125
-0.135
-0.115
-0.165
-0.135
-0.165
-0.155
-0.185
-0.185
-0.215
-0.19
-0.235
-0.235
-0.275
-0.23
-0.22
-0.125
-0.09
0.015
0.045
0.08
0.02
0.085
0.035
0.035
-0.015
0.01
-0.05
0.005
-0.04
-0.025
-0.03
-0.01
-0.05
-0.01
-0.005
0.03
0.0
0.035
0.005
0.055
0.045
0.095
0.08
0.145
0.19
0.265
0.255
0.265
0.175
0.13
0.02
-0.005
-0.06
-0.055
-0.08
-0.06
-0.08
-0.045
-0.12
0.08
0.86
2.45
4.515
4.13
1.04
-0.475
-0.15
0.08
-0.16
-0.135
-0.045
-0.155
-0.325
-0.29
-0.235
-0.205
-0.305
-0.19
-0.175
-0.285
-0.37
-0.315
-0.335
-0.325
-0.365
-0.345
-0.335
-0.27
-0.27
-0.195
-0.15
-0.04
-0.03
0.025
0.005
0.02
-0.04
0.005
-0.025
-0.005
-0.04
-0.01
-0.03
-0.01
-0.09
-0.08
-0.09
-0.06
-0.095
-0.065
-0.08
-0.04
-0.07
-0.025
0.01
0.08
0.035
0.115
0.22
0.3
0.265
0.28
0.175
0.115
0.0
0.005
-0.005
-0.005
-0.075
-0.05
-0.065
-0.025
-0.1
0.125
0.95
2.75
4.58
3.36
0.405
-0.46
-0.365
-0.255
-0.215
-0.09
-0.15
-0.155
-0.16
-0.115
-0.12
-0.075
-0.11
-0.12
-0.135
-0.11
-0.11
-0.11
-0.18
-0.125
-0.145
-0.155
-0.195
-0.145
-0.165
-0.085
-0.055
0.095
0.165
0.185
0.125
0.13
0.095
0.13
0.085
0.11
0.07
0.11
0.07
0.085
0.08
0.095
0.055
0.06
0.07
0.155
0.135
0.165
0.115
0.18
0.195
0.255
0.225
0.33
0.425
0.445
0.37
0.36
0.235
0.165
0.11
0.13
0.085
0.095
0.075
0.105
0.085
0.09
0.13
0.775
2.21
4.315
4.11
1.22
-0.45
-0.29
-0.175
-0.1
-0.075
-0.035
-0.025
0.01
-0.06
-0.045
-0.03
-0.015
-0.03
0.0
-0.04
-0.015
-0.06
-0.055
-0.08
-0.035
-0.08
-0.08
-0.105
-0.045
-0.02
0.06
0.085
0.2
0.215
0.225
0.185
0.24
0.21
0.185
0.175
0.21
0.155
0.135
0.09
0.125
0.11
0.135
0.115
0.14
0.13
0.185
0.15
0.185
0.21
0.245
0.225
0.295
0.395
0.51
0.485
0.455
0.39
0.31
0.2
0.175
0.12
0.145
0.135
0.175
0.145
0.135
0.09
0.145
0.66
1.925
3.97
4.305
1.625
-0.17
-0.13
-0.04
-0.075
-0.025
-0.025
-0.005
-0.05
-0.015
-0.02
0.01
-0.025
-0.02
-0.035
-0.025
-0.055
-0.035
-0.065
-0.06
-0.12
-0.11
-0.14
-0.155
-0.15
-0.09
-0.05
0.065
0.125
0.205
0.22
0.24
0.195
0.22
0.205
0.205
0.17
0.165
0.135
0.155
0.135
0.185
0.135
0.105
0.09
0.145
0.155
0.2
0.175
0.225
0.265
0.285
0.28
0.4
0.47
0.5
0.44
0.4
0.285
0.24
0.17
0.175
0.15
0.165
0.13
0.145
0.14
0.155
0.145
0.65
1.77
3.835
4.395
1.915
-0.035
-0.03
-0.015
-0.045
-0.025
0.025
0.03
0.05
0.0
0.035
0.03
0.01
-0.04
0.015
0.025
0.04
-0.02
-0.015
-0.035
-0.03
-0.035
-0.04
-0.115
-0.05
-0.015
0.09
0.18
0.24
0.25
0.295
0.295
0.315
0.29
0.29
0.25
0.275
0.245
0.245
0.16
0.145
0.16
0.18
0.205
0.225
0.165
0.21
0.245
0.225
0.22
0.34
0.3
0.315
0.425
0.55
0.525
0.505
0.415
0.33
0.27
0.25
0.165
0.195
0.155
0.18
0.165
0.165
0.155
0.135
0.515
1.56
3.515
4.56
2.2
-0.07
-0.23
-0.125
-0.09
-0.02
-0.015
0.05
0.05
0.055
-0.02
0.04
0.06
0.025
0.045
0.06
-0.02
0.025
0.08
0.105
0.035
0.07
-0.015
0.135
0.16
0.13
0.105
0.285
0.225
0.165
0.29
0.4
0.295
0.315
0.245
0.235
0.245
0.34
0.21
0.245
0.195
0.22
0.24
0.195
0.185
0.18
0.185
0.315
0.19
0.245
0.31
0.395
0.275
0.375
0.525
0.605
0.445
0.455
0.405
0.32
0.17
0.255
0.195
0.15
0.155
0.185
0.225
0.13
0.06
0.21
0.71
2.03
4.015
4.245
1.295
-0.57
-0.455
-0.175
-0.115
0.005
-0.06
0.015
-0.01
-0.025
0.08
-0.005
-0.05
0.09
0.02
0.05
-0.07
0.065
0.005
-0.015
0.11
0.015
-0.06
-0.055
-0.07
0.05
-0.015
0.12
0.095
0.215
0.09
0.11
0.015
0.09
-0.03
-0.105
0.045
0.065
-0.03
0.015
0.03
0.135
0.1
0.08
-0.025
0.09
0.105
0.08
0.03
0.15
0.04
0.06
0.15
0.385
0.425
0.495
0.32
0.275
0.125
-0.065
-0.03
-0.08
-0.145
-0.02
-0.23
-0.095
-0.115
-0.155
-0.03
0.81
2.595
4.29
2.945
0.165
-0.88
-0.635
-0.355
-0.215
-0.295
-0.11
-0.12
-0.215
-0.225
-0.18
-0.22
-0.045
-0.145
-0.155
-0.04
-0.085
-0.185
-0.05
-0.115
-0.05
-0.105
-0.045
-0.04
0.0
-0.105
0.01
0.095
0.135
0.005
0.005
0.065
0.125
-0.035
-0.09
-0.07
0.01
-0.115
0.015
0.025
-0.035
-0.005
0.05
-0.03
0.1
0.03
0.12
0.08
0.035
0.025
0.09
0.06
0.115
0.065
0.27
0.295
0.265
0.265
0.245
0.11
0.155
-0.05
-0.045
-0.07
-0.035
-0.035
0.005
-0.03
-0.06
-0.12
0.365
1.46
3.69
4.63
2.035
-0.445
-0.555
-0.415
-0.205
-0.14
-0.125
-0.145
-0.075
-0.135
-0.125
-0.105
-0.01
-0.09
-0.015
-0.055
-0.04
-0.05
-0.02
-0.085
-0.05
-0.055
0.02
-0.045
0.015
-0.015
0.105
0.09
0.205
0.205
0.22
0.145
0.17
0.125
0.14
0.105
0.155
0.12
0.115
-0.005
0.085
0.085
0.065
0.08
0.135
0.005
0.03
0.065
0.1
0.035
0.13
0.14
0.21
0.155
0.22
0.275
0.355
0.325
0.3
0.185
0.15
0.025
0.04
-0.03
0.02
-0.02
0.015
-0.02
0.02
-0.075
0.28
1.33
3.65
5.12
2.9
-0.08
-0.5
-0.265
-0.155
-0.115
-0.065
-0.09
-0.08
-0.115
-0.055
-0.1
-0.07
-0.095
-0.08
-0.125
-0.1
-0.165
-0.15
-0.165
-0.13
-0.185
-0.135
-0.14
-0.065
-0.075
0.01
0.045
0.135
0.135
0.19
0.125
0.17
0.125
0.15
0.11
0.115
0.07
0.135
0.06
0.055
0.035
0.065
0.01
0.03
0.0
0.035
0.03
0.08
0.06
0.145
0.14
0.16
0.17
0.3
0.345
0.36
0.3
0.33
0.205
0.135
0.06
0.06
0.04
0.055
-0.005
0.045
-0.005
-0.02
0.055
0.775
2.36
4.755
4.475
1.23
-0.55
-0.315
-0.195
-0.18
-0.14
-0.115
-0.135
-0.105
-0.135
-0.105
-0.135
-0.125
-0.15
-0.115
-0.14
-0.1
-0.145
-0.15
-0.185
-0.125
-0.16
-0.13
-0.105
-0.055
-0.02
0.095
0.135
0.175
0.185
0.215
0.205
0.21
0.175
0.195
0.165
0.145
0.125
0.125
0.065
0.065
0.065
0.1
0.035
0.02
0.035
0.055
0.05
0.08
0.07
0.13
0.16
0.17
0.24
0.36
0.355
0.36
0.315
0.27
0.16
0.11
0.06
0.07
0.025
0.03
0.005
0.04
0.015
-0.035
0.095
0.9
2.665
4.83
3.985
0.75
-0.535
-0.265
-0.175
-0.14
-0.145
-0.105
-0.11
-0.1
-0.125
-0.105
-0.115
-0.12
-0.13
-0.11
-0.145
-0.135
-0.145
-0.135
-0.165
-0.145
-0.175
-0.155
-0.155
-0.095
-0.07
0.03
0.11
0.155
0.145
0.165
0.125
0.15
0.13
0.125
0.095
0.11
0.08
0.08
0.045
0.035
0.025
0.025
-0.015
0.005
-0.03
0.0
0.025
0.035
0.03
0.09
0.11
0.13
0.13
0.24
0.315
0.34
0.295
0.27
0.185
0.105
0.03
0.03
0.005
0.015
-0.015
-0.01
-0.005
0.015
-0.075
0.06
0.76
2.435
4.61
4.055
0.925
-0.395
-0.22
-0.165
-0.18
-0.155
-0.18
-0.165
-0.17
-0.16
-0.185
-0.175
-0.195
-0.195
-0.205
-0.2
-0.235
-0.225
-0.24
-0.26
-0.29
-0.265
-0.285
-0.26
-0.25
-0.17
-0.1
0.015
0.055
0.09
0.08
0.085
0.045
0.045
0.025
0.035
0.005
0.01
0.005
-0.01
-0.05
-0.035
-0.055
-0.065
-0.085
-0.06
-0.08
-0.06
-0.07
-0.03
-0.015
0.015
0.03
0.07
0.045
0.125
0.21
0.24
0.185
0.19
0.155
0.065
-0.025
-0.05
-0.075
-0.07
-0.1
-0.095
-0.105
-0.08
-0.115
-0.08
0.37
1.615
3.865
4.455
1.73
-0.31
-0.325
-0.2
-0.265
-0.24
-0.255
-0.24
-0.275
-0.265
-0.24
-0.255
-0.295
-0.265
-0.285
-0.265
-0.28
-0.285
-0.305
-0.3
-0.335
-0.36
-0.375
-0.35
-0.375
-0.32
-0.23
-0.115
-0.04
0.025
0.035
0.05
0.015
0.015
0.015
0.005
-0.015
-0.025
-0.055
-0.055
-0.07
-0.075
-0.115
-0.115
-0.125
-0.12
-0.125
-0.105
-0.085
-0.07
-0.09
-0.045
-0.03
-0.005
-0.005
0.005
0.045
0.165
0.225
0.24
0.19
0.145
0.05
-0.015
-0.075
-0.08
-0.115
-0.115
-0.13
-0.115
-0.115
-0.1
-0.19
0.065
0.89
2.715
4.39
3.015
0.375
-0.285
-0.22
-0.245
-0.255
-0.255
-0.26
-0.25
-0.275
-0.27
-0.265
-0.26
-0.29
-0.285
-0.315
-0.315
-0.33
-0.34
-0.385
-0.405
-0.45
-0.445
-0.465
-0.455
-0.455
-0.38
-0.29
-0.185
-0.115
-0.07
-0.08
-0.065
-0.065
-0.08
-0.13
-0.125
-0.13
-0.105
-0.135
-0.16
-0.19
-0.195
-0.22
-0.22
-0.24
-0.23
-0.2
-0.175
-0.165
-0.15
-0.18
-0.145
-0.145
-0.125
-0.105
-0.095
-0.11
-0.025
0.09
0.155
0.1
0.07
0.025
-0.065
-0.145
-0.135
-0.13
-0.105
-0.13
-0.135
-0.15
-0.125
-0.12
-0.12
0.24
1.21
3.055
3.845
1.775
-0.135
-0.315
-0.25
-0.305
-0.31
-0.295
-0.295
-0.305
-0.295
-0.295
-0.285
-0.32
-0.325
-0.33
-0.32
-0.34
-0.34
-0.37
-0.39
-0.415
-0.415
-0.43
-0.47
-0.485
-0.435
-0.39
-0.3
-0.205
-0.125
-0.095
-0.05
-0.06
-0.055
-0.06
-0.07
-0.095
-0.13
-0.17
-0.145
-0.14
-0.15
-0.16
-0.14
-0.145
-0.115
-0.11
-0.1
-0.09
-0.085
-0.09
-0.075
-0.07
-0.06
-0.065
-0.025
-0.01
-0.01
0.01
0.13
0.225
0.24
0.17
0.15
0.055
-0.03
-0.085
-0.08
-0.1
-0.095
-0.125
-0.105
-0.105
-0.1
-0.16
0.08
0.87
2.51
3.885
2.51
0.19
-0.335
-0.27
-0.255
-0.265
-0.235
-0.23
-0.23
-0.255
-0.24
-0.25
-0.23
-0.24
-0.23
-0.245
-0.25
-0.26
-0.275
-0.295
-0.315
-0.355
-0.38
-0.415
-0.41
-0.415
-0.35
-0.275
-0.155
-0.055
-0.005
0.035
0.06
0.04
0.025
0.005
-0.01
-0.025
-0.015
-0.03
-0.03
-0.05
-0.035
-0.035
-0.02
-0.005
0.035
0.03
0.05
0.045
0.045
0.055
0.055
0.05
0.025
-0.035
0.01
0.115
0.115
0.12
0.335
0.365
0.23
0.2
0.18
0.16
0.105
-0.005
0.015
0.01
-0.01
-0.045
-0.075
-0.065
-0.015
-0.095
0.09
0.8
2.11
3.71
2.915
0.385
-0.52
-0.36
-0.26
-0.22
-0.16
-0.095
-0.135
-0.19
-0.13
-0.13
-0.12
-0.055
-0.045
-0.125
-0.135
-0.155
-0.13
-0.095
-0.145
-0.16
-0.155
-0.165
-0.215
-0.265
-0.205
-0.135
-0.06
0.02
0.105
0.095
0.075
0.035
0.035
0.02
-0.025
-0.025
0.01
0.01
0.005
0.025
0.035
0.045
0.075
0.06
0.05
0.05
0.065
0.055
0.045
0.045
0.05
0.035
0.06
0.085
0.095
0.1
0.175
0.245
0.3
0.3
0.26
0.2
0.105
0.035
0.035
0.015
0.015
0.005
0.01
0.01
0.015
-0.035
0.02
0.59
1.915
3.835
3.76
1.175
-0.32
-0.27
-0.24
-0.215
-0.165
-0.155
-0.125
-0.125
-0.12
-0.105
-0.1
-0.12
-0.115
-0.105
-0.105
-0.11
-0.1
-0.125
-0.13
-0.145
-0.19
-0.21
-0.22
-0.24
-0.215
-0.14
-0.055
0.03
0.135
0.165
0.185
0.17
0.15
0.145
0.125
0.13
0.13
0.11
0.11
0.11
0.125
0.145
0.175
0.17
0.165
0.185
0.19
0.18
0.2
0.19
0.155
0.16
0.15
0.155
0.18
0.16
0.165
0.2
0.275
0.35
0.395
0.36
0.29
0.21
0.11
0.085
0.065
0.045
0.055
0.055
0.055
0.055
0.05
0.035
0.48
1.585
3.575
4.23
1.885
-0.1
-0.205
-0.14
-0.165
-0.12
-0.11
-0.11
-0.125
-0.135
-0.125
-0.125
-0.11
-0.1
-0.11
-0.13
-0.135
-0.135
-0.145
-0.19
-0.21
-0.21
-0.23
-0.26
-0.255
-0.235
-0.175
-0.085
0.01
0.08
0.12
0.135
0.125
0.12
0.095
0.09
0.07
0.075
0.065
0.04
0.035
0.045
0.0
0.005
0.055
0.03
0.03
0.055
0.085
0.075
0.06
0.055
0.08
0.085
0.08
0.08
0.11
0.115
0.12
0.23
0.31
0.315
0.3
0.245
0.175
0.08
0.03
0.01
-0.005
-0.005
-0.02
-0.02
-0.02
-0.035
-0.095
0.245
1.165
2.92
4.01
2.215
0.085
-0.245
-0.205
-0.235
-0.23
-0.23
-0.21
-0.21
-0.21
-0.18
-0.205
-0.225
-0.22
-0.21
-0.225
-0.22
-0.235
-0.25
-0.27
-0.27
-0.315
-0.335
-0.375
-0.385
-0.365
-0.34
-0.265
-0.16
-0.08
-0.015
0.005
-0.005
-0.04
-0.045
-0.055
-0.07
-0.095
-0.125
-0.115
-0.12
-0.12
-0.11
-0.12
-0.085
-0.05
-0.065
-0.075
-0.05
-0.06
-0.045
-0.05
-0.035
-0.03
-0.02
0.01
0.025
0.03
0.105
0.205
0.255
0.245
0.2
0.13
0.035
-0.005
-0.025
-0.035
-0.045
-0.055
-0.045
-0.04
-0.025
-0.095
0.115
0.865
2.335
3.75
2.64
0.505
-0.14
-0.235
-0.265
-0.26
-0.235
-0.24
-0.25
-0.255
-0.24
-0.24
-0.22
-0.235
-0.24
-0.23
-0.24
-0.25
-0.26
-0.28
-0.315
-0.35
-0.38
-0.41
-0.425
-0.41
-0.37
-0.325
-0.235
-0.145
-0.075
-0.04
-0.045
-0.08
-0.08
-0.075
-0.08
-0.095
-0.12
-0.12
-0.105
-0.105
-0.09
-0.08
-0.055
-0.045
-0.04
-0.04
-0.04
-0.04
-0.025
-0.03
-0.06
-0.05
-0.035
-0.03
-0.025
0.01
0.095
0.2
0.235
0.185
0.135
0.05
-0.035
-0.08
-0.095
-0.105
-0.095
-0.11
-0.105
-0.09
-0.115
-0.155
0.22
1.145
2.925
3.865
1.985
0.095
-0.145
-0.195
-0.25
-0.24
-0.24
-0.225
-0.23
-0.225
-0.225
-0.225
-0.21
-0.205
-0.205
-0.215
-0.21
-0.23
-0.245
-0.265
-0.295
-0.325
-0.34
-0.375
-0.38
-0.36
-0.315
-0.225
-0.115
-0.025
0.015
0.02
0.035
0.04
-0.02
-0.035
-0.025
-0.025
-0.04
-0.055
-0.055
-0.055
-0.05
-0.03
-0.02
-0.01
0.0
0.005
-0.005
-0.01
0.005
0.01
0.01
0.01
0.055
0.05
0.045
0.15
0.26
0.285
0.25
0.2
0.11
0.03
-0.025
-0.04
-0.035
-0.065
-0.07
-0.055
-0.07
-0.07
-0.115
0.195
1.085
2.785
3.92
2.28
0.23
-0.13
-0.135
-0.205
-0.23
-0.22
-0.205
-0.2
-0.205
-0.235
-0.22
-0.225
-0.25
-0.24
-0.245
-0.26
-0.265
-0.28
-0.3
-0.335
-0.37
-0.395
-0.4
-0.415
-0.405
-0.36
-0.255
-0.15
-0.07
-0.02
0.015
0.015
0.005
-0.005
-0.01
-0.02
-0.035
-0.04
-0.035
-0.045
-0.055
-0.035
-0.04
-0.045
-0.025
-0.01
0.0
0.01
0.01
0.01
0.005
-0.005
0.02
0.045
0.045
0.055
0.145
0.265
0.295
0.23
0.19
0.11
0.03
-0.01
-0.055
-0.04
-0.025
-0.055
-0.045
-0.045
-0.065
-0.105
0.235
1.14
2.895
3.87
2.06
0.155
-0.08
-0.105
-0.205
-0.225
-0.215
-0.21
-0.23
-0.235
-0.235
-0.235
-0.235
-0.24
-0.255
-0.25
-0.255
-0.28
-0.325
-0.34
-0.37
-0.4
-0.445
-0.47
-0.48
-0.445
-0.375
-0.29
-0.165
-0.08
-0.025
0.015
0.035
0.025
0.025
0.01
0.01
0.005
-0.025
-0.025
-0.03
-0.03
-0.03
-0.025
-0.01
-0.025
-0.025
-0.005
0.01
0.015
0.035
0.04
0.03
0.055
0.05
0.045
0.115
0.225
0.275
0.275
0.245
0.2
0.105
0.015
-0.01
-0.02
-0.05
-0.06
-0.04
-0.04
-0.025
-0.04
0.015
0.515
1.655
3.425
3.535
1.335
-0.055
-0.16
-0.19
-0.215
-0.155
-0.13
-0.03
0.045
-0.105
-0.195
-0.16
-0.21
-0.225
-0.13
-0.095
-0.175
-0.195
-0.195
-0.245
-0.08
-0.045
-0.375
-0.52
-0.51
-0.435
-0.305
-0.155
0.055
0.11
-0.005
-0.015
0.035
0.04
0.01
0.015
0.0
-0.025
-0.035
-0.05
-0.065
-0.055
-0.05
-0.045
-0.035
-0.01
0.0
0.0
-0.005
0.01
0.01
-0.005
0.01
0.05
0.045
0.05
0.13
0.235
0.26
0.225
0.165
0.085
0.015
-0.025
-0.065
-0.065
-0.095
-0.03
0.04
0.02
-0.03
-0.12
0.07
0.835
2.515
3.85
2.395
0.275
-0.165
-0.21
-0.29
-0.315
-0.265
-0.255
-0.295
-0.295
-0.265
-0.275
-0.235
-0.26
-0.315
-0.36
-0.325
-0.34
-0.355
-0.37
-0.395
-0.435
-0.47
-0.485
-0.49
-0.505
-0.46
-0.365
-0.24
-0.145
-0.075
-0.035
-0.02
-0.035
-0.04
-0.045
-0.06
-0.07
-0.08
-0.095
-0.105
-0.08
-0.09
-0.08
-0.075
-0.075
-0.05
-0.045
-0.045
-0.055
-0.055
-0.065
-0.03
-0.02
-0.025
-0.03
0.035
0.145
0.21
0.205
0.155
0.09
-0.03
-0.09
-0.11
-0.135
-0.13
-0.145
-0.13
-0.135
-0.145
-0.205
-0.08
0.52
1.79
3.49
3.11
0.835
-0.22
-0.24
-0.265
-0.32
-0.3
-0.31
-0.32
-0.31
-0.315
-0.315
-0.31
-0.315
-0.33
-0.335
-0.325
-0.35
-0.365
-0.385
-0.435
-0.45
-0.475
-0.515
-0.545
-0.535
-0.515
-0.44
-0.335
-0.21
-0.14
-0.11
-0.095
-0.085
-0.1
-0.095
-0.105
-0.145
-0.15
-0.145
-0.155
-0.155
-0.155
-0.13
-0.1
-0.105
-0.095
-0.095
-0.11
-0.095
-0.095
-0.09
-0.08
-0.065
-0.045
-0.035
0.0
0.095
0.175
0.2
0.165
0.08
-0.025
-0.095
-0.135
-0.135
-0.145
-0.145
-0.15
-0.145
-0.12
-0.185
-0.155
0.35
1.41
3.095
3.32
1.2
-0.225
-0.255
-0.27
-0.325
-0.34
-0.32
-0.315
-0.34
-0.325
-0.335
-0.325
-0.325
-0.33
-0.34
-0.345
-0.345
-0.35
-0.355
-0.41
-0.425
-0.46
-0.505
-0.5
-0.525
-0.515
-0.46
-0.325
-0.235
-0.14
-0.115
-0.075
-0.08
-0.095
-0.1
-0.1
-0.11
-0.13
-0.155
-0.145
-0.085
-0.05
-0.095
-0.105
-0.065
0.02
0.01
-0.045
-0.09
-0.07
-0.05
-0.075
-0.09
-0.055
-0.03
-0.015
0.07
0.175
0.23
0.195
0.14
0.045
-0.08
-0.11
-0.135
-0.125
-0.125
-0.125
-0.145
-0.155
-0.135
-0.215
0.005
0.755
2.29
3.67
2.48
0.385
-0.165
-0.215
-0.275
-0.325
-0.31
-0.28
-0.305
-0.31
-0.305
-0.28
-0.28
-0.33
-0.33
-0.31
-0.32
-0.31
-0.33
-0.375
-0.41
-0.45
-0.475
-0.465
-0.475
-0.455
-0.435
-0.365
-0.225
-0.135
-0.08
-0.03
-0.025
-0.02
-0.025
-0.05
-0.06
-0.06
-0.085
-0.105
-0.105
-0.09
-0.075
-0.06
-0.045
-0.04
-0.035
-0.005
0.0
-0.025
-0.015
-0.035
-0.035
0.01
0.03
0.005
0.065
0.2
0.24
0.235
0.19
0.115
0.015
-0.06
-0.095
-0.105
-0.095
-0.06
0.085
0.22
0.095
-0.185
-0.27
0.29
1.49
3.31
3.55
1.37
-0.055
-0.135
-0.295
-0.255
-0.205
-0.32
-0.27
-0.145
-0.185
-0.225
-0.21
-0.22
-0.175
-0.165
-0.255
-0.35
-0.295
-0.24
-0.325
-0.235
-0.245
-0.395
-0.285
-0.28
-0.485
-0.485
-0.36
-0.225
-0.115
-0.075
-0.07
-0.08
-0.08
-0.105
-0.125
-0.185
-0.14
-0.095
-0.1
-0.105
-0.105
-0.075
-0.055
-0.065
-0.03
0.025
0.1
0.05
0.045
-0.005
-0.03
0.015
0.06
0.08
0.08
0.17
0.385
0.475
0.12
-0.02
-0.01
0.025
0.015
0.08
-0.045
-0.07
-0.105
-0.095
-0.11
-0.075
-0.19
0.17
1.025
2.675
3.8
2.065
0.02
-0.265
-0.24
-0.31
-0.365
-0.37
-0.36
-0.33
-0.345
-0.35
-0.325
-0.33
-0.385
-0.355
-0.365
-0.435
-0.445
-0.41
-0.43
-0.425
-0.455
-0.465
-0.43
-0.465
-0.56
-0.505
-0.375
-0.26
-0.175
-0.115
-0.095
-0.09
-0.08
-0.125
-0.135
-0.115
-0.13
-0.15
-0.165
-0.175
-0.18
-0.18
-0.16
-0.165
-0.165
-0.145
-0.135
-0.12
-0.11
-0.1
-0.115
-0.085
-0.045
-0.03
-0.05
0.03
0.145
0.205
0.2
0.155
0.03
-0.065
-0.13
-0.145
-0.19
-0.19
-0.175
-0.175
-0.185
-0.195
-0.27
-0.1
0.565
1.96
3.685
3.095
0.645
-0.34
-0.305
-0.315
-0.365
-0.33
-0.37
-0.355
-0.34
-0.33
-0.345
-0.36
-0.35
-0.345
-0.355
-0.34
-0.3
-0.205
-0.195
-0.26
-0.41
-0.43
-0.435
-0.455
-0.44
-0.395
-0.32
-0.225
-0.165
-0.1
-0.08
-0.055
-0.06
-0.075
-0.08
-0.08
-0.1
-0.11
-0.135
-0.12
-0.145
-0.13
-0.15
-0.135
-0.12
-0.1
-0.105
-0.075
-0.08
-0.08
-0.075
-0.065
-0.075
-0.025
-0.015
0.005
0.075
0.22
0.26
0.255
0.195
0.105
0.01
-0.045
-0.095
-0.095
-0.105
-0.09
-0.095
-0.105
-0.13
-0.13
-0.065
0.51
1.605
3.435
3.555
1.16
-0.33
-0.265
-0.25
-0.265
-0.27
-0.255
-0.26
-0.19
-0.185
-0.225
-0.27
-0.245
-0.225
-0.205
-0.24
-0.285
-0.28
-0.255
-0.31
-0.215
-0.22
-0.32
-0.39
-0.34
-0.255
-0.185
-0.195
-0.1
-0.035
-0.055
-0.04
-0.005
-0.08
-0.065
-0.095
-0.1
-0.135
-0.195
-0.15
-0.21
-0.195
-0.165
-0.23
-0.17
-0.035
-0.045
-0.13
-0.235
-0.42
-0.225
-0.065
-0.03
0.045
0.05
-0.105
-0.05
0.06
0.175
0.17
0.09
0.01
0.01
0.005
0.065
0.035
0.015
0.255
0.125
-0.23
-0.36
-0.33
-0.37
-0.11
0.655
2.06
3.485
2.325
0.115
-0.655
-0.72
-0.63
-0.63
-0.535
-0.53
-0.445
-0.455
-0.485
-0.47
-0.395
-0.365
-0.46
-0.54
-0.5
-0.49
-0.47
-0.435
-0.265
-0.4
-0.57
-0.585
-0.61
-0.645
-0.49
-0.38
-0.355
-0.165
0.065
-0.075
-0.345
-0.355
-0.265
-0.24
-0.24
-0.24
-0.28
-0.325
-0.255
-0.085
-0.04
-0.275
-0.3
-0.29
-0.315
-0.235
-0.235
-0.125
0.085
0.005
-0.28
-0.285
-0.24
-0.24
-0.105
-0.205
-0.26
-0.09
-0.065
-0.11
0.02
0.155
0.015
-0.145
-0.025
-0.08
-0.385
-0.42
-0.37
-0.46
-0.385
-0.31
-0.39
-0.335
-0.335
-0.155
0.675
2.235
3.8
2.74
0.23
-0.485
-0.395
-0.595
-0.505
-0.505
-0.565
-0.465
-0.45
-0.6
-0.65
-0.59
-0.515
-0.385
-0.435
-0.485
-0.595
-0.755
-0.61
-0.59
-0.575
-0.605
-0.755
-0.865
-0.82
-0.72
-0.555
-0.495
-0.43
-0.365
-0.285
-0.21
-0.29
-0.41
-0.385
-0.315
-0.295
-0.37
-0.42
-0.38
-0.365
-0.35
-0.2
-0.175
-0.365
-0.32
-0.305
-0.325
-0.155
-0.26
-0.37
-0.24
-0.145
-0.315
-0.235
-0.215
-0.175
-0.24
-0.335
-0.295
-0.25
-0.095
-0.145
-0.11
0.125
0.045
-0.065
-0.18
-0.085
-0.02
-0.29
-0.335
-0.27
-0.33
-0.085
0.12
-0.165
-0.395
-0.195
0.045
0.65
2.395
4.235
2.99
0.39
-0.415
-0.485
-0.47
-0.475
-0.505
-0.435
-0.38
-0.465
-0.49
-0.51
-0.625
-0.525
-0.445
-0.27
-0.375
-0.575
-0.56
-0.665
-0.745
-0.515
-0.415
-0.6
-0.725
-0.78
-0.455
-0.54
-0.765
-0.395
-0.275
-0.34
-0.345
-0.24
-0.26
-0.21
0.0
-0.105
-0.24
-0.295
-0.475
-0.4
-0.35
-0.335
-0.365
-0.32
-0.365
-0.365
-0.315
-0.265
-0.2
-0.35
-0.34
-0.165
-0.185
-0.205
-0.18
-0.105
-0.165
-0.125
0.1
0.005
-0.25
-0.26
-0.125
0.03
0.14
0.095
0.01
-0.045
-0.135
-0.165
-0.145
-0.03
0.0
0.005
-0.055
-0.035
0.05
0.005
-0.08
-0.015
0.48
1.395
3.32
4.405
2.455
0.475
0.19
0.155
0.04
-0.015
-0.075
-0.025
-0.005
-0.09
-0.07
-0.02
-0.025
-0.01
0.01
0.015
-0.05
-0.055
-0.13
-0.215
-0.255
-0.255
-0.3
-0.325
-0.31
-0.215
-0.14
-0.12
0.02
0.17
0.23
0.27
0.295
0.295
0.315
0.295
0.29
0.23
0.155
0.175
0.19
0.225
0.225
0.205
0.165
0.24
0.285
0.3
0.315
0.305
0.28
0.32
0.4
0.39
0.325
0.285
0.33
0.41
0.42
0.45
0.46
0.425
0.44
0.485
0.445
0.465
0.55
0.73
0.77
0.72
0.61
0.505
0.415
0.375
0.4
0.445
0.44
0.415
0.355
0.31
0.335
0.375
0.485
1.115
2.385
4.31
4.15
1.535
0.195
0.24
0.165
0.11
0.2
0.195
0.14
0.175
0.13
0.195
0.27
0.335
0.435
0.39
0.235
0.23
0.18
0.17
0.195
0.27
0.365
0.335
0.37
0.15
-0.015
0.12
0.315
0.455
0.47
0.51
0.515
0.52
0.46
0.345
0.38
0.37
0.34
0.31
0.26
0.335
0.445
0.59
0.53
0.44
0.455
0.445
0.415
0.43
0.45
0.485
0.49
0.54
0.575
0.605
0.61
0.655
0.655
0.635
0.585
0.715
0.85
0.855
0.86
0.965
0.995
0.97
0.925
0.81
0.735
0.635
0.535
0.545
0.53
0.525
0.515
0.495
0.525
0.475
0.485
1.02
2.265
4.335
4.71
2.04
0.155
0.15
0.185
0.305
0.36
0.345
0.355
0.39
0.415
0.385
0.375
0.395
0.41
0.395
0.38
0.4
0.475
0.395
0.335
0.345
0.31
0.33
0.31
0.315
0.315
0.29
0.405
0.535
0.625
0.65
0.635
0.655
0.655
0.645
0.605
0.565
0.565
0.595
0.575
0.61
0.665
0.655
0.605
0.62
0.67
0.665
0.685
0.665
0.67
0.695
0.625
0.62
0.665
0.69
0.68
0.65
0.615
0.685
0.72
0.705
0.705
0.77
0.865
0.935
0.9
0.855
0.81
0.73
0.665
0.6
0.61
0.6
0.595
0.625
0.575
0.565
0.575
0.56
1.055
2.275
4.415
5.065
2.38
0.225
0.125
0.195
0.305
0.425
0.43
0.425
0.475
0.475
0.47
0.515
0.49
0.46
0.475
0.45
0.475
0.505
0.485
0.43
0.415
0.43
0.42
0.475
0.455
0.47
0.515
0.505
0.57
0.68
0.75
0.74
0.72
0.71
0.745
0.725
0.725
0.735
0.67
0.68
0.695
0.7
0.68
0.695
0.725
0.695
0.725
0.725
0.725
0.75
0.735
0.755
0.715
0.72
0.735
0.705
0.725
0.72
0.7
0.705
0.695
0.79
0.925
0.98
0.91
0.855
0.825
0.72
0.605
0.595
0.59
0.565
0.565
0.585
0.63
0.605
0.495
0.65
1.35
2.865
4.815
4.295
1.455
0.055
0.18
0.335
0.35
0.385
0.39
0.405
0.375
0.335
0.385
0.365
0.375
0.405
0.455
0.475
0.415
0.4
0.325
0.29
0.34
0.345
0.255
0.22
0.29
0.335
0.4
0.47
0.535
0.615
0.66
0.645
0.625
0.61
0.63
0.64
0.56
0.585
0.625
0.57
0.59
0.575
0.6
0.615
0.545
0.59
0.615
0.595
0.63
0.635
0.635
0.605
0.545
0.58
0.655
0.625
0.595
0.645
0.64
0.77
0.865
0.845
0.88
0.835
0.75
0.635
0.535
0.575
0.565
0.52
0.515
0.505
0.5
0.53
0.49
0.79
1.74
3.41
4.75
2.985
0.515
0.055
0.155
0.255
0.335
0.36
0.295
0.38
0.405
0.37
0.405
0.405
0.375
0.425
0.38
0.36
0.435
0.355
0.35
0.4
0.33
0.335
0.335
0.29
0.38
0.39
0.35
0.465
0.53
0.63
0.635
0.57
0.58
0.565
0.585
0.595
0.56
0.52
0.51
0.57
0.51
0.49
0.535
0.555
0.585
0.555
0.6
0.59
0.545
0.575
0.595
0.56
0.575
0.625
0.56
0.575
0.63
0.705
0.775
0.84
0.785
0.71
0.665
0.595
0.505
0.525
0.555
0.49
0.42
0.435
0.43
0.41
0.425
0.825
1.93
4.075
4.97
2.35
0.035
-0.085
0.055
0.195
0.245
0.295
0.31
0.275
0.275
0.335
0.35
0.325
0.275
0.29
0.35
0.335
0.29
0.285
0.315
0.305
0.29
0.28
0.26
0.265
0.27
0.315
0.42
0.47
0.525
0.55
0.485
0.52
0.515
0.495
0.47
0.45
0.47
0.465
0.485
0.455
0.41
0.39
0.435
0.475
0.45
0.46
0.515
0.515
0.505
0.485
0.48
0.505
0.505
0.505
0.52
0.565
0.62
0.67
0.695
0.7
0.68
0.67
0.605
0.5
0.44
0.4
0.405
0.405
0.42
0.395
0.375
0.355
0.375
0.96
2.32
4.6
4.93
1.985
-0.06
-0.04
0.115
0.13
0.175
0.21
0.2
0.185
0.185
0.185
0.19
0.185
0.2
0.21
0.17
0.16
0.145
0.12
0.115
0.11
0.085
0.08
0.08
0.085
0.13
0.21
0.295
0.37
0.39
0.405
0.42
0.41
0.425
0.42
0.395
0.4
0.4
0.385
0.365
0.345
0.37
0.37
0.335
0.34
0.33
0.275
0.255
0.305
0.36
0.33
0.29
0.325
0.36
0.37
0.39
0.465
0.59
0.64
0.615
0.585
0.52
0.44
0.37
0.3
0.27
0.26
0.275
0.285
0.285
0.29
0.215
0.425
1.35
3.18
4.855
3.345
0.56
-0.13
0.02
0.045
0.08
0.09
0.07
0.11
0.105
0.115
0.125
0.09
0.09
0.09
0.1
0.095
0.085
0.05
0.02
0.015
0.03
0.055
0.055
0.06
0.135
0.175
0.24
0.305
0.335
0.355
0.345
0.335
0.36
0.31
0.305
0.33
0.315
0.31
0.27
0.225
0.225
0.235
0.245
0.285
0.235
0.17
0.18
0.24
0.2
0.205
0.255
0.255
0.28
0.315
0.375
0.415
0.515
0.555
0.51
0.45
0.4
0.31
0.265
0.22
0.195
0.23
0.22
0.24
0.205
0.095
0.205
0.915
2.31
4.31
4.17
1.265
-0.375
-0.18
-0.055
0.005
0.015
0.035
0.08
0.12
0.105
0.06
0.07
0.08
0.06
0.045
0.14
0.065
0.01
0.055
0.08
0.145
0.08
0.05
0.105
0.145
0.185
0.23
0.305
0.335
0.33
0.35
0.335
0.295
0.28
0.265
0.25
0.255
0.21
0.215
0.19
0.17
0.195
0.195
0.18
0.165
0.185
0.185
0.165
0.185
0.225
0.22
0.245
0.27
0.275
0.345
0.4
0.46
0.535
0.465
0.435
0.395
0.24
0.155
0.155
0.165
0.215
0.22
0.19
0.16
0.105
0.215
0.89
2.29
4.435
4.44
1.46
-0.395
-0.255
-0.055
0.015
0.045
0.045
0.08
0.08
0.065
0.075
0.05
0.06
0.085
0.07
0.095
0.07
0.05
0.055
0.055
0.085
0.05
0.06
0.095
0.125
0.18
0.24
0.31
0.355
0.365
0.335
0.285
0.32
0.34
0.28
0.23
0.25
0.245
0.25
0.245
0.215
0.215
0.19
0.155
0.175
0.18
0.225
0.21
0.18
0.21
0.23
0.25
0.275
0.27
0.33
0.44
0.495
0.495
0.495
0.45
0.36
0.255
0.205
0.205
0.165
0.14
0.15
0.145
0.185
0.155
0.225
0.87
2.465
4.695
4.35
1.2
-0.4
-0.205
-0.085
-0.055
-0.005
0.005
0.005
-0.005
0.01
0.02
0.035
0.025
0.055
0.035
0.0
-0.02
-0.03
-0.05
-0.03
-0.025
-0.03
0.0
0.05
0.085
0.12
0.175
0.245
0.31
0.335
0.305
0.28
0.255
0.255
0.265
0.245
0.215
0.21
0.2
0.21
0.205
0.175
0.155
0.17
0.15
0.135
0.14
0.135
0.12
0.145
0.155
0.185
0.225
0.25
0.33
0.445
0.47
0.465
0.425
0.37
0.295
0.195
0.16
0.15
0.14
0.125
0.14
0.135
0.135
0.095
0.295
1.155
2.895
4.73
3.515
0.52
-0.41
-0.15
-0.07
-0.075
-0.025
-0.035
-0.05
-0.02
-0.015
-0.035
-0.06
-0.02
-0.015
-0.055
-0.045
-0.065
-0.065
-0.045
-0.1
-0.105
-0.065
-0.04
-0.04
0.005
0.1
0.21
0.27
0.27
0.265
0.235
0.185
0.21
0.185
0.175
0.16
0.14
0.15
0.135
0.09
0.11
0.105
0.105
0.06
0.015
0.035
0.035
0.055
0.025
-0.005
0.085
0.095
0.1
0.16
0.27
0.345
0.37
0.315
0.26
0.195
0.12
0.08
0.045
0.04
0.05
0.025
0.025
0.025
0.005
-0.005
0.475
1.63
3.765
4.67
2.06
-0.315
-0.385
-0.22
-0.18
-0.12
-0.115
-0.125
-0.11
-0.11
-0.115
-0.095
-0.07
-0.09
-0.1
-0.08
-0.075
-0.105
-0.12
-0.12
-0.08
-0.095
-0.105
-0.035
0.015
0.05
0.105
0.14
0.19
0.205
0.205
0.185
0.155
0.185
0.17
0.135
0.13
0.095
0.085
0.075
0.075
0.055
0.06
0.055
0.035
0.035
0.045
0.03
0.045
0.07
0.1
0.095
0.105
0.125
0.135
0.165
0.27
0.36
0.375
0.36
0.32
0.24
0.135
0.08
0.065
0.03
0.015
0.035
0.045
0.06
0.06
-0.025
0.19
1.155
3.145
4.915
3.285
0.24
-0.495
-0.285
-0.2
-0.14
-0.09
-0.11
-0.115
-0.11
-0.095
-0.11
-0.125
-0.115
-0.085
-0.09
-0.11
-0.155
-0.155
-0.15
-0.135
-0.125
-0.12
-0.135
-0.11
-0.035
0.03
0.08
0.15
0.17
0.23
0.225
0.165
0.115
0.105
0.105
0.155
0.13
0.095
0.06
0.07
0.055
0.055
0.08
0.055
0.03
0.03
0.01
0.04
0.055
0.045
0.035
0.065
0.09
0.115
0.15
0.195
0.26
0.355
0.395
0.375
0.315
0.255
0.15
0.075
0.05
0.025
0.015
0.06
0.065
0.06
0.07
-0.015
0.165
1.105
2.985
4.74
3.25
0.335
-0.445
-0.265
-0.165
-0.13
-0.12
-0.11
-0.09
-0.035
-0.045
-0.08
-0.105
-0.11
-0.105
-0.075
-0.07
-0.105
-0.13
-0.125
-0.08
-0.07
-0.155
-0.09
-0.065
-0.015
0.065
0.11
0.18
0.23
0.235
0.205
0.165
0.165
0.115
0.105
0.17
0.125
0.075
0.095
0.075
0.055
0.025
0.04
-0.03
-0.015
0.025
-0.01
0.015
0.045
-0.01
0.01
0.05
0.065
0.085
0.11
0.165
0.245
0.29
0.315
0.3
0.275
0.245
0.145
-0.005
0.015
0.03
-0.01
-0.03
0.005
-0.025
-0.015
-0.07
0.08
0.875
2.49
4.55
3.81
0.655
-0.66
-0.44
-0.24
-0.215
-0.205
-0.195
-0.18
-0.15
-0.095
-0.12
-0.13
-0.14
-0.165
-0.185
-0.13
-0.12
-0.17
-0.155
-0.12
-0.17
-0.165
-0.115
-0.06
-0.055
0.005
0.07
0.135
0.155
0.14
0.125
0.115
0.075
0.065
0.035
0.025
0.04
0.02
-0.005
-0.01
-0.025
-0.03
-0.065
-0.065
-0.06
-0.045
-0.025
0.015
0.05
0.015
-0.005
0.045
0.06
0.065
0.07
0.095
0.11
0.195
0.31
0.31
0.295
0.27
0.18
0.125
0.04
-0.005
0.015
-0.02
-0.03
0.015
0.025
0.02
-0.105
0.095
0.87
2.51
4.67
3.965
0.725
-0.61
-0.355
-0.205
-0.21
-0.17
-0.145
-0.12
-0.115
-0.13
-0.13
-0.13
-0.14
-0.105
-0.12
-0.125
-0.115
-0.12
-0.155
-0.155
-0.145
-0.13
-0.115
-0.09
-0.065
-0.005
0.06
0.135
0.165
0.195
0.165
0.145
0.12
0.1
0.08
0.08
0.095
0.085
0.035
0.005
0.035
0.025
-0.005
0.005
0.01
0.005
0.005
0.03
0.03
0.08
0.095
0.065
0.05
0.055
0.115
0.135
0.12
0.22
0.33
0.335
0.305
0.29
0.215
0.12
0.045
0.04
0.015
0.01
-0.005
0.02
0.005
-0.005
-0.065
0.085
0.85
2.63
4.89
4.195
0.815
-0.62
-0.365
-0.255
-0.22
-0.145
-0.13
-0.145
-0.135
-0.125
-0.145
-0.125
-0.105
-0.13
-0.12
-0.115
-0.135
-0.15
-0.185
-0.17
-0.18
-0.15
-0.115
-0.11
-0.115
-0.035
0.05
0.11
0.145
0.16
0.16
0.155
0.115
0.105
0.1
0.1
0.085
0.08
0.065
0.035
0.025
0.025
0.0
-0.02
-0.025
-0.01
0.0
0.01
0.015
0.06
0.065
0.05
0.065
0.11
0.12
0.13
0.165
0.26
0.315
0.3
0.285
0.255
0.18
0.115
0.035
-0.005
-0.005
-0.025
-0.03
-0.015
-0.015
-0.025
-0.05
0.375
1.615
4.01
5.11
2.315
-0.41
-0.53
-0.285
-0.225
-0.195
-0.18
-0.145
-0.13
-0.135
-0.15
-0.16
-0.155
-0.15
-0.13
-0.13
-0.14
-0.185
-0.185
-0.17
-0.175
-0.22
-0.2
-0.155
-0.12
-0.105
-0.055
0.045
0.115
0.145
0.155
0.105
0.115
0.095
0.07
0.065
0.055
0.03
0.02
0.02
-0.005
-0.015
0.01
-0.03
-0.05
-0.055
-0.045
-0.045
-0.02
0.005
-0.005
-0.005
0.015
0.015
0.055
0.095
0.09
0.13
0.23
0.265
0.25
0.24
0.21
0.08
0.02
-0.025
-0.065
-0.08
-0.05
-0.075
-0.07
-0.06
-0.105
-0.075
0.48
1.89
4.295
4.61
1.485
-0.695
-0.56
-0.365
-0.285
-0.235
-0.205
-0.205
-0.23
-0.22
-0.195
-0.2
-0.2
-0.205
-0.2
-0.195
-0.19
-0.215
-0.22
-0.22
-0.24
-0.265
-0.21
-0.21
-0.21
-0.16
-0.09
-0.015
0.065
0.1
0.125
0.085
0.08
0.065
0.035
0.02
0.025
0.015
0.005
-0.025
-0.04
-0.065
-0.045
-0.055
-0.06
-0.06
-0.06
-0.06
-0.035
-0.035
-0.025
-0.015
-0.01
-0.005
0.015
0.02
0.04
0.04
0.13
0.215
0.235
0.225
0.205
0.12
0.035
-0.02
-0.035
-0.09
-0.08
-0.09
-0.085
-0.08
-0.09
-0.135
-0.005
0.7
2.32
4.505
4.03
0.775
-0.77
-0.525
-0.35
-0.305
-0.25
-0.225
-0.21
-0.225
-0.21
-0.21
-0.22
-0.22
-0.205
-0.21
-0.2
-0.205
-0.23
-0.235
-0.23
-0.24
-0.215
-0.235
-0.245
-0.245
-0.195
-0.12
-0.045
0.03
0.075
0.08
0.065
0.03
0.02
0.015
-0.01
-0.025
-0.025
-0.04
-0.045
-0.06
-0.07
-0.07
-0.075
-0.095
-0.08
-0.07
-0.06
-0.035
-0.03
-0.045
-0.03
-0.035
-0.03
-0.025
0.015
0.03
0.025
0.08
0.17
0.225
0.21
0.185
0.15
0.055
-0.005
-0.085
-0.105
-0.1
-0.09
-0.1
-0.115
-0.095
-0.115
-0.125
0.35
1.605
3.845
4.525
1.735
-0.615
-0.615
-0.395
-0.31
-0.25
-0.235
-0.215
-0.19
-0.205
-0.215
-0.21
-0.2
-0.195
-0.185
-0.195
-0.21
-0.205
-0.195
-0.23
-0.235
-0.24
-0.255
-0.275
-0.255
-0.24
-0.175
-0.095
-0.03
0.025
0.08
0.08
0.085
0.055
0.04
0.03
0.005
-0.01
0.0
-0.005
-0.04
-0.05
-0.045
-0.06
-0.03
-0.025
-0.03
-0.03
-0.015
-0.015
-0.01
-0.015
-0.005
-0.02
-0.005
0.015
