signal
0.275
0.275
0.28
0.3
0.345
0.295
0.205
0.295
0.295
0.2
0.115
0.21
0.26
0.315
0.33
0.23
0.215
0.38
0.39
0.4
0.435
0.515
0.51
0.6
0.51
0.45
0.33
0.24
0.17
0.2
0.255
0.335
0.305
0.305
0.255
0.345
0.605
1.345
2.74
3.39
1.645
-0.075
-0.255
0.035
0.175
0.33
0.33
0.325
0.185
0.235
0.33
0.28
0.305
0.31
0.275
0.43
0.355
0.4
0.395
0.38
0.385
0.48
0.555
0.525
0.49
0.71
0.705
0.725
0.665
0.615
0.57
0.58
0.485
0.595
0.49
0.415
0.46
0.54
0.47
0.435
0.445
0.415
0.375
0.505
0.43
0.505
0.53
0.55
0.53
0.475
0.575
0.7
0.635
0.71
0.815
0.745
0.715
0.65
0.455
0.4
0.495
0.42
0.405
0.675
0.495
0.44
0.425
0.735
1.47
2.835
3.6
2.025
0.13
-0.025
0.205
0.435
0.415
0.455
0.595
0.56
0.575
0.51
0.585
0.74
0.645
0.665
0.655
0.61
0.6
0.705
0.53
0.695
0.735
0.635
0.675
0.77
0.685
0.815
0.79
0.595
0.51
0.61
0.545
0.455
0.41
0.475
0.41
0.32
0.285
0.44
0.33
0.4
0.495
0.475
0.3
0.325
0.305
0.265
0.39
0.51
0.485
0.45
0.565
0.745
0.56
0.49
0.515
0.395
0.235
0.285
0.245
0.265
0.225
0.315
0.175
0.135
0.205
0.51
1.24
2.63
3.055
1.275
-0.35
-0.305
-0.045
0.135
0.095
0.015
0.165
0.195
0.09
0.13
0.085
0.215
0.275
0.055
0.015
0.155
0.265
0.31
0.17
0.175
0.175
0.275
0.26
0.385
0.28
0.26
0.405
0.295
0.31
0.275
0.115
0.205
0.1
0.095
0.17
0.135
0.15
0.205
0.095
0.165
0.165
0.15
0.295
0.215
0.165
0.24
0.16
0.22
0.305
0.31
0.32
0.455
0.435
0.485
0.355
0.28
0.215
0.125
0.03
0.1
0.075
0.05
0.11
0.24
0.03
0.085
0.895
2.045
2.93
2.13
0.105
-0.485
-0.24
-0.045
-0.055
0.01
-0.01
-0.02
0.01
0.015
0.035
0.05
0.03
0.12
0.01
-0.005
-0.045
-0.095
-0.055
0.0
0.01
-0.02
0.055
0.165
0.15
0.135
0.065
0.155
0.22
0.2
0.07
0.045
0.01
-0.08
-0.14
-0.045
-0.09
-0.075
-0.04
-0.055
-0.155
-0.125
-0.135
-0.105
-0.1
-0.08
-0.08
0.015
0.035
0.065
0.015
0.095
0.12
0.085
0.01
-0.11
-0.19
-0.155
-0.26
-0.3
-0.285
-0.195
-0.225
-0.26
-0.345
-0.085
0.655
2.065
2.855
1.37
-0.55
-0.785
-0.49
-0.395
-0.42
-0.41
-0.39
-0.33
-0.34
-0.355
-0.425
-0.39
-0.385
-0.355
-0.395
-0.365
-0.365
-0.41
-0.405
-0.325
-0.335
-0.34
-0.355
-0.275
-0.245
-0.205
-0.155
-0.105
-0.175
-0.185
-0.215
-0.245
-0.3
-0.28
-0.29
-0.265
-0.275
-0.325
-0.38
-0.33
-0.365
-0.365
-0.405
-0.41
-0.4
-0.325
-0.31
-0.235
-0.245
-0.2
-0.145
-0.115
-0.125
-0.105
-0.145
-0.225
-0.4
-0.455
-0.47
-0.415
-0.4
-0.42
-0.465
-0.45
-0.485
-0.18
0.54
2.015
2.775
1.125
-0.815
-0.98
-0.635
-0.475
-0.5
-0.545
-0.55
-0.485
-0.48
-0.48
-0.48
-0.47
-0.525
-0.52
-0.505
-0.445
-0.455
-0.495
-0.505
-0.445
-0.465
-0.425
-0.375
-0.345
-0.325
-0.27
-0.285
-0.255
-0.27
-0.265
-0.275
-0.31
-0.345
-0.305
-0.37
-0.385
-0.4
-0.395
-0.425
-0.44
-0.445
-0.43
-0.47
-0.42
-0.43
-0.385
-0.375
-0.395
-0.36
-0.315
-0.24
-0.165
-0.14
-0.15
-0.205
-0.235
-0.315
-0.4
-0.455
-0.43
-0.475
-0.465
-0.435
-0.4
-0.445
-0.51
-0.355
0.19
1.19
2.54
2.01
-0.145
-1.085
-0.8
-0.59
-0.54
-0.505
-0.5
-0.485
-0.495
-0.505
-0.445
-0.455
-0.505
-0.525
-0.475
-0.495
-0.45
-0.44
-0.455
-0.45
-0.425
-0.415
-0.385
-0.37
-0.335
-0.315
-0.235
-0.195
-0.2
-0.205
-0.225
-0.27
-0.28
-0.285
-0.29
-0.305
-0.32
-0.34
-0.345
-0.395
-0.39
-0.375
-0.38
-0.37
-0.345
-0.375
-0.33
-0.295
-0.28
-0.27
-0.19
-0.11
-0.06
-0.085
-0.1
-0.165
-0.26
-0.33
-0.35
-0.39
-0.4
-0.415
-0.395
-0.365
-0.34
-0.39
-0.315
0.095
0.96
2.345
2.24
0.17
-1.035
-0.835
-0.55
-0.505
-0.44
-0.425
-0.43
-0.435
-0.4
-0.425
-0.455
-0.44
-0.425
-0.425
-0.425
-0.41
-0.39
-0.395
-0.36
-0.37
-0.385
-0.335
-0.315
-0.325
-0.265
-0.235
-0.23
-0.225
-0.19
-0.195
-0.225
-0.235
-0.24
-0.275
-0.26
-0.275
-0.345
-0.365
-0.355
-0.365
-0.345
-0.36
-0.37
-0.35
-0.325
-0.33
-0.33
-0.285
-0.21
-0.195
-0.17
-0.09
-0.015
-0.01
-0.065
-0.155
-0.215
-0.295
-0.335
-0.32
-0.34
-0.365
-0.33
-0.325
-0.36
-0.38
-0.37
-0.08
0.57
1.795
2.535
1.075
-0.665
-0.895
-0.63
-0.5
-0.455
-0.42
-0.42
-0.435
-0.435
-0.435
-0.435
-0.43
-0.405
-0.405
-0.405
-0.395
-0.365
-0.38
-0.435
-0.43
-0.39
-0.365
-0.355
-0.345
-0.315
-0.28
-0.235
-0.225
-0.23
-0.245
-0.25
-0.245
-0.27
-0.28
-0.295
-0.33
-0.345
-0.33
-0.345
-0.38
-0.35
-0.355
-0.375
-0.365
-0.345
-0.325
-0.325
-0.335
-0.315
-0.24
-0.185
-0.22
-0.205
-0.105
-0.045
-0.015
-0.05
-0.17
-0.26
-0.31
-0.32
-0.31
-0.34
-0.365
-0.365
-0.37
-0.37
-0.365
-0.39
-0.135
0.515
1.75
2.51
1.11
-0.655
-0.915
-0.625
-0.515
-0.515
-0.47
-0.435
-0.44
-0.435
-0.425
-0.4
-0.425
-0.445
-0.42
-0.41
-0.39
-0.4
-0.41
-0.39
-0.385
-0.39
-0.375
-0.365
-0.36
-0.355
-0.31
-0.25
-0.205
-0.22
-0.24
-0.235
-0.24
-0.275
-0.29
-0.3
-0.31
-0.335
-0.345
-0.325
-0.325
-0.37
-0.375
-0.365
-0.345
-0.325
-0.31
-0.305
-0.305
-0.295
-0.28
-0.28
-0.24
-0.23
-0.22
-0.125
-0.015
-0.01
-0.045
-0.11
-0.185
-0.27
-0.31
-0.365
-0.385
-0.355
-0.33
-0.35
-0.37
-0.36
-0.38
-0.3
0.13
0.975
2.25
2.08
0.17
-0.935
-0.755
-0.535
-0.51
-0.475
-0.45
-0.44
-0.41
-0.4
-0.425
-0.405
-0.415
-0.425
-0.405
-0.42
-0.41
-0.41
-0.395
-0.39
-0.39
-0.395
-0.4
-0.37
-0.345
-0.35
-0.325
-0.265
-0.205
-0.185
-0.17
-0.19
-0.195
-0.215
-0.235
-0.27
-0.315
-0.33
-0.315
-0.335
-0.35
-0.33
-0.305
-0.315
-0.32
-0.31
-0.275
-0.255
-0.255
-0.265
-0.275
-0.27
-0.215
-0.17
-0.17
-0.125
-0.03
0.01
-0.005
-0.07
-0.16
-0.22
-0.255
-0.3
-0.31
-0.335
-0.325
-0.335
-0.325
-0.32
-0.325
-0.36
-0.125
0.475
1.59
2.425
1.255
-0.485
-0.84
-0.61
-0.465
-0.46
-0.46
-0.45
-0.43
-0.415
-0.435
-0.42
-0.385
-0.385
-0.36
-0.35
-0.345
-0.365
-0.365
-0.385
-0.385
-0.39
-0.375
-0.38
-0.385
-0.375
-0.33
-0.29
-0.25
-0.235
-0.22
-0.215
-0.215
-0.235
-0.255
-0.27
-0.285
-0.305
-0.31
-0.345
-0.36
-0.35
-0.33
-0.325
-0.31
-0.3
-0.29
-0.305
-0.285
-0.275
-0.25
-0.26
-0.27
-0.24
-0.175
-0.17
-0.165
-0.08
0.01
0.025
-0.025
-0.09
-0.18
-0.25
-0.28
-0.29
-0.3
-0.325
-0.325
-0.345
-0.33
-0.3
-0.32
-0.24
0.17
0.955
2.215
2.205
0.335
-0.86
-0.7
-0.475
-0.475
-0.45
-0.41
-0.385
-0.365
-0.39
-0.4
-0.395
-0.365
-0.35
-0.36
-0.35
-0.355
-0.385
-0.38
-0.375
-0.37
-0.36
-0.35
-0.345
-0.315
-0.33
-0.3
-0.235
-0.205
-0.19
-0.18
-0.195
-0.195
-0.215
-0.225
-0.24
-0.235
-0.24
-0.295
-0.31
-0.295
-0.3
-0.275
-0.27
-0.265
-0.24
-0.225
-0.21
-0.21
-0.205
-0.2
-0.21
-0.2
-0.17
-0.175
-0.165
-0.145
-0.135
-0.015
0.095
0.105
0.06
-0.01
-0.085
-0.145
-0.195
-0.235
-0.25
-0.27
-0.265
-0.24
-0.255
-0.24
-0.28
-0.205
0.225
1.065
2.295
2.195
0.36
-0.75
-0.615
-0.405
-0.385
-0.335
-0.325
-0.33
-0.315
-0.305
-0.315
-0.305
-0.31
-0.305
-0.3
-0.285
-0.29
-0.27
-0.265
-0.275
-0.295
-0.295
-0.285
-0.28
-0.265
-0.23
-0.215
-0.16
-0.11
-0.1
-0.095
-0.09
-0.115
-0.125
-0.135
-0.15
-0.165
-0.17
-0.195
-0.195
-0.205
-0.215
-0.21
-0.175
-0.165
-0.155
-0.15
-0.145
-0.155
-0.145
-0.135
-0.125
-0.13
-0.13
-0.14
-0.075
-0.035
-0.05
-0.005
0.105
0.15
0.135
0.085
0.015
-0.07
-0.125
-0.165
-0.15
-0.15
-0.17
-0.19
-0.185
-0.175
-0.175
-0.205
0.035
0.66
1.84
2.545
1.25
-0.395
-0.655
-0.44
-0.34
-0.315
-0.3
-0.305
-0.285
-0.255
-0.25
-0.285
-0.29
-0.285
-0.265
-0.27
-0.255
-0.255
-0.27
-0.28
-0.28
-0.29
-0.26
-0.255
-0.245
-0.23
-0.195
-0.155
-0.115
-0.085
-0.08
-0.085
-0.08
-0.1
-0.105
-0.12
-0.135
-0.14
-0.15
-0.155
-0.16
-0.195
-0.175
-0.16
-0.165
-0.145
-0.125
-0.13
-0.105
-0.105
-0.11
-0.115
-0.11
-0.115
-0.105
-0.11
-0.06
-0.03
-0.03
0.035
0.125
0.165
0.155
0.105
0.02
-0.055
-0.1
-0.14
-0.165
-0.185
-0.175
-0.175
-0.17
-0.17
-0.165
-0.165
0.095
0.705
1.91
2.54
1.145
-0.425
-0.59
-0.375
-0.31
-0.305
-0.265
-0.24
-0.235
-0.235
-0.235
-0.25
-0.24
-0.245
-0.24
-0.235
-0.23
-0.24
-0.23
-0.23
-0.23
-0.24
-0.245
-0.25
-0.23
-0.22
-0.18
-0.125
-0.08
-0.07
-0.075
-0.065
-0.05
-0.065
-0.07
-0.08
-0.105
-0.115
-0.115
-0.15
-0.14
-0.125
-0.125
-0.135
-0.115
-0.095
-0.095
-0.11
-0.095
-0.095
-0.08
-0.085
-0.065
-0.065
-0.045
-0.015
0.02
0.015
0.07
0.165
0.215
0.215
0.165
0.075
-0.025
-0.09
-0.095
-0.105
-0.115
-0.13
-0.13
-0.13
-0.115
-0.145
-0.15
0.14
0.8
2.025
2.51
0.995
-0.455
-0.535
-0.305
-0.255
-0.235
-0.22
-0.205
-0.205
-0.215
-0.225
-0.225
-0.225
-0.205
-0.195
-0.19
-0.2
-0.2
-0.19
-0.195
-0.205
-0.205
-0.21
-0.225
-0.225
-0.205
-0.175
-0.12
-0.065
-0.035
-0.035
-0.04
-0.055
-0.07
-0.09
-0.105
-0.13
-0.13
-0.145
-0.15
-0.16
-0.155
-0.15
-0.135
-0.125
-0.115
-0.12
-0.125
-0.115
-0.12
-0.135
-0.125
-0.125
-0.115
-0.065
-0.03
-0.03
0.035
0.13
0.16
0.14
0.075
-0.025
-0.115
-0.16
-0.18
-0.175
-0.17
-0.21
-0.22
-0.2
-0.195
-0.24
-0.19
0.195
0.955
2.16
2.205
0.47
-0.665
-0.555
-0.365
-0.365
-0.335
-0.31
-0.285
-0.305
-0.305
-0.3
-0.3
-0.295
-0.28
-0.305
-0.315
-0.3
-0.305
-0.31
-0.32
-0.315
-0.315
-0.315
-0.32
-0.33
-0.285
-0.265
-0.23
-0.175
-0.125
-0.135
-0.115
-0.12
-0.13
-0.165
-0.205
-0.25
-0.255
-0.26
-0.255
-0.24
-0.24
-0.215
-0.17
-0.145
5.615
10.235
10.235
10.235
10.235
10.235
-6.945
-10.24
-10.24
-10.24
-10.24
-10.24
-10.24
-10.24
-10.24
-10.24
-10.24
-10.24
-10.24
-10.24
-10.24
-10.24
-8.86
-5.805
2.225
-0.19
0.655
-1.595
0.01
1.075
-0.215
3.735
4.515
-1.72
0.405
-0.385
0.13
0.16
0.09
-0.055
-0.145
0.025
0.03
0.095
0.255
0.095
-0.11
-0.27
0.04
0.255
0.02
-0.05
0.15
0.225
0.165
-0.15
-0.24
0.04
-0.02
0.205
0.12
0.085
0.37
0.21
0.19
-0.035
-0.175
0.01
-0.02
0.105
0.355
0.175
0.16
0.225
0.035
0.01
0.215
0.135
0.155
0.24
0.135
0.21
0.245
0.1
-0.035
0.015
0.24
0.35
0.41
0.39
0.245
0.2
0.245
0.18
0.175
0.24
0.39
0.51
0.54
0.515
0.495
0.58
1.125
2.115
2.895
2.09
0.735
0.165
0.035
0.055
0.445
10.235
0.145
-8.055
2.485
-0.85
0.075
-0.305
-0.305
-0.335
-0.375
-0.455
-0.45
-0.47
-0.485
-0.48
-0.455
-0.535
-0.55
-0.5
-0.595
-0.635
-0.545
-0.49
-0.405
-0.345
-0.28
-0.275
-0.295
-0.3
-0.205
-0.275
-0.315
-0.3
-0.305
-0.28
-0.355
-0.43
-0.32
-0.21
-0.05
-0.125
-0.28
-0.22
0.07
0.355
0.045
-0.415
-0.365
-0.2
-0.015
0.255
0.425
0.115
-0.055
0.09
-0.19
-0.465
-0.415
-0.455
-0.375
-0.265
-0.24
-0.215
-0.29
-0.23
0.175
0.57
1.545
2.21
1.025
-0.385
-0.625
-0.535
-0.59
-0.56
-0.56
-0.75
-0.74
-0.84
-0.555
-0.625
-0.995
-0.875
-0.875
-0.995
-0.975
-0.945
-0.98
-0.925
-1.095
-1.425
-1.295
-1.275
-1.345
-1.37
-1.315
-1.22
-1.245
-1.24
-1.14
-1.01
-1.01
-1.185
-1.12
-1.005
-1.2
-1.36
-1.305
-1.325
-1.24
-1.33
-1.485
-1.455
-1.635
-1.69
-1.465
-1.405
-1.56
-1.575
-1.225
-1.41
-1.87
-1.92
-1.775
-1.655
-1.665
-1.715
-1.905
-1.665
-1.57
-1.81
-2.155
-2.455
-2.355
-2.26
-2.285
-2.355
-2.38
-2.46
-2.285
-1.885
-0.93
0.075
-0.445
-1.74
-2.365
-2.54
-2.555
-2.715
-2.78
-2.695
-2.7
-2.72
-2.735
-2.7
-2.79
-2.83
-2.71
-2.8
-2.955
-2.945
-2.915
-3.015
-3.01
-3.05
-3.135
-3.2
-3.16
-3.17
-3.135
-3.015
-2.755
-2.81
-2.955
-2.875
-2.855
-2.825
-2.815
-2.875
-2.88
-2.865
-2.875
-2.875
-2.86
-2.88
-2.85
-2.86
-2.87
-2.91
-2.91
-2.935
-2.925
-2.865
-2.87
-2.835
-2.76
-2.76
-2.66
-2.615
-2.625
-2.64
-2.7
-2.8
-2.835
-2.86
-2.895
-2.96
-2.87
-2.875
-2.885
-2.875
-2.845
-2.91
-2.91
-2.705
-2.32
-1.34
-0.465
-1.2
-2.535
-2.87
-2.9
-3.025
-3.04
-2.975
-2.99
-2.98
-2.96
-2.94
-2.85
-2.995
-3.065
-2.99
-2.97
-3.025
-3.025
-3.06
-3.055
-3.01
-2.96
-3.045
-3.215
-3.24
-3.23
-3.19
-3.0
-2.975
-2.855
-2.755
-2.725
-2.71
-2.715
-2.735
-2.72
-2.7
-2.67
-2.725
-2.71
-2.72
-2.695
-2.675
-2.64
-2.52
-2.62
-2.685
-2.615
-2.71
-2.595
-2.63
-2.55
-2.495
-2.52
-2.49
-2.385
-2.265
-2.26
-2.275
-2.31
-2.385
-2.38
-2.43
-2.46
-2.43
-2.43
-2.465
-2.355
-2.395
-2.475
-2.475
-2.43
-2.145
-1.58
-0.495
-0.075
-1.3
-2.295
-2.44
-2.375
-2.345
-2.445
-2.515
-2.415
-2.375
-2.38
-2.42
-2.42
-2.42
-2.41
-2.415
-2.37
-2.405
-2.44
-2.43
-2.46
-2.485
-2.48
-2.5
-2.48
-2.58
-2.605
-2.495
-2.265
-2.26
-2.23
-2.18
-2.14
-2.025
-2.04
-2.17
-2.14
-2.085
-2.11
-2.13
-2.095
-2.105
-2.12
-2.1
-2.055
-2.12
-2.085
-2.035
-2.01
-2.045
-2.07
-2.03
-1.87
-1.9
-1.945
-1.89
-1.855
-1.695
-1.6
-1.71
-1.685
-1.765
-1.855
-1.83
-1.855
-1.88
-1.85
-1.855
-1.865
-1.88
-1.815
-1.845
-1.865
-1.625
-1.24
-0.425
0.44
-0.145
-1.275
-1.735
-1.76
-1.74
-1.755
-1.87
-1.875
-1.84
-1.79
-1.755
-1.715
-1.645
-1.72
-1.88
-1.805
-1.745
-1.735
-1.805
-1.865
-1.85
-1.835
-1.89
-1.855
-1.905
-1.935
-1.865
-1.73
-1.58
-1.385
-1.52
-1.6
-1.415
-1.38
-1.455
-1.355
-1.395
-1.41
-1.38
-1.36
-1.335
-1.31
-1.36
-1.325
-1.275
-1.24
-1.16
-1.27
-1.385
-1.27
-1.3
-1.285
-1.245
-1.2
-1.225
-1.185
-1.115
-1.0
-0.935
-0.925
-1.075
-1.085
-1.165
-1.265
-1.235
-1.205
-1.235
-1.22
-1.205
-1.2
-1.16
-1.195
-1.185
-0.815
-0.235
0.85
1.005
-0.225
-1.025
-1.13
-1.145
-1.185
-1.29
-1.245
-1.195
-1.18
-1.2
-1.225
-1.25
-1.265
-1.22
-1.13
-1.2
-1.29
-1.265
-1.24
-1.315
-1.275
-1.3
-1.29
-1.265
-1.3
-1.22
-1.185
-1.295
-1.225
-1.09
-1.01
-0.975
-0.98
-0.945
-0.9
-0.995
-0.875
-0.77
-0.895
-1.01
-0.925
-0.92
-0.91
-0.795
-0.735
-0.77
-0.81
-0.865
-0.825
-0.84
-0.84
-0.815
-0.655
-0.555
-0.56
-0.53
-0.385
-0.335
-0.4
-0.475
-0.535
-0.705
-0.635
-0.635
-0.755
-0.785
-0.83
-0.855
-0.795
-0.765
-0.875
-0.755
-0.35
-0.035
0.84
1.3
0.245
-0.695
-0.785
-0.755
-0.75
-0.785
-0.67
-0.605
-0.64
-0.88
-0.965
-0.895
-0.775
-0.785
-0.795
-0.78
-0.785
-0.785
-0.765
-0.775
-0.795
-0.925
-0.96
-0.935
-0.89
-0.855
-0.825
-0.77
-0.71
-0.655
-0.585
-0.56
-0.57
-0.545
-0.51
-0.51
-0.46
-0.485
-0.44
-0.495
-0.55
-0.51
-0.445
-0.53
-0.52
-0.43
-0.415
-0.505
-0.55
-0.505
-0.37
-0.4
-0.375
-0.395
-0.365
-0.265
-0.175
-0.125
-0.195
-0.315
-0.3
-0.37
-0.425
-0.46
-0.435
-0.42
-0.45
-0.485
-0.435
-0.45
-0.48
-0.335
0.165
1.07
1.68
0.925
-0.09
-0.445
-0.415
-0.38
-0.385
-0.395
-0.385
-0.38
-0.38
-0.375
-0.28
-0.3
-0.37
-0.355
-0.345
-0.335
-0.3
-0.375
-0.35
-0.365
-0.365
-0.36
-0.345
-0.33
-0.335
-0.325
-0.225
-0.17
-0.125
-0.155
-0.175
-0.08
-0.025
-0.105
-0.09
-0.08
-0.045
-0.01
0.07
0.015
-0.055
0.025
0.055
0.06
0.12
0.08
0.08
0.085
0.105
0.13
0.19
0.26
0.225
0.21
0.385
0.405
0.455
0.445
0.285
0.215
0.285
0.25
0.18
0.215
0.295
0.245
0.315
0.3
0.195
0.325
0.785
1.56
2.605
2.255
0.825
0.13
0.105
0.13
0.12
0.13
0.14
0.175
0.25
0.295
0.315
0.27
0.26
0.315
0.335
0.22
0.24
0.33
0.275
0.24
0.28
0.295
0.23
0.145
0.225
0.295
0.33
0.39
0.38
0.385
0.475
0.46
0.47
0.515
0.52
0.485
0.635
0.565
0.41
0.47
0.535
0.53
0.55
0.55
0.53
0.535
0.59
0.575
0.57
0.585
0.655
0.655
0.645
0.735
0.825
0.83
0.83
0.815
0.775
0.67
0.65
0.645
0.655
0.635
0.635
0.605
0.59
0.6
0.595
0.72
1.19
2.01
3.105
2.745
1.035
0.215
0.265
0.445
0.45
0.43
0.54
0.665
0.7
0.53
0.545
0.58
0.56
0.585
0.545
0.525
0.635
0.695
0.6
0.5
0.535
0.515
0.48
0.44
0.49
0.605
0.85
0.91
0.76
0.725
0.795
0.82
0.785
0.76
0.835
0.83
0.84
0.885
0.88
0.795
0.805
0.845
0.86
0.835
0.83
0.89
0.985
0.95
0.9
1.0
1.1
1.09
1.15
1.25
1.255
1.19
1.19
1.11
1.02
0.92
0.91
0.95
0.915
0.88
0.89
0.84
0.82
0.91
1.235
2.005
3.225
3.135
1.51
0.56
0.655
0.745
0.745
0.765
0.775
0.81
0.81
0.77
0.755
0.705
0.73
0.755
0.74
0.745
0.755
0.68
0.68
0.69
0.73
0.695
0.635
0.735
0.74
0.665
0.77
0.78
0.805
0.88
0.9
0.88
0.88
0.905
0.945
0.945
0.88
0.88
0.89
0.865
0.88
0.895
0.925
0.9
0.93
0.9
0.875
0.91
1.04
1.07
1.04
0.985
1.065
1.19
1.23
1.16
1.185
1.01
0.85
0.945
0.905
0.88
0.88
0.86
0.885
0.95
0.895
0.815
1.34
2.075
3.105
3.035
1.465
0.445
0.545
0.765
0.73
0.65
0.74
0.725
0.705
0.775
0.765
0.92
0.82
0.56
0.715
0.82
0.82
0.81
0.77
0.695
0.77
0.75
0.78
0.845
0.8
0.735
0.815
1.025
1.135
1.065
1.075
0.905
0.855
0.84
0.865
0.92
0.825
0.85
0.99
0.93
0.765
0.79
0.845
0.785
0.765
0.675
0.775
0.995
1.235
1.05
0.685
0.745
1.025
0.815
0.75
0.935
0.87
0.77
0.705
0.88
0.895
0.615
0.475
0.61
0.895
0.635
0.31
0.45
0.645
1.2
2.05
3.12
2.81
1.225
0.73
0.655
0.65
0.485
0.25
0.325
0.435
0.5
0.405
0.34
0.615
0.505
0.4
0.505
0.125
0.095
0.35
0.165
0.27
0.345
0.35
0.1
0.07
0.355
0.455
0.51
0.69
0.44
0.48
0.58
0.32
0.315
0.32
0.545
0.455
0.31
0.39
0.29
0.25
0.33
0.305
0.48
0.38
0.14
0.24
0.205
0.16
0.165
0.14
0.19
0.21
0.21
0.24
0.27
0.37
0.4
0.415
0.24
0.1
0.22
0.275
0.355
0.175
0.02
0.345
0.145
0.215
0.09
0.165
0.745
1.275
2.705
2.73
0.88
0.03
0.02
0.285
0.26
0.135
0.24
0.26
0.095
0.19
0.3
0.31
0.35
0.39
0.205
0.36
0.245
-0.06
-0.075
0.1
0.01
-0.17
0.05
0.09
-0.125
-0.2
-0.04
0.05
-0.08
0.03
-0.025
-0.05
-0.005
-0.05
-0.06
-0.01
-0.3
-0.385
-0.265
-0.46
-0.57
-0.305
-0.375
-0.705
-0.505
-0.48
-0.7
-0.63
-0.58
-0.64
-0.675
-0.685
-0.69
-0.595
-0.625
-0.685
-0.635
-0.545
-0.54
-0.53
-0.43
-0.475
-0.62
-0.665
-0.705
-0.71
-0.72
-0.78
-0.79
-0.735
-0.775
-0.755
-0.765
-0.73
-0.325
0.21
1.365
2.005
0.685
-0.705
-0.88
-0.665
-0.695
-0.745
-0.755
-0.81
-0.81
-0.84
-0.91
-0.85
-0.8
-0.845
-0.9
-0.9
-0.87
-0.88
-0.915
-0.925
-0.93
-0.93
-0.94
-0.925
-0.8
-0.735
-0.755
-0.66
-0.63
-0.595
-0.605
-0.62
-0.71
-0.705
-0.54
-0.62
-0.725
-0.565
-0.61
-0.69
-0.7
-0.745
-0.675
-0.605
-0.625
-0.715
-0.675
-0.67
-0.725
-0.655
-0.645
-0.63
-0.555
-0.535
-0.525
-0.495
-0.445
-0.39
-0.41
-0.315
-0.255
-0.39
-0.49
-0.45
-0.46
-0.465
-0.485
-0.54
-0.49
-0.48
-0.55
-0.49
-0.535
-0.395
0.155
0.985
2.115
1.84
0.0
-0.85
-0.625
-0.43
-0.415
-0.375
-0.44
-0.425
-0.38
-0.375
-0.365
-0.305
-0.33
-0.365
-0.35
-0.345
-0.345
-0.29
-0.285
-0.255
-0.265
-0.275
-0.285
-0.225
-0.13
-0.055
-0.03
-0.02
-0.05
-0.035
-0.035
-0.065
-0.09
-0.09
-0.07
-0.07
-0.115
-0.145
-0.11
-0.045
-0.08
-0.08
-0.025
-0.05
-0.075
-0.005
-0.02
-0.03
-0.015
0.01
0.04
0.13
0.12
0.095
0.12
0.165
0.25
0.335
0.275
0.25
0.25
0.285
0.2
0.12
0.095
0.1
0.09
0.135
0.13
0.08
0.105
0.105
0.325
0.985
2.085
2.755
1.525
-0.06
-0.355
0.015
0.16
-0.01
-0.015
0.075
0.09
0.1
0.145
0.18
0.135
0.065
0.12
0.175
0.135
0.145
0.135
0.2
0.22
0.21
0.16
0.215
0.29
0.335
0.345
0.415
0.47
0.475
0.385
0.395
0.405
0.385
0.35
0.37
0.39
0.445
0.43
0.325
0.315
0.355
0.4
0.425
0.37
0.405
0.4
0.425
0.43
0.4
0.415
0.455
0.485
0.52
0.56
0.595
10.235
-5.03
-9.77
1.405
-3.09
3.015
0.955
0.785
0.275
0.435
0.225
0.4
0.365
0.185
-0.63
0.265
0.775
1.225
2.065
3.19
2.505
0.695
-0.2
-3.345
-2.02
1.055
-0.025
0.455
0.24
0.15
0.245
0.435
0.265
0.275
0.425
0.39
0.27
0.295
0.325
0.31
0.36
0.42
0.37
0.745
0.615
0.515
0.625
0.635
0.67
0.775
0.72
0.705
0.73
0.685
0.685
0.68
0.74
0.74
0.615
0.645
0.63
0.645
0.635
0.63
0.61
0.585
0.61
0.78
0.675
0.495
0.59
0.71
0.725
0.73
0.695
0.805
0.93
0.91
0.935
0.91
0.795
0.79
0.77
0.715
0.66
0.675
0.805
0.81
0.72
0.595
0.555
0.735
1.1
1.79
2.995
3.215
1.535
0.265
0.315
0.595
0.54
0.53
0.615
0.61
0.56
0.59
0.57
0.645
0.625
0.585
0.63
0.62
0.63
0.635
0.565
0.615
0.605
0.655
0.745
0.735
0.72
0.775
0.905
0.88
0.805
0.815
0.84
0.89
0.825
0.785
0.775
0.745
0.705
0.775
0.775
0.675
0.68
0.775
0.79
0.7
0.63
0.67
0.745
0.725
0.7
0.79
0.805
0.75
0.795
0.855
0.825
0.925
0.965
0.955
0.98
0.97
0.885
0.785
0.66
0.665
0.75
0.695
0.685
0.745
0.71
0.635
0.745
1.2
2.07
3.295
3.015
1.15
0.175
0.38
0.57
0.525
0.575
0.575
0.635
0.645
0.595
0.625
0.62
0.635
0.59
0.6
0.645
0.595
0.655
0.73
0.575
0.55
0.66
0.7
0.635
0.725
0.78
0.86
0.825
0.785
0.825
0.785
0.795
0.82
0.74
0.69
0.705
0.725
0.745
0.7
0.68
0.675
0.65
0.65
0.65
0.705
0.725
0.725
0.73
0.725
0.7
0.75
0.81
0.83
0.79
0.88
0.945
0.95
0.905
0.925
0.86
0.79
0.825
0.77
0.665
0.675
0.7
0.7
0.675
0.695
0.68
0.915
1.475
2.6
3.49
2.39
0.535
0.105
0.39
0.535
0.55
0.52
0.515
0.575
0.57
0.555
0.475
0.53
0.625
0.56
0.41
0.485
0.52
0.515
0.52
0.495
0.445
0.55
0.505
0.415
0.45
0.455
0.47
0.62
0.71
0.675
0.71
1.015
1.075
1.075
1.205
1.2
1.135
1.17
1.21
1.17
1.065
1.165
1.24
1.175
1.15
1.345
1.41
1.485
1.645
1.7
1.82
1.745
1.53
1.5
1.425
1.23
1.165
1.115
1.085
1.025
0.855
0.84
0.775
2.235
1.64
1.015
1.015
1.005
1.25
1.83
2.47
3.575
3.87
2.26
0.705
0.635
0.91
1.07
1.055
1.01
0.94
0.945
0.98
0.91
0.81
0.79
0.735
0.75
0.855
0.845
0.76
0.83
0.915
0.89
0.795
0.73
0.675
0.73
0.845
0.825
0.76
0.86
0.9
0.865
0.8
0.775
0.775
0.74
0.645
0.68
0.665
0.62
0.605
0.565
0.595
0.645
0.575
0.575
0.615
0.685
0.675
0.59
0.6
0.7
0.645
0.555
0.56
0.75
0.74
0.575
0.455
0.495
0.565
0.62
0.56
0.53
0.525
0.515
0.4
0.45
0.52
0.575
0.88
1.515
2.65
3.19
1.77
0.2
0.08
0.335
0.4
0.505
0.495
0.465
0.48
0.49
0.455
0.45
0.42
0.425
0.44
0.46
0.405
0.46
0.495
0.47
0.47
0.5
0.485
0.53
0.575
0.605
0.625
0.7
0.71
0.72
0.705
0.615
0.56
0.6
0.575
0.57
0.535
0.535
0.495
0.495
0.545
0.565
0.44
0.435
0.4
0.38
0.4
0.42
0.425
0.475
0.495
0.475
0.49
0.59
0.625
0.625
0.585
0.56
0.455
0.39
0.32
0.33
0.325
0.335
0.315
0.345
0.335
0.295
0.355
0.825
1.71
3.01
2.73
0.68
-0.395
-0.15
0.09
0.14
0.195
0.225
0.19
0.225
0.245
0.24
0.205
0.215
0.225
0.255
0.24
0.23
0.22
0.245
0.225
0.265
0.275
0.295
0.315
0.35
0.36
0.41
0.4
0.405
0.37
0.355
0.32
0.31
0.285
0.31
0.295
0.25
0.225
0.24
0.215
0.21
0.19
0.23
0.235
0.19
0.15
0.195
0.205
0.24
0.25
0.29
0.315
0.405
0.43
0.425
0.39
0.37
0.29
0.195
0.145
0.135
0.11
0.13
0.11
0.135
0.125
0.125
0.15
0.49
1.215
2.56
2.84
0.985
-0.51
-0.375
-0.095
-0.025
0.04
0.09
0.075
0.1
0.11
0.1
0.115
0.12
0.065
0.08
0.08
0.105
0.105
0.115
0.105
0.125
0.145
0.205
0.205
0.25
0.305
0.325
0.315
0.345
0.365
0.405
0.335
0.32
0.32
0.32
0.32
0.295
0.255
0.26
0.24
0.255
0.25
0.28
0.25
0.29
0.27
0.22
0.245
0.345
0.375
0.42
0.465
0.545
0.63
0.595
0.45
0.375
0.3
0.32
0.3
0.275
0.26
0.265
0.265
0.285
0.27
0.265
0.535
1.145
2.29
3.1
1.715
-0.035
-0.295
0.055
0.185
0.175
0.185
0.215
0.245
0.265
0.245
0.245
0.23
0.235
0.24
0.27
0.265
0.275
0.29
0.275
0.275
0.325
0.33
0.355
0.355
0.41
0.45
0.475
0.445
0.45
0.46
0.435
0.38
0.4
0.345
0.295
0.285
0.315
0.3
0.295
0.275
0.275
0.255
0.265
0.26
0.295
0.31
0.315
0.34
0.405
0.385
0.415
0.465
0.53
0.525
0.485
0.44
0.4
0.315
0.295
0.275
0.255
0.2
0.225
0.215
0.205
0.195
0.25
0.57
1.315
2.655
2.99
1.175
-0.29
-0.265
-0.005
0.045
0.09
0.11
0.11
0.11
0.15
0.13
0.125
0.12
0.13
0.13
0.14
0.095
0.115
0.125
0.15
0.15
0.165
0.185
0.205
0.195
0.215
0.235
0.28
0.285
0.27
0.245
0.24
0.21
0.21
0.195
0.155
0.135
0.155
0.14
0.125
0.105
0.105
0.085
0.095
0.1
0.12
0.125
0.15
0.165
0.215
0.215
0.275
0.35
0.375
0.355
0.325
0.255
0.195
0.125
0.11
0.065
0.065
0.09
0.09
0.06
0.09
0.075
0.105
0.465
1.31
2.635
2.71
0.79
-0.555
-0.46
-0.17
-0.095
-0.035
-0.03
-0.025
-0.03
-0.01
-0.03
-0.04
-0.03
-0.025
-0.015
0.015
-0.025
-0.015
-0.015
0.035
0.045
0.04
0.035
0.055
0.08
0.115
0.12
0.18
0.19
0.19
0.135
0.125
0.115
0.095
0.08
0.055
0.03
0.03
0.025
0.025
0.01
0.025
0.04
0.035
0.005
0.015
-0.015
0.02
0.09
0.135
0.145
0.24
0.285
0.29
0.27
0.245
0.2
0.145
0.06
0.02
0.01
0.01
-0.005
0.03
0.03
0.02
-0.015
0.08
0.49
1.36
2.675
2.525
0.51
-0.635
-0.43
-0.16
-0.115
-0.055
-0.055
-0.035
-0.03
-0.03
-0.045
-0.035
-0.025
0.01
-0.01
-0.005
-0.005
-0.01
-0.015
-0.02
0.005
0.03
0.02
0.06
0.12
0.16
0.16
0.22
0.23
0.205
0.175
0.16
0.125
0.11
0.11
0.095
0.08
0.085
0.095
0.11
0.09
0.09
0.075
0.08
0.085
0.095
0.115
0.175
0.22
0.23
0.245
0.345
0.4
0.405
0.36
0.315
0.255
0.205
0.165
0.145
0.105
0.11
0.12
0.115
0.115
0.13
0.09
0.24
0.72
1.7
2.815
2.21
0.29
-0.47
-0.27
-0.05
-0.015
0.045
0.06
0.055
0.035
0.05
0.06
0.08
0.07
0.07
0.08
0.08
0.07
0.08
0.08
0.09
0.1
0.12
0.135
0.155
0.145
0.18
0.235
0.265
0.25
0.23
0.205
0.205
0.175
0.16
0.17
0.155
0.145
0.13
0.095
0.09
0.085
0.1
0.115
0.12
0.095
0.095
0.1
0.135
0.18
0.215
0.21
0.245
0.31
0.365
0.375
0.345
0.295
0.22
0.13
0.095
0.09
0.08
0.08
0.085
0.07
0.08
0.075
0.03
0.2
0.76
1.835
2.885
1.99
0.07
-0.515
-0.255
-0.075
-0.045
-0.04
-0.03
-0.03
-0.02
-0.015
-0.015
-0.015
0.01
0.005
-0.01
-0.02
-0.02
-0.005
0.005
-0.025
-0.01
0.01
0.02
0.025
0.065
0.105
0.14
0.15
0.175
0.15
0.11
0.09
0.075
0.045
0.05
0.045
0.035
0.005
-0.005
-0.005
-0.01
-0.015
0.0
0.015
0.01
0.015
0.025
0.015
0.055
0.095
0.09
0.11
0.185
0.26
0.26
0.205
0.185
0.135
0.07
0.01
-0.015
-0.025
-0.045
-0.03
-0.015
-0.03
-0.04
-0.06
-0.055
0.21
0.89
2.16
2.725
1.125
-0.455
-0.54
-0.27
-0.185
-0.165
-0.155
-0.155
-0.165
-0.16
-0.15
-0.145
-0.125
-0.1
-0.11
-0.12
-0.12
-0.12
-0.115
-0.105
-0.095
-0.075
-0.07
-0.06
-0.065
-0.055
-0.025
0.03
0.07
0.055
0.025
0.025
0.005
-0.01
-0.015
-0.02
-0.04
-0.045
-0.065
-0.075
-0.095
-0.115
-0.11
-0.095
-0.105
-0.1
-0.075
-0.07
-0.085
-0.07
-0.015
0.02
-0.005
0.075
0.175
0.205
0.165
0.125
0.09
0.015
-0.03
-0.045
-0.08
-0.075
-0.08
-0.105
-0.125
-0.09
-0.08
-0.115
0.04
0.51
1.46
2.58
1.95
0.05
-0.67
-0.455
-0.25
-0.235
-0.235
-0.22
-0.22
-0.18
-0.185
-0.19
-0.19
-0.17
-0.15
-0.13
-0.135
-0.16
-0.185
-0.16
-0.15
-0.135
-0.125
-0.11
-0.11
-0.1
-0.08
-0.035
-0.005
0.0
0.01
0.0
-0.015
-0.05
-0.055
-0.07
-0.09
-0.095
-0.115
-0.13
-0.125
-0.125
-0.125
-0.11
-0.12
-0.12
-0.09
-0.065
-0.06
-0.06
-0.05
-0.01
0.02
0.015
0.055
0.14
0.185
0.165
0.11
0.075
0.02
-0.065
-0.105
-0.095
-0.1
-0.105
-0.115
-0.105
-0.085
-0.105
-0.13
0.135
0.77
1.98
2.63
1.205
-0.365
-0.555
-0.345
-0.24
-0.23
-0.21
-0.18
-0.13
-0.145
-0.195
-0.18
-0.165
-0.16
-0.15
-0.165
-0.155
-0.15
-0.135
-0.135
-0.155
-0.155
-0.145
-0.12
-0.11
-0.09
-0.025
0.025
0.02
-0.01
-0.025
-0.025
-0.02
-0.025
-0.03
-0.06
-0.085
-0.08
-0.075
-0.11
-0.11
-0.11
-0.11
-0.085
-0.07
-0.075
-0.08
-0.06
-0.065
-0.07
-0.045
0.005
0.03
0.025
0.085
0.165
0.205
0.205
0.165
0.095
0.02
-0.045
-0.075
-0.075
-0.08
-0.07
-0.075
-0.105
-0.08
-0.075
-0.1
0.1
0.685
1.83
2.71
1.555
-0.175
-0.545
-0.325
-0.18
-0.155
-0.145
-0.135
-0.135
-0.135
-0.115
-0.105
-0.135
-0.14
-0.135
-0.15
-0.155
-0.155
-0.145
-0.105
-0.095
-0.09
-0.105
-0.115
-0.11
-0.07
-0.045
-0.01
0.03
0.07
0.075
0.045
0.01
-0.03
-0.025
-0.035
-0.05
-0.045
-0.05
-0.065
-0.09
-0.095
-0.045
-0.025
-0.06
-0.065
-0.035
-0.025
-0.015
0.02
0.025
0.06
0.085
0.09
0.11
0.18
0.265
0.3
0.275
0.2
0.13
0.08
0.055
0.025
0.01
0.015
0.01
0.055
0.035
-0.03
-0.065
-0.005
0.4
1.18
2.43
2.515
0.74
-0.485
-0.395
-0.185
-0.11
-0.045
-0.03
-0.035
-0.01
-0.005
-0.015
0.03
0.01
-0.05
-0.005
0.03
0.035
0.08
0.09
0.055
0.035
0.095
0.1
0.08
0.11
0.15
0.165
0.215
0.265
0.23
0.195
0.22
0.24
0.225
0.18
0.15
0.155
0.165
0.145
0.13
0.165
0.2
0.165
0.17
0.255
0.24
0.215
0.225
0.235
0.24
0.255
0.305
0.33
0.34
0.365
0.465
0.54
0.485
0.415
0.465
0.465
0.3
0.27
0.26
0.215
0.3
0.265
0.255
0.31
0.29
0.215
0.38
0.9
1.81
3.025
2.485
0.565
-0.295
-0.155
0.115
0.19
0.255
0.255
0.29
0.295
0.32
0.36
0.315
0.21
0.265
0.35
0.365
0.415
0.38
0.315
0.315
0.35
0.45
0.435
0.35
0.445
0.59
0.56
0.505
0.61
0.58
0.55
0.535
0.495
0.495
0.47
0.475
0.465
0.48
0.52
0.43
0.475
0.53
0.41
0.455
0.555
0.515
0.535
0.57
0.515
0.56
0.615
0.615
0.615
0.7
0.705
0.735
0.795
0.79
0.76
0.665
0.485
0.56
0.64
0.535
0.57
0.53
0.56
0.59
0.535
0.605
0.705
1.105
2.11
3.385
2.815
0.69
-0.165
0.19
0.495
0.575
0.535
0.445
0.535
0.59
0.625
0.74
0.62
0.515
0.585
0.755
0.775
0.61
0.61
0.695
0.695
0.735
0.735
0.86
0.83
0.73
0.83
0.95
0.975
0.8
0.84
0.925
0.83
0.805
0.82
0.825
0.715
0.635
0.83
0.83
0.765
0.705
0.765
0.875
0.695
0.705
0.9
0.845
0.77
0.855
0.845
0.92
0.89
0.77
0.87
1.055
0.975
0.91
0.96
0.88
0.885
0.77
0.795
0.795
0.63
0.675
0.715
0.68
0.735
0.735
0.655
0.87
1.755
3.055
3.415
1.71
0.195
0.115
0.38
0.62
0.655
0.61
0.56
0.56
0.72
0.67
0.635
0.63
0.605
0.65
0.72
0.67
0.615
0.71
0.7
0.71
0.77
0.71
0.705
0.68
0.79
0.935
0.835
0.795
0.93
0.705
0.535
0.87
0.865
0.645
0.615
0.675
0.665
0.67
0.81
0.71
0.61
0.585
0.63
0.72
0.825
0.755
0.59
0.735
0.805
0.83
0.77
0.75
0.955
0.97
0.87
0.855
0.89
0.825
0.72
0.585
0.56
0.685
0.58
0.56
0.605
0.67
0.63
0.63
0.955
1.735
3.105
3.345
1.54
0.005
0.07
0.49
0.62
0.65
0.585
0.555
0.57
0.64
0.675
0.645
0.71
0.71
0.565
0.615
0.69
0.695
0.72
0.67
0.72
0.775
0.69
0.725
0.79
0.78
0.86
0.865
0.855
0.84
0.84
0.85
0.755
0.79
0.745
0.705
0.705
0.7
0.725
0.75
0.795
0.725
0.65
0.68
0.695
0.69
0.695
0.71
0.76
0.795
0.78
0.815
0.92
0.925
0.87
0.835
0.73
0.625
0.595
0.545
0.51
0.525
0.445
0.435
0.475
0.485
0.4
0.555
1.185
2.46
3.445
2.29
0.325
-0.115
0.11
0.215
0.22
0.225
0.29
0.285
0.24
0.245
0.23
0.205
0.17
0.165
0.26
0.295
0.175
0.13
0.21
0.27
0.235
0.185
0.17
0.235
0.21
0.24
0.295
0.31
0.34
0.395
0.32
0.255
0.24
0.255
0.245
0.26
0.225
0.175
0.185
0.21
0.21
0.23
0.17
0.115
0.13
0.17
0.15
0.17
0.205
0.27
0.275
0.36
0.425
0.42
0.4
0.385
0.27
0.14
0.085
0.065
0.11
0.105
0.035
0.03
0.02
0.03
-0.01
0.165
0.745
1.96
3.105
2.115
-0.025
-0.58
-0.32
-0.16
-0.105
-0.055
-0.055
-0.035
-0.03
-0.01
-0.025
-0.03
-0.06
-0.065
-0.08
-0.05
-0.02
-0.025
-0.055
-0.045
-0.05
-0.01
-0.04
-0.04
0.015
0.035
0.065
0.125
0.145
0.155
0.14
0.135
0.08
0.065
0.09
0.085
0.02
-0.46
-0.37
0.115
-0.06
0.03
0.025
0.045
-0.01
-0.025
-0.02
0.03
0.06
0.09
0.115
0.185
0.24
0.29
0.25
0.22
0.16
0.095
0.03
-0.01
-0.06
-0.05
-0.075
-0.07
-0.07
-0.05
-0.07
-0.085
0.175
0.885
2.22
2.875
1.19
-0.595
-0.705
-0.36
-0.23
-0.14
-0.16
-0.165
-0.17
-0.135
-0.15
-0.135
-0.125
-0.125
-0.16
-0.145
-0.135
-0.135
-0.14
-0.105
-0.095
-0.11
-0.165
-0.14
-0.115
-0.08
-0.07
-0.05
-0.02
0.03
0.01
0.01
-0.025
-0.025
-0.05
-0.065
-0.095
-0.09
-0.095
-0.07
-0.1
-0.105
-0.125
-0.11
-0.11
-0.1
-0.105
-0.085
-0.075
-0.055
-0.035
0.035
0.015
0.075
0.165
0.215
0.155
0.1
0.005
-0.05
-0.095
-0.16
-0.2
-0.165
-0.18
-0.17
-0.17
-0.145
-0.185
-0.22
0.03
0.73
1.97
2.575
0.96
-0.715
-0.85
-0.51
-0.345
-0.28
-0.285
-0.25
-0.255
-0.26
-0.275
-0.26
-0.255
-0.23
-0.24
-0.26
-0.29
-0.245
-0.225
-0.215
-0.24
-0.23
-0.275
-0.29
-0.285
-0.23
-0.22
-0.175
-0.125
-0.105
-0.125
-0.125
-0.145
-0.145
-0.155
-0.175
-0.21
-0.195
-0.195
-0.185
-0.215
-0.21
-0.215
-0.19
-0.19
-0.185
-0.2
-0.17
-0.19
-0.19
-0.155
-0.075
-0.115
-0.07
0.01
0.08
0.08
0.035
-0.055
-0.145
-0.23
-0.23
-0.255
-0.265
-0.275
-0.275
-0.315
-0.295
-0.285
-0.305
-0.205
0.3
1.215
2.285
1.655
-0.255
-1.035
-0.77
-0.52
-0.43
-0.395
-0.365
-0.36
-0.35
-0.385
-0.36
-0.345
-0.35
-0.375
-0.345
-0.345
-0.33
-0.345
-0.325
-0.335
-0.34
-0.375
-0.37
-0.375
-0.335
-0.325
-0.29
-0.275
-0.24
-0.235
-0.21
-0.225
-0.21
-0.24
-0.25
-0.26
-0.25
-0.295
-0.28
-0.29
-0.26
-0.255
-0.24
-0.245
-0.24
-0.255
-0.225
-0.23
-0.23
-0.24
-0.215
-0.165
-0.13
-0.17
-0.09
-0.005
0.04
-0.025
-0.07
-0.135
-0.2
-0.27
-0.265
-0.285
-0.305
-0.325
-0.315
-0.305
-0.29
-0.305
-0.33
-0.145
0.49
1.605
2.295
0.955
-0.645
-0.89
-0.645
-0.49
-0.425
-0.42
-0.385
-0.38
-0.365
-0.385
-0.385
-0.38
-0.365
-0.365
-0.35
-0.35
-0.33
-0.365
-0.355
-0.37
-0.35
-0.375
-0.385
-0.395
-0.375
-0.375
-0.305
-0.265
-0.22
-0.215
-0.195
-0.225
-0.23
-0.265
-0.255
-0.27
-0.27
-0.29
-0.24
-0.24
-0.245
-0.27
-0.25
-0.24
-0.19
-0.2
-0.205
-0.215
-0.21
-0.225
-0.19
-0.165
-0.13
-0.155
-0.075
-0.005
0.055
0.015
-0.025
-0.095
-0.175
-0.24
-0.235
-0.24
-0.24
-0.275
-0.28
-0.3
-0.27
-0.27
-0.325
-0.22
0.295
1.2
2.225
1.54
-0.235
-0.935
-0.71
-0.49
-0.42
-0.4
-0.37
-0.385
-0.37
-0.375
-0.355
-0.37
-0.35
-0.345
-0.34
-0.38
-0.355
-0.37
-0.375
-0.37
-0.335
-0.365
-0.39
-0.43
-0.4
-0.385
-0.335
-0.28
-0.21
-0.225
-0.23
-0.24
-0.235
-0.25
-0.245
-0.28
-0.275
-0.28
-0.27
-0.28
-0.265
-0.275
-0.235
-0.24
-0.245
-0.23
-0.205
-0.24
-0.24
-0.255
-0.255
-0.25
-0.195
-0.185
-0.165
-0.125
-0.015
0.02
0.015
-0.055
-0.125
-0.2
-0.255
-0.305
-0.29
-0.315
-0.31
-0.325
-0.315
-0.33
-0.31
-0.375
-0.2
0.305
1.25
2.205
1.465
-0.325
-0.93
-0.735
-0.505
-0.475
-0.41
-0.4
-0.38
-0.38
-0.38
-0.41
-0.385
-0.39
-0.37
-0.385
-0.385
-0.39
-0.375
-0.385
-0.345
-0.37
-0.39
-0.41
-0.39
-0.39
-0.355
-0.335
-0.285
-0.265
-0.215
-0.22
-0.215
-0.255
-0.24
-0.26
-0.265
-0.28
-0.265
-0.275
-0.26
-0.265
-0.24
-0.25
-0.24
-0.255
-0.235
-0.24
-0.23
-0.235
-0.22
-0.24
-0.24
-0.205
-0.145
-0.17
-0.105
-0.03
0.045
0.02
-0.03
-0.135
-0.195
-0.26
-0.275
-0.29
-0.275
-0.33
-0.325
-0.33
-0.305
-0.33
-0.365
-0.24
0.305
1.25
2.23
1.435
-0.32
-0.95
-0.72
-0.525
-0.465
-0.435
-0.385
-0.385
-0.39
-0.4
-0.38
-0.4
-0.38
-0.39
-0.37
-0.39
-0.395
-0.375
-0.34
-0.375
-0.375
-0.39
-0.375
-0.39
-0.365
-0.39
-0.34
-0.3
-0.24
-0.25
-0.215
-0.24
-0.225
-0.24
-0.24
-0.275
-0.275
-0.305
-0.285
-0.31
-0.29
-0.28
-0.265
-0.285
-0.255
-0.255
-0.225
-0.25
-0.24
-0.255
-0.225
-0.25
-0.21
-0.17
-0.15
-0.16
-0.075
0.005
0.035
-0.025
-0.08
-0.15
-0.205
-0.275
-0.29
-0.29
-0.275
-0.305
-0.285
-0.305
-0.305
-0.335
-0.28
0.08
0.84
2.015
2.055
0.245
-0.935
-0.79
-0.51
-0.455
-0.395
-0.395
-0.375
-0.385
-0.355
-0.37
-0.345
-0.355
-0.335
-0.355
-0.35
-0.35
-0.325
-0.34
-0.325
-0.325
-0.305
-0.345
-0.335
-0.345
-0.31
-0.31
-0.24
-0.21
-0.165
-0.155
-0.155
-0.2
-0.2
-0.21
-0.215
-0.225
-0.215
-0.24
-0.235
-0.24
-0.225
-0.22
-0.215
-0.235
-0.2
-0.205
-0.185
-0.2
-0.17
-0.195
-0.18
-0.19
-0.165
-0.14
-0.1
-0.1
-0.025
0.04
0.095
0.065
0.0
-0.095
-0.135
-0.195
-0.21
-0.245
-0.24
-0.255
-0.225
-0.265
-0.26
-0.29
-0.275
-0.03
0.615
1.74
2.265
0.775
-0.705
-0.825
-0.525
-0.435
-0.375
-0.355
-0.335
-0.355
-0.33
-0.325
-0.315
-0.33
-0.305
-0.3
-0.275
-0.295
-0.29
-0.325
-0.295
-0.3
-0.275
-0.295
-0.295
-0.305
-0.275
-0.26
-0.215
-0.185
-0.15
-0.17
-0.165
-0.17
-0.16
-0.185
-0.17
-0.21
-0.195
-0.23
-0.22
-0.235
-0.23
-0.24
-0.205
-0.21
-0.175
-0.19
-0.18
-0.205
-0.175
-0.18
-0.175
-0.2
-0.135
-0.11
-0.08
-0.08
0.02
0.08
0.1
0.035
-0.005
-0.1
-0.165
-0.22
-0.225
-0.24
-0.235
-0.23
-0.22
-0.255
-0.23
-0.28
-0.16
0.285
1.185
2.2
1.695
-0.115
-0.835
-0.645
-0.41
-0.38
-0.325
-0.32
-0.295
-0.3
-0.275
-0.295
-0.265
-0.295
-0.285
-0.285
-0.27
-0.28
-0.24
-0.265
-0.265
-0.275
-0.26
-0.265
-0.24
-0.255
-0.23
-0.185
-0.105
-0.11
-0.08
-0.09
-0.08
-0.11
-0.08
-0.095
-0.105
-0.14
-0.13
-0.145
-0.125
-0.135
-0.125
-0.155
-0.105
-0.1
-0.08
-0.105
-0.07
-0.09
-0.07
-0.075
-0.05
-0.065
-0.005
0.02
0.035
0.05
0.165
0.215
0.23
0.165
0.105
0.005
-0.05
-0.1
-0.095
-0.11
-0.09
-0.115
-0.09
-0.115
-0.095
-0.155
0.035
0.58
1.62
2.4
1.415
-0.215
-0.615
-0.46
-0.315
-0.315
-0.26
-0.24
-0.21
-0.225
-0.225
-0.24
-0.185
-0.175
-0.155
-0.17
-0.145
-0.165
-0.155
-0.155
-0.14
-0.155
-0.145
-0.17
-0.15
-0.165
-0.135
-0.095
-0.01
-0.015
0.01
-0.005
0.01
-0.01
0.0
-0.045
-0.045
-0.05
-0.035
-0.065
-0.045
-0.06
-0.035
-0.045
-0.025
-0.03
-0.01
-0.025
-0.01
-0.025
0.01
0.005
0.035
0.045
0.08
0.08
0.185
0.245
0.28
0.22
0.17
0.07
0.01
-0.065
-0.07
-0.095
-0.08
-0.11
-0.095
-0.105
-0.09
-0.155
0.01
0.51
1.505
2.355
1.49
-0.175
-0.64
-0.475
-0.295
-0.26
-0.2
-0.225
-0.2
-0.2
-0.195
-0.205
-0.17
-0.195
-0.175
-0.19
-0.165
-0.195
-0.18
-0.185
-0.165
-0.185
-0.165
-0.175
-0.17
-0.195
-0.15
-0.125
-0.065
-0.06
-0.02
-0.02
-0.015
-0.06
-0.05
-0.08
-0.065
-0.08
-0.085
-0.115
-0.105
-0.105
-0.075
-0.085
-0.05
-0.06
-0.05
-0.07
-0.055
-0.07
-0.03
0.01
0.045
0.015
0.1
0.18
0.255
0.24
0.185
0.095
0.025
-0.065
-0.085
-0.125
-0.105
-0.115
-0.1
-0.13
-0.105
-0.125
-0.115
0.17
0.855
1.99
2.285
0.695
-0.6
-0.625
-0.35
-0.265
-0.215
-0.195
-0.15
-0.165
-0.165
-0.195
-0.165
-0.18
-0.165
-0.17
-0.145
-0.17
-0.155
-0.16
-0.14
-0.155
-0.15
-0.165
-0.13
-0.145
-0.125
-0.12
-0.045
-0.03
-0.005
-0.005
-0.005
-0.02
0.0
-0.045
-0.055
-0.08
-0.065
-0.08
-0.07
-0.095
-0.075
-0.085
-0.06
-0.06
-0.03
-0.04
-0.025
-0.045
-0.035
-0.055
0.005
0.045
0.08
0.1
0.2
0.25
0.275
0.2
0.135
0.015
-0.03
-0.065
-0.055
-0.08
-0.06
-0.095
-0.09
-0.105
-0.085
-0.14
0.05
0.605
1.655
2.355
1.265
-0.325
-0.64
-0.435
-0.265
-0.235
-0.175
-0.19
-0.17
-0.18
-0.15
-0.175
-0.16
-0.185
-0.155
-0.175
-0.145
-0.145
-0.14
-0.165
-0.15
-0.185
-0.155
-0.165
-0.16
-0.165
-0.105
-0.08
-0.05
-0.05
-0.01
-0.03
-0.03
-0.06
-0.045
-0.07
-0.075
-0.1
-0.085
-0.115
-0.095
-0.115
-0.1
-0.105
-0.075
-0.07
-0.06
-0.075
-0.05
-0.065
-0.065
-0.08
-0.045
-0.035
0.015
0.015
0.105
0.18
0.215
0.175
0.15
0.04
-0.04
-0.105
-0.1
-0.13
-0.13
-0.145
-0.135
-0.17
-0.15
-0.175
-0.175
0.075
0.71
1.805
2.305
0.875
-0.55
-0.695
-0.44
-0.345
-0.29
-0.26
-0.225
-0.24
-0.22
-0.23
-0.225
-0.235
-0.23
-0.245
-0.225
-0.23
-0.195
-0.225
-0.225
-0.23
-0.21
-0.23
-0.2
-0.215
-0.21
-0.205
-0.14
-0.125
-0.08
-0.08
-0.065
-0.08
-0.08
-0.12
-0.11
-0.14
-0.135
-0.155
-0.145
-0.155
-0.14
-0.16
-0.12
-0.135
-0.105
-0.11
-0.09
-0.1
-0.075
-0.095
-0.075
-0.11
-0.095
-0.105
-0.03
-0.015
0.005
0.045
0.165
0.165
0.145
0.065
0.0
-0.095
-0.11
-0.145
-0.12
-0.145
-0.135
-0.155
-0.145
-0.155
-0.145
-0.195
0.07
0.69
1.825
2.32
0.97
-0.52
-0.67
-0.435
-0.305
-0.29
-0.235
-0.23
-0.21
-0.24
-0.22
-0.23
-0.195
-0.215
-0.21
-0.215
-0.195
-0.215
-0.195
-0.21
-0.185
-0.215
-0.205
-0.225
-0.2
-0.2
-0.16
-0.155
-0.115
-0.095
-0.05
-0.07
-0.065
-0.095
-0.095
-0.135
-0.115
-0.13
-0.12
-0.135
-0.125
-0.155
-0.135
-0.14
-0.105
-0.12
-0.09
-0.105
-0.075
-0.085
-0.07
-0.1
-0.08
-0.1
-0.105
-0.125
-0.095
-0.085
-0.03
-0.04
0.01
0.085
0.185
0.15
0.105
0.04
-0.005
-0.1
-0.13
-0.15
-0.125
-0.155
-0.145
-0.15
-0.145
-0.165
-0.16
-0.135
0.23
0.93
2.09
2.13
0.485
-0.715
-0.6
-0.355
-0.275
-0.26
-0.23
-0.26
-0.24
-0.265
-0.24
-0.24
-0.225
-0.235
-0.205
-0.235
-0.205
-0.225
-0.225
-0.24
-0.215
-0.235
-0.23
-0.24
-0.23
-0.25
-0.195
-0.165
-0.105
-0.11
-0.075
-0.085
-0.075
-0.115
-0.105
-0.15
-0.14
-0.155
-0.14
-0.16
-0.13
-0.145
-0.13
-0.165
-0.14
-0.12
-0.095
-0.11
-0.09
-0.095
-0.07
-0.095
-0.09
-0.12
-0.105
-0.12
-0.08
-0.105
-0.07
-0.05
0.0
-0.025
0.05
0.135
0.165
0.095
0.07
0.01
-0.05
-0.12
-0.11
-0.14
-0.13
-0.155
-0.145
-0.175
-0.145
-0.17
-0.195
-0.045
0.515
1.47
2.35
1.425
-0.205
-0.695
-0.485
-0.345
-0.29
-0.275
-0.23
-0.235
-0.225
-0.25
-0.225
-0.225
-0.195
-0.245
-0.235
-0.24
-0.21
-0.21
-0.215
-0.24
-0.215
-0.23
-0.225
-0.24
-0.205
-0.205
-0.17
-0.145
-0.08
-0.075
-0.06
-0.095
-0.075
-0.095
-0.1
-0.145
-0.13
-0.155
-0.13
-0.16
-0.135
-0.135
-0.11
-0.125
-0.23
-0.1
-0.12
-0.095
-0.07
-0.035
-0.03
0.04
0.115
0.08
0.025
0.105
0.075
0.025
-0.005
0.09
0.18
0.27
0.41
0.58
0.59
0.555
0.445
0.345
0.265
0.23
0.25
0.245
0.145
0.175
0.17
0.2
0.275
0.3
0.34
0.445
0.375
0.23
0.055
-0.045
-0.1
-0.165
-0.21
-0.21
-0.25
-0.19
-0.09
-0.06
0.11
0.685
1.78
2.275
0.88
-0.375
-0.4
-0.24
-0.12
-0.05
-0.01
0.055
0.085
0.06
0.02
0.09
0.105
0.09
0.105
0.135
0.145
0.25
0.26
0.255
0.28
0.34
0.415
0.405
0.345
0.46
0.475
0.3
0.195
0.33
0.385
0.285
0.195
0.2
0.145
0.095
0.135
0.22
0.275
0.375
0.335
0.28
0.295
0.44
0.585
0.6
0.535
0.395
0.24
0.24
0.185
0.165
0.14
0.15
0.145
0.15
0.095
0.115
0.44
1.19
2.54
2.77
0.93
-0.34
-0.345
-0.23
-0.16
-0.055
-0.02
0.03
0.035
0.035
0.015
0.035
0.185
0.25
0.02
-0.06
0.03
0.135
0.12
0.105
0.15
0.285
0.495
0.455
0.19
0.215
0.285
0.3
0.205
0.155
0.18
0.205
0.18
0.18
0.165
0.155
0.135
0.135
0.135
0.2
0.2
0.22
0.275
0.385
0.435
0.44
0.37
0.24
0.095
0.045
-0.02
-0.055
-0.025
-0.01
-0.04
-0.035
-0.08
0.075
0.595
1.525
2.69
2.21
0.205
-0.625
-0.45
-0.275
-0.215
-0.17
-0.155
-0.015
0.065
-0.14
-0.31
-0.215
-0.185
-0.135
-0.11
-0.07
-0.055
-0.03
-0.005
0.085
0.085
0.125
0.165
0.19
0.2
0.225
0.18
0.135
0.07
0.045
0.0
-0.005
-0.01
-0.015
-0.05
-0.05
-0.08
-0.085
-0.08
-0.055
-0.04
-0.02
0.035
0.13
0.165
0.195
0.12
0.015
-0.055
-0.095
-0.15
-0.15
-0.175
-0.17
-0.19
-0.205
-0.265
-0.13
0.42
1.555
2.735
1.955
-0.09
-0.735
-0.545
-0.345
-0.205
-0.005
0.105
0.1
0.035
-0.02
-0.06
-0.085
-0.15
-0.155
-0.185
-0.19
-0.19
-0.13
-0.11
-0.08
-0.07
-0.01
0.015
0.055
0.055
0.06
-0.005
-0.06
-0.095
-0.08
-0.11
-0.13
-0.165
-0.17
-0.205
-0.19
-0.215
-0.235
-0.24
-0.19
-0.18
-0.155
-0.08
0.03
0.065
0.04
-0.015
-0.085
-0.18
-0.22
-0.235
-0.265
-0.295
-0.3
-0.32
-0.31
-0.365
-0.19
0.405
1.61
2.645
1.6
-0.39
-0.87
-0.69
-0.56
-0.495
-0.465
-0.455
-0.44
-0.455
-0.45
-0.43
-0.385
-0.395
-0.38
-0.375
-0.365
-0.35
-0.31
-0.275
-0.23
-0.21
-0.19
-0.17
-0.11
-0.09
-0.105
-0.155
-0.185
-0.22
-0.24
-0.29
-0.295
-0.325
-0.325
-0.345
-0.36
-0.4
-0.4
-0.41
-0.38
-0.39
-0.345
-0.26
-0.145
-0.095
-0.07
-0.08
-0.21
-0.44
-0.48
-0.455
-0.485
-0.495
-0.435
-0.285
-0.02
0.11
0.08
-0.015
0.835
2.255
1.655
-0.28
-0.925
-0.705
-0.43
-0.37
-0.34
-0.305
-0.365
-0.43
-0.53
-0.585
-0.53
-0.51
-0.46
-0.45
-0.43
-0.42
-0.415
-0.365
-0.285
-0.245
-0.155
-0.23
-0.28
-0.215
-0.2
-0.225
-0.22
-0.28
-0.34
-0.385
-0.365
-0.375
-0.4
-0.44
-0.435
-0.42
-0.375
-0.345
-0.425
-0.52
-0.515
-0.445
-0.29
-0.225
-0.22
-0.285
-0.35
-0.46
-0.515
-0.53
-0.525
-0.53
-0.52
-0.535
-0.505
-0.55
-0.53
-0.215
0.55
1.875
2.015
0.17
-1.025
-0.955
-0.77
-0.735
-0.655
-0.66
-0.64
-0.625
-0.59
-0.56
-0.53
-0.6
-0.62
-0.57
-0.54
-0.54
-0.485
-0.465
-0.46
-0.415
-0.38
-0.365
-0.275
-0.305
-0.245
-0.23
-0.27
-0.33
-0.365
-0.4
-0.4
-0.4
-0.4
-0.415
-0.435
-0.49
-0.44
-0.405
-0.4
-0.445
-0.44
-0.33
-0.195
-0.13
-0.105
-0.165
-0.265
-0.335
-0.31
-0.385
-0.455
-0.44
-0.435
-0.425
-0.4
-0.435
-0.48
-0.26
0.33
1.425
2.26
0.995
-0.665
-0.905
-0.66
-0.545
-0.53
-0.52
-0.46
-0.465
-0.435
-0.43
-0.45
-0.405
-0.39
-0.37
-0.305
-0.34
-0.37
-0.33
-0.21
-0.205
-0.185
-0.105
-0.08
-0.135
-0.065
-0.085
-0.145
-0.17
-0.165
-0.21
-0.27
-0.29
-0.26
-0.26
-0.27
-0.27
-0.265
-0.275
-0.24
-0.215
-0.165
-0.15
-0.13
-0.045
0.04
0.055
0.025
-0.03
-0.12
-0.215
-0.23
-0.25
-0.235
-0.275
-0.295
-0.295
-0.295
-0.355
-0.23
0.3
1.37
2.475
1.655
-0.27
-0.895
-0.735
-0.53
-0.46
-0.42
-0.395
-0.37
-0.36
-0.34
-0.345
-0.325
-0.305
-0.3
-0.29
-0.25
-0.24
-0.215
-0.18
-0.14
-0.125
-0.095
-0.09
-0.05
-0.03
-0.045
-0.095
-0.125
-0.155
-0.185
-0.22
-0.23
-0.24
-0.255
-0.295
-0.295
-0.31
-0.315
-0.315
-0.29
-0.26
-0.225
-0.22
-0.17
-0.08
-0.01
-0.01
-0.065
-0.115
-0.195
-0.29
-0.315
-0.325
-0.305
-0.335
-0.35
-0.355
-0.345
-0.38
-0.285
0.18
1.165
2.415
1.94
-0.115
-1.005
-0.805
-0.595
-0.515
-0.47
-0.45
-0.41
-0.4
-0.41
-0.415
-0.385
-0.395
-0.38
-0.36
-0.335
-0.325
-0.3
-0.265
-0.22
-0.19
-0.16
-0.135
-0.105
-0.09
-0.075
-0.115
-0.15
-0.17
-0.21
-0.235
-0.255
-0.28
-0.29
-0.305
-0.325
-0.335
-0.335
-0.34
-0.345
-0.325
-0.26
-0.23
-0.235
-0.165
-0.045
-0.03
-0.04
-0.075
-0.14
-0.245
-0.3
-0.33
-0.33
-0.335
-0.335
-0.325
-0.32
-0.345
-0.365
-0.1
0.605
1.915
2.515
0.885
-0.745
-0.83
-0.59
-0.5
-0.425
-0.41
-0.405
-0.395
-0.375
-0.36
-0.35
-0.335
-0.325
-0.31
-0.285
-0.265
-0.26
-0.25
-0.22
-0.175
-0.135
-0.105
-0.07
-0.045
-0.025
-0.045
-0.085
-0.12
-0.145
-0.19
-0.205
-0.205
-0.23
-0.255
-0.26
-0.265
-0.28
-0.3
-0.3
-0.305
-0.275
-0.24
-0.215
-0.19
-0.095
-0.015
0.01
-0.005
-0.05
-0.13
-0.225
-0.28
-0.285
-0.295
-0.3
-0.325
-0.32
-0.305
-0.3
-0.32
-0.075
0.565
1.825
2.48
0.98
-0.645
-0.785
-0.56
-0.485
-0.435
-0.385
-0.365
-0.375
-0.375
-0.365
-0.355
-0.325
-0.32
-0.31
-0.29
-0.265
-0.265
-0.24
-0.22
-0.19
-0.16
-0.12
-0.075
-0.045
-0.03
-0.025
-0.05
-0.08
-0.115
-0.165
-0.185
-0.195
-0.195
-0.215
-0.235
-0.24
-0.265
-0.26
-0.25
-0.23
-0.23
-0.2
-0.165
-0.155
-0.115
-0.02
0.075
0.095
0.04
-0.01
-0.095
-0.175
-0.225
-0.245
-0.255
-0.26
-0.26
-0.255
-0.26
-0.25
-0.29
-0.055
0.575
1.805
2.455
1.025
-0.555
-0.705
-0.525
-0.44
-0.38
-0.34
-0.315
-0.31
-0.31
-0.31
-0.305
-0.29
-0.275
-0.275
-0.265
-0.245
-0.215
-0.19
-0.18
-0.165
-0.14
-0.115
-0.09
-0.05
-0.02
-0.035
-0.055
-0.08
-0.105
-0.135
-0.165
-0.175
-0.19
-0.195
-0.205
-0.22
-0.24
-0.24
-0.25
-0.24
-0.225
-0.22
-0.185
-0.135
-0.125
-0.1
-0.005
0.08
0.095
0.055
-0.005
-0.08
-0.155
-0.205
-0.22
-0.215
-0.215
-0.21
-0.23
-0.235
-0.235
-0.28
-0.065
0.545
1.705
2.425
1.15
-0.45
-0.675
-0.485
-0.4
-0.345
-0.325
-0.305
-0.29
-0.285
-0.27
-0.26
-0.265
-0.25
-0.23
-0.215
-0.215
-0.205
-0.19
-0.175
-0.155
-0.13
-0.095
-0.065
-0.035
-0.02
-0.02
-0.03
-0.055
-0.065
-0.08
-0.1
-0.12
-0.155
-0.155
-0.165
-0.17
-0.18
-0.195
-0.185
-0.185
-0.165
-0.15
-0.15
-0.12
-0.09
-0.08
-0.075
0.01
0.12
0.135
0.085
0.03
-0.05
-0.12
-0.165
-0.185
-0.19
-0.195
-0.195
-0.19
-0.205
-0.2
-0.265
-0.11
0.415
1.43
2.355
1.495
-0.22
-0.685
-0.5
-0.385
-0.35
-0.32
-0.305
-0.28
-0.265
-0.255
-0.255
-0.245
-0.24
-0.24
-0.235
-0.23
-0.205
-0.185
-0.175
-0.175
-0.18
-0.14
-0.105
-0.06
-0.035
-0.03
-0.065
-0.065
-0.07
-0.105
-0.15
-0.17
-0.145
-0.145
-0.165
-0.175
-0.21
-0.225
-0.21
-0.195
-0.165
-0.145
-0.155
-0.155
-0.13
-0.075
-0.075
-0.075
0.015
0.125
0.145
0.115
0.06
-0.01
-0.095
-0.165
-0.215
-0.19
-0.18
-0.185
-0.205
-0.205
-0.175
-0.195
-0.035
0.465
1.445
2.235
1.255
-0.27
-0.645
-0.505
-0.375
-0.305
-0.23
-0.225
-0.245
-0.235
-0.24
-0.215
-0.175
-0.175
-0.185
-0.145
-0.145
-0.12
-0.105
-0.085
-0.045
-0.04
-0.035
-0.005
0.005
0.045
0.075
0.075
0.045
-0.01
-0.025
-0.035
-0.08
-0.08
-0.085
-0.095
-0.08
-0.07
-0.075
-0.035
-0.03
-0.025
-0.005
0.005
-0.015
0.045
0.07
0.05
0.03
0.105
0.25
0.335
0.235
0.13
0.055
-0.025
-0.05
-0.015
0.01
-0.01
-0.1
-0.1
-0.04
-0.05
-0.095
0.105
0.655
1.755
2.5
1.225
-0.305
-0.53
-0.395
-0.22
-0.17
-0.135
-0.11
-0.085
-0.055
0.005
0.055
0.02
-0.045
-0.055
-0.025
0.115
0.115
0.13
0.12
0.07
0.025
0.08
0.155
0.21
0.195
0.2
0.17
0.11
0.135
0.12
0.045
0.135
0.1
0.0
-0.025
-0.02
0.03
0.055
0.04
0.09
0.135
0.11
0.085
0.105
0.08
0.115
0.115
0.145
0.26
0.375
0.385
0.315
0.22
0.115
0.05
0.025
0.065
0.115
0.02
-0.05
-0.015
0.015
-0.03
-0.025
0.305
1.09
2.265
2.48
0.895
-0.425
-0.51
-0.28
-0.175
-0.13
-0.065
-0.065
-0.045
0.015
-0.125
-0.11
-0.06
-0.035
0.015
0.005
0.005
0.065
0.085
0.09
0.115
0.155
0.11
0.17
0.21
0.225
0.185
0.15
0.165
0.13
0.135
0.125
0.025
0.025
0.045
0.035
0.005
0.005
0.045
0.02
-0.02
-0.005
-0.015
0.055
0.135
0.13
0.135
0.19
0.255
0.315
0.305
0.265
0.185
0.095
0.05
0.08
0.025
-0.1
-0.145
-0.07
-0.065
-0.015
-0.015
0.1
0.61
1.645
2.525
1.63
-0.14
-0.57
-0.37
-0.245
-0.23
-0.185
-0.145
-0.11
-0.135
-0.14
-0.135
-0.13
-0.125
-0.08
-0.075
-0.07
-0.045
0.03
0.06
0.035
0.045
0.08
0.065
0.11
0.165
0.165
0.195
0.15
0.08
0.01
-0.065
-0.04
-0.045
-0.025
-0.035
-0.01
0.005
-0.04
-0.12
-0.09
-0.035
-0.045
-0.055
0.015
0.055
0.075
0.08
0.175
0.25
0.28
0.25
0.205
0.135
0.045
-0.05
-0.06
-0.09
-0.06
-0.055
-0.07
-0.075
-0.055
-0.14
0.045
0.605
1.735
2.5
1.375
-0.29
-0.61
-0.415
-0.26
-0.22
-0.21
-0.15
-0.14
-0.175
-0.155
-0.125
-0.125
-0.12
-0.095
-0.105
-0.08
-0.03
-0.015
-0.03
-0.005
0.065
0.08
0.045
0.08
0.115
0.15
0.115
0.075
0.035
0.005
-0.025
0.005
0.005
-0.005
-0.08
-0.095
-0.055
-0.08
-0.13
-0.115
-0.08
-0.04
0.005
0.02
0.02
0.035
0.0
0.135
0.24
0.26
0.26
0.175
0.04
0.0
-0.075
-0.08
-0.075
-0.125
-0.135
-0.115
-0.125
-0.1
-0.13
0.115
0.7
1.78
2.245
0.865
-0.57
-0.625
-0.36
-0.285
-0.22
-0.17
-0.23
-0.22
-0.225
-0.185
-0.13
-0.1
-0.15
-0.16
-0.135
-0.11
-0.105
-0.065
-0.05
-0.035
-0.075
-0.065
0.005
0.085
0.095
0.065
0.02
0.055
0.04
-0.015
-0.12
-0.09
-0.075
-0.105
-0.13
-0.08
-0.105
-0.17
-0.175
-0.055
-0.065
-0.035
-0.015
-0.015
-0.025
0.02
0.015
0.115
0.215
0.21
0.185
0.18
0.095
0.0
-0.11
-0.165
-0.145
-0.08
-0.12
-0.105
-0.08
-0.105
-0.19
0.065
0.63
1.665
2.28
1.025
-0.455
-0.59
-0.37
-0.28
-0.29
-0.21
-0.175
-0.19
-0.2
-0.125
-0.12
-0.155
-0.185
-0.15
-0.13
-0.08
-0.08
-0.005
0.035
-0.02
-0.065
0.04
0.055
0.05
0.05
0.095
0.075
0.095
0.03
-0.025
-0.035
-0.045
-0.065
-0.045
-0.05
-0.035
-0.065
-0.075
-0.065
-0.015
0.01
0.0
-0.005
0.04
0.04
0.08
0.07
0.085
0.15
0.255
0.255
0.265
0.2
0.115
-0.02
-0.055
-0.095
-0.075
-0.075
-0.05
-0.09
-0.115
-0.12
-0.095
0.205
0.92
2.09
2.36
0.655
-0.65
-0.605
-0.37
-0.255
-0.2
-0.225
-0.175
-0.17
-0.145
-0.12
-0.145
-0.155
-0.08
-0.15
-0.135
-0.075
-0.055
-0.05
-0.01
-0.02
0.04
0.055
0.045
0.05
0.11
0.1
0.08
0.015
0.005
-0.03
-0.045
-0.03
-0.025
-0.11
-0.135
-0.115
-0.095
-0.135
-0.08
-0.005
0.0
-0.09
-0.085
-0.08
-0.07
-0.03
0.025
0.025
0.1
0.135
0.205
0.195
0.155
0.035
-0.045
-0.09
-0.11
-0.13
-0.135
-0.195
-0.145
-0.16
-0.155
-0.205
-0.1
0.33
1.155
2.315
2.055
0.155
-0.805
-0.625
-0.38
-0.315
-0.255
-0.22
-0.2
-0.24
-0.205
-0.21
-0.18
-0.205
-0.175
-0.17
-0.155
-0.135
-0.09
-0.09
-0.065
-0.03
-0.035
-0.04
0.025
0.035
0.085
0.055
0.025
-0.025
-0.055
-0.08
-0.065
-0.07
-0.1
-0.14
-0.135
-0.175
-0.125
-0.14
-0.105
-0.11
-0.125
-0.15
-0.145
-0.13
-0.095
-0.08
-0.025
-0.05
-0.03
0.08
0.215
0.175
0.095
0.05
-0.005
-0.12
-0.19
-0.2
-0.135
-0.165
-0.215
-0.24
-0.19
-0.205
-0.225
-0.02
0.595
1.665
2.32
1.005
-0.56
-0.78
-0.52
-0.415
-0.345
-0.315
-0.3
-0.265
-0.27
-0.3
-0.24
-0.225
-0.2
-0.24
-0.22
-0.2
-0.185
-0.145
-0.105
-0.115
-0.08
-0.035
0.05
0.025
0.035
-0.005
-0.025
-0.075
-0.035
-0.03
-0.105
-0.155
-0.065
-0.11
-0.12
-0.115
-0.185
-0.22
-0.155
-0.14
-0.12
-0.165
-0.105
-0.08
-0.1
-0.16
-0.095
-0.03
-0.025
-0.015
0.085
0.125
0.215
0.175
0.04
-0.03
-0.05
-0.095
-0.115
-0.16
-0.145
-0.165
-0.11
-0.145
-0.16
-0.19
0.085
0.67
1.71
2.385
1.155
-0.5
-0.695
-0.43
-0.29
-0.275
-0.235
-0.215
-0.145
-0.17
-0.125
-0.205
-0.225
-0.115
-0.025
-0.08
-0.08
-0.075
-0.03
-0.015
-0.005
0.045
0.12
0.125
0.175
0.145
0.16
0.155
0.13
0.065
0.04
0.02
0.0
-0.055
-0.01
-0.015
-0.035
-0.03
0.015
-0.02
0.05
-0.01
-0.045
0.03
0.06
0.035
0.045
0.05
0.11
0.165
0.235
0.245
0.36
0.34
0.26
0.17
0.045
0.03
0.025
-0.025
0.03
-0.005
-0.02
0.01
0.085
0.015
0.185
0.835
2.065
2.615
1.16
-0.415
-0.55
-0.29
-0.105
-0.145
-0.085
-0.005
0.02
-0.015
0.01
-0.015
0.015
0.02
0.055
0.115
0.18
0.155
0.21
0.205
0.195
0.29
0.355
0.295
0.35
0.355
0.33
0.335
0.315
0.215
0.24
0.19
0.16
0.13
0.13
0.105
0.155
0.135
0.125
0.135
0.165
0.13
0.115
0.085
0.13
0.155
0.21
0.225
0.215
0.225
0.375
0.41
0.38
0.305
0.295
0.125
0.07
0.095
0.08
0.015
0.035
0.035
0.045
0.045
0.11
0.375
1.115
2.395
2.575
0.775
-0.585
-0.495
-0.215
-0.14
-0.07
-0.015
0.005
-0.015
0.005
-0.035
-0.01
0.015
0.035
0.015
0.05
0.035
0.055
0.095
0.19
0.15
0.165
0.175
0.185
0.25
0.31
0.205
0.21
0.225
0.18
0.055
0.055
0.07
0.09
0.02
0.015
-0.005
0.005
-0.01
0.005
0.025
0.025
-0.03
0.01
0.025
0.075
0.1
0.11
0.135
0.24
0.255
0.275
0.2
0.14
0.11
0.025
-0.12
-0.1
-0.055
-0.045
-0.08
-0.065
-0.085
-0.11
0.045
0.615
1.61
2.515
1.545
-0.275
-0.805
-0.475
-0.285
-0.275
-0.21
-0.135
-0.155
-0.17
-0.195
-0.135
-0.125
-0.125
-0.13
-0.115
-0.11
-0.05
-0.065
-0.01
0.06
0.09
0.025
0.08
0.115
0.135
0.13
0.105
0.075
0.075
-0.02
-0.045
-0.07
-0.065
-0.06
-0.045
-0.085
-0.03
-0.055
-0.125
-0.15
-0.12
-0.125
-0.07
-0.105
-0.105
-0.08
-0.05
-0.05
0.035
0.115
0.2
0.175
0.11
0.035
-0.05
-0.105
-0.1
-0.17
-0.145
-0.13
-0.135
-0.145
-0.165
-0.255
-0.135
0.315
1.16
2.265
1.98
0.07
-0.93
-0.75
-0.42
-0.315
-0.27
-0.29
-0.23
-0.25
-0.255
-0.235
-0.215
-0.27
-0.19
-0.165
-0.185
-0.17
-0.115
-0.1
-0.025
-0.02
-0.015
-0.025
0.07
0.085
0.085
0.055
0.03
0.0
-0.02
-0.07
-0.07
-0.135
-0.135
-0.13
-0.095
-0.145
-0.125
-0.17
-0.16
-0.125
-0.115
-0.155
-0.11
-0.115
-0.09
-0.065
-0.04
0.0
0.065
0.135
0.205
0.105
0.085
0.025
-0.03
-0.095
-0.105
-0.17
-0.155
-0.135
-0.145
-0.175
-0.15
-0.145
0.22
0.87
1.985
2.245
0.635
-0.75
-0.665
-0.385
-0.25
-0.22
-0.145
-0.18
-0.2
-0.165
-0.12
-0.12
-0.08
-0.08
-0.08
-0.035
-0.02
-0.035
0.025
0.095
0.12
0.16
0.19
0.18
0.26
0.24
0.25
0.22
0.175
0.11
0.125
0.115
0.09
0.09
0.085
-0.005
-0.005
0.015
0.065
0.025
0.04
0.05
0.075
0.045
0.045
0.025
0.12
0.195
0.205
0.2
0.31
0.34
0.365
0.33
0.265
0.205
0.195
0.06
0.035
-0.015
0.02
0.065
0.065
0.045
0.01
0.125
0.665
1.525
2.49
1.87
0.08
-0.625
-0.365
-0.15
-0.08
-0.025
0.015
-0.045
-0.025
0.02
0.06
0.03
0.04
0.055
0.08
0.11
0.145
0.105
0.155
0.185
0.255
0.305
0.31
0.285
0.39
0.375
0.35
0.325
0.24
0.155
0.135
0.13
0.215
0.175
0.125
0.12
0.12
0.085
0.105
0.1
0.135
0.105
0.13
0.175
0.185
0.15
0.175
0.24
0.29
0.325
0.395
0.4
0.405
0.285
0.2
0.11
0.14
0.105
0.05
0.035
0.07
0.065
0.075
0.015
0.06
0.365
1.07
2.285
2.51
0.725
-0.615
-0.565
-0.24
-0.08
-0.07
-0.07
0.0
-0.005
-0.025
-0.01
0.03
0.045
0.095
0.06
0.04
0.015
0.105
0.145
0.16
0.195
0.25
0.26
0.265
0.29
0.32
0.255
0.315
0.3
0.205
0.105
0.13
0.11
0.12
0.095
0.08
0.055
0.115
0.08
0.055
0.08
0.095
0.03
0.05
0.04
0.08
0.12
0.23
0.19
0.17
0.235
0.305
0.35
0.335
0.215
0.15
0.07
0.05
0.045
0.03
-0.025
-0.01
0.005
0.025
0.01
0.06
0.41
1.22
2.45
2.405
0.475
-0.78
-0.585
-0.21
-0.13
-0.095
-0.03
-0.015
-0.11
-0.07
-0.035
-0.005
-0.025
-0.005
0.0
0.055
0.07
0.085
0.115
0.175
0.15
0.19
0.205
0.25
0.31
0.335
0.245
0.23
0.195
0.195
0.1
0.045
0.055
0.08
0.045
0.06
0.05
0.08
0.085
0.095
-0.025
-0.075
-0.04
0.005
0.015
0.045
0.075
0.135
0.115
0.095
0.06
0.175
0.265
0.34
0.355
0.39
0.36
0.41
0.435
0.43
0.36
0.285
0.19
0.165
0.13
0.115
0.08
0.12
0.485
1.49
2.905
2.66
0.355
-0.82
-0.485
-0.165
-0.135
-0.09
-0.07
-0.04
-0.045
0.005
-0.02
-0.045
-0.02
0.035
0.015
0.07
0.035
0.045
0.095
0.155
0.175
0.18
0.25
0.335
0.255
0.27
0.285
0.24
0.21
0.215
0.165
0.11
0.12
0.15
0.135
0.11
0.04
0.015
-0.035
0.01
0.06
0.025
-0.02
0.095
0.2
0.155
0.025
0.0
0.045
0.09
0.115
0.245
0.31
0.345
0.205
0.08
0.075
0.1
0.02
0.005
-0.02
0.015
0.02
0.055
-0.025
-0.12
-0.025
0.4
1.095
2.3
2.16
0.3
-0.785
-0.56
-0.24
-0.15
-0.165
-0.155
-0.125
-0.12
-0.11
-0.03
-0.03
-0.005
0.03
0.04
0.015
-0.015
-0.105
-0.095
0.015
0.13
0.13
0.16
0.13
0.18
0.175
0.145
0.105
0.05
-0.04
-0.01
0.02
0.025
-0.07
-0.115
-0.12
-0.07
-0.09
-0.1
-0.13
-0.055
0.005
-0.025
-0.135
-0.08
-0.065
-0.045
-0.01
-0.005
0.005
0.005
0.155
0.25
0.12
0.105
0.105
0.055
-0.135
-0.13
-0.135
-0.145
-0.095
-0.115
-0.18
-0.085
-0.14
-0.14
0.245
0.9
1.885
1.985
0.295
-0.835
-0.66
-0.4
-0.285
-0.185
-0.215
-0.2
-0.155
-0.155
-0.14
-0.14
-0.125
-0.08
-0.165
-0.135
-0.08
-0.065
-0.05
-0.025
0.005
0.05
0.055
0.095
0.04
0.085
0.045
0.015
-0.02
-0.015
-0.01
0.01
-0.1
-0.15
-0.11
-0.13
-0.175
-0.105
-0.11
-0.11
-0.07
-0.02
-0.06
-0.065
-0.025
-0.03
-0.085
-0.03
0.0
-0.015
0.085
0.185
0.185
0.13
0.08
0.025
-0.105
-0.09
-0.155
-0.19
-0.195
-0.115
-0.11
-0.125
-0.195
-0.16
0.155
0.795
1.89
1.99
0.29
-0.835
-0.715
-0.43
-0.345
-0.265
-0.245
-0.295
-0.27
-0.22
-0.26
-0.25
-0.255
-0.205
-0.16
-0.175
-0.2
-0.135
-0.125
-0.115
-0.12
-0.06
-0.03
-0.03
-0.06
-0.055
-0.015
0.065
0.005
-0.055
-0.1
-0.155
-0.155
-0.13
-0.17
-0.185
-0.17
-0.125
-0.115
-0.095
-0.105
-0.1
-0.145
-0.16
-0.155
-0.08
-0.05
-0.025
-0.025
-0.02
0.025
0.15
0.18
0.085
0.01
0.005
-0.075
-0.205
-0.22
-0.16
-0.21
-0.15
-0.155
-0.115
-0.175
-0.225
0.17
0.965
2.05
1.98
0.21
-0.875
-0.78
-0.51
-0.37
-0.28
-0.27
-0.255
-0.24
-0.22
-0.23
-0.24
-0.225
-0.195
-0.205
-0.215
-0.18
-0.13
-0.08
-0.095
-0.12
-0.015
-0.015
-0.04
-0.005
0.015
-0.015
-0.055
-0.07
-0.02
-0.08
-0.125
-0.13
-0.135
-0.155
-0.15
-0.145
-0.17
-0.17
-0.11
-0.13
-0.14
-0.165
-0.13
-0.08
-0.08
-0.07
-0.07
-0.09
0.015
0.135
0.155
0.1
0.045
-0.025
-0.11
-0.175
-0.15
-0.2
-0.215
-0.195
-0.225
-0.24
-0.215
-0.255
0.02
0.575
1.57
2.14
0.87
-0.65
-0.83
-0.56
-0.395
-0.385
-0.33
-0.325
-0.31
-0.3
-0.26
-0.215
-0.255
-0.315
-0.27
-0.24
-0.22
-0.195
-0.155
-0.14
-0.135
-0.095
-0.08
-0.08
-0.075
-0.055
0.0
0.02
-0.015
-0.17
-0.185
-0.175
-0.185
-0.19
-0.205
-0.225
-0.2
-0.17
-0.2
-0.255
-0.22
-0.205
-0.19
-0.19
-0.15
-0.145
-0.155
-0.125
-0.085
-0.07
0.035
0.085
0.065
-0.04
-0.11
-0.17
-0.23
-0.255
-0.255
-0.26
-0.29
-0.305
-0.255
-0.285
-0.37
-0.13
0.485
1.59
2.265
0.855
-0.775
-0.91
-0.62
-0.49
-0.435
-0.415
-0.375
-0.36
-0.375
-0.375
-0.315
-0.325
-0.335
-0.285
-0.255
-0.28
-0.265
-0.235
-0.205
-0.165
-0.155
-0.155
-0.155
-0.15
-0.095
-0.05
-0.085
-0.165
-0.135
-0.18
-0.235
-0.23
-0.255
-0.28
-0.275
-0.305
-0.24
-0.265
-0.27
-0.205
-0.23
-0.27
-0.27
-0.245
-0.205
-0.185
-0.165
-0.155
-0.08
0.02
0.035
-0.04
-0.045
-0.11
-0.185
-0.245
-0.28
-0.275
-0.28
-0.315
-0.325
-0.305
-0.29
-0.345
-0.24
0.26
1.295
2.335
1.5
-0.435
-1.01
-0.745
-0.525
-0.45
-0.42
-0.37
-0.315
-0.345
-0.39
-0.365
-0.33
-0.28
-0.275
-0.335
-0.31
-0.25
-0.24
-0.235
-0.165
-0.13
-0.12
-0.135
-0.12
-0.07
-0.02
-0.07
-0.12
-0.1
-0.12
-0.165
-0.205
-0.205
-0.21
-0.195
-0.155
-0.2
-0.255
-0.25
-0.215
-0.22
-0.205
-0.2
-0.205
-0.18
-0.115
-0.11
-0.11
-0.07
0.0
0.065
0.095
0.06
-0.06
-0.15
-0.175
-0.215
-0.255
-0.235
-0.21
-0.24
-0.27
-0.27
-0.275
-0.3
-0.015
0.725
2.01
2.255
0.435
-0.93
-0.81
-0.495
-0.435
-0.36
-0.33
-0.36
-0.33
-0.305
-0.28
-0.28
-0.31
-0.285
-0.23
-0.225
-0.22
-0.2
-0.2
-0.17
-0.105
-0.135
-0.15
-0.11
-0.07
-0.035
-0.025
-0.025
-0.07
-0.145
-0.16
-0.17
-0.15
-0.165
-0.205
-0.22
-0.21
-0.19
-0.19
-0.195
-0.225
-0.225
-0.19
-0.145
-0.16
-0.17
-0.17
-0.125
-0.105
-0.105
-0.055
0.05
0.1
0.03
-0.03
-0.055
-0.14
-0.195
-0.205
-0.27
-0.25
-0.245
-0.305
-0.25
-0.205
-0.31
-0.18
0.385
1.5
2.375
1.245
-0.615
-0.965
-0.625
-0.46
-0.38
-0.37
-0.345
-0.32
-0.325
-0.315
-0.275
-0.31
-0.325
-0.29
-0.27
-0.225
-0.205
-0.19
-0.19
-0.185
-0.165
-0.125
-0.145
-0.135
-0.07
-0.035
-0.03
-0.075
-0.095
-0.125
-0.17
-0.185
-0.185
-0.175
-0.175
-0.165
-0.185
-0.185
-0.175
-0.17
-0.14
-0.19
-0.205
-0.145
-0.115
-0.145
-0.12
-0.07
-0.075
-0.045
0.025
0.065
0.04
-0.01
-0.035
-0.11
-0.175
-0.22
-0.185
-0.21
-0.255
-0.225
-0.205
-0.23
-0.31
-0.235
0.195
0.955
2.02
1.635
-0.165
-1.02
-0.745
-0.445
-0.365
-0.315
-0.315
-0.34
-0.305
-0.24
-0.225
-0.28
-0.235
-0.215
-0.235
-0.215
-0.185
-0.135
-0.125
-0.15
-0.13
-0.125
-0.085
-0.09
-0.09
-0.05
-0.01
-0.035
-0.075
-0.095
-0.14
-0.175
-0.155
-0.16
-0.165
-0.185
-0.2
-0.185
-0.145
-0.115
-0.155
-0.145
-0.155
-0.19
-0.165
-0.175
-0.12
-0.065
-0.08
-0.08
-0.015
0.055
0.035
0.005
-0.03
-0.11
-0.135
-0.18
-0.235
-0.265
-0.23
-0.215
-0.26
-0.235
-0.265
-0.255
0.1
0.815
1.865
1.65
-0.11
-1.04
-0.775
-0.5
-0.395
-0.345
-0.33
-0.365
-0.345
-0.31
-0.29
-0.27
-0.27
-0.265
-0.225
-0.215
-0.225
-0.19
-0.17
-0.185
-0.125
-0.105
-0.14
-0.105
-0.075
-0.09
-0.065
-0.06
-0.08
-0.115
-0.115
-0.145
-0.2
-0.2
-0.155
-0.185
-0.18
-0.2
-0.19
-0.15
-0.145
-0.15
-0.14
-0.145
-0.13
-0.165
-0.11
-0.075
-0.125
-0.045
0.07
0.095
0.04
-0.005
-0.075
-0.14
-0.18
-0.235
-0.235
-0.215
-0.255
-0.255
-0.215
-0.26
-0.31
-0.23
0.175
0.99
1.945
1.365
-0.385
-1.015
-0.715
-0.49
-0.42
-0.335
-0.31
-0.28
-0.275
-0.295
-0.305
-0.28
-0.255
-0.235
-0.19
-0.195
-0.215
-0.165
-0.145
-0.18
-0.12
-0.115
-0.13
-0.08
-0.08
-0.075
-0.02
-0.065
-0.075
-0.105
-0.135
-0.125
-0.15
-0.16
-0.165
-0.2
-0.165
-0.155
-0.15
-0.145
-0.14
-0.145
-0.15
-0.145
-0.135
-0.14
-0.115
-0.085
-0.045
-0.015
0.035
0.085
0.075
0.005
-0.055
-0.135
-0.165
-0.185
-0.2
-0.225
-0.225
-0.24
-0.185
-0.19
-0.285
-0.21
0.22
1.055
1.955
1.24
-0.515
-1.015
-0.69
-0.405
-0.355
-0.355
-0.295
-0.295
-0.27
-0.29
-0.315
-0.28
-0.24
-0.235
-0.2
-0.19
-0.205
-0.155
-0.11
-0.165
-0.185
-0.16
-0.11
-0.095
-0.09
-0.06
-0.045
-0.035
-0.03
-0.135
-0.165
-0.15
-0.165
-0.145
-0.135
-0.14
-0.13
-0.165
-0.18
-0.165
-0.13
-0.135
-0.13
-0.13
-0.13
-0.095
-0.065
-0.065
-0.095
-0.035
0.045
0.075
0.06
-0.03
-0.09
-0.185
-0.195
-0.22
-0.23
-0.24
-0.24
-0.23
-0.21
-0.24
-0.325
-0.045
0.58
1.62
1.84
0.245
-0.965
-0.845
-0.555
-0.435
-0.375
-0.345
-0.31
-0.295
-0.285
-0.24
-0.225
-0.255
-0.25
-0.265
-0.23
-0.21
-0.195
-0.145
-0.13
-0.125
-0.105
-0.135
-0.17
-0.125
-0.07
-0.04
-0.045
-0.02
-0.035
-0.1
-0.15
-0.17
-0.145
-0.18
-0.185
-0.15
-0.105
-0.08
-0.16
-0.185
-0.11
-0.135
-0.15
-0.105
-0.08
-0.075
-0.05
-0.045
-0.01
0.07
0.115
0.08
0.025
-0.055
-0.135
-0.165
-0.185
-0.14
-0.17
-0.24
-0.215
-0.18
-0.185
-0.265
-0.12
0.425
1.42
1.995
0.775
-0.73
-0.905
-0.595
-0.4
-0.34
-0.305
-0.31
-0.27
-0.23
-0.235
-0.23
-0.23
-0.215
-0.2
-0.205
-0.165
-0.14
-0.155
-0.135
-0.08
-0.055
-0.06
-0.11
-0.11
-0.015
0.02
0.005
-0.01
-0.025
-0.055
-0.075
-0.105
-0.11
-0.105
-0.115
-0.12
-0.095
-0.11
-0.115
-0.055
-0.06
-0.105
-0.09
-0.08
-0.075
-0.035
-0.03
-0.045
0.005
0.09
0.16
0.11
0.02
-0.01
-0.025
-0.09
-0.165
-0.15
-0.15
-0.195
-0.215
-0.21
-0.145
-0.21
-0.095
0.425
1.205
1.8
0.92
-0.545
-0.885
-0.62
-0.385
-0.315
-0.285
-0.235
-0.26
-0.305
-0.275
-0.205
-0.15
-0.17
-0.145
-0.145
-0.145
-0.135
-0.135
-0.125
-0.12
-0.07
-0.04
-0.01
0.0
-0.07
0.02
0.035
-0.04
-0.08
-0.08
-0.095
-0.115
-0.09
-0.055
-0.115
-0.125
-0.09
-0.09
-0.085
-0.1
-0.11
-0.065
-0.08
-0.09
-0.035
0.015
-0.03
-0.02
0.055
0.13
0.18
0.115
0.005
-0.035
-0.025
-0.14
-0.205
-0.16
-0.185
-0.185
-0.165
-0.18
-0.225
-0.115
0.29
1.015
1.7
1.045
-0.435
-0.915
-0.63
-0.385
-0.365
-0.325
-0.27
-0.24
-0.25
-0.24
-0.19
-0.175
-0.23
-0.165
-0.12
-0.15
-0.145
-0.07
-0.055
-0.065
-0.04
-0.045
-0.045
0.03
0.025
0.025
0.01
0.0
-0.045
-0.05
-0.05
-0.12
-0.18
-0.17
-0.115
-0.09
-0.08
-0.07
-0.075
-0.075
-0.1
-0.11
-0.05
-0.035
-0.095
-0.08
-0.02
-0.005
0.045
0.17
0.19
0.105
0.02
-0.025
-0.09
-0.135
-0.16
-0.18
-0.185
-0.135
-0.125
-0.205
-0.25
-0.135
0.285
0.99
1.67
1.08
-0.355
-0.925
-0.705
-0.385
-0.325
-0.31
-0.285
-0.27
-0.27
-0.26
-0.245
-0.22
-0.195
-0.145
-0.195
-0.205
-0.155
-0.115
-0.08
-0.11
-0.11
-0.04
-0.02
-0.025
-0.06
-0.075
-0.025
-0.005
-0.05
-0.075
-0.08
-0.165
-0.195
-0.155
-0.11
-0.135
-0.145
-0.095
-0.125
-0.14
-0.115
-0.105
-0.105
-0.075
-0.085
-0.045
-0.03
-0.01
0.05
0.095
0.12
0.07
-0.005
-0.065
-0.125
-0.16
-0.165
-0.17
-0.22
-0.24
-0.205
-0.21
-0.26
-0.135
0.285
1.1
2.0
1.36
-0.28
-0.905
-0.73
-0.48
-0.39
-0.315
-0.285
-0.26
-0.295
-0.275
-0.215
-0.24
-0.255
-0.195
-0.215
-0.215
-0.18
-0.155
-0.125
-0.16
-0.155
-0.09
-0.1
-0.14
-0.095
-0.065
-0.07
0.015
-0.005
-0.105
-0.155
-0.17
-0.155
-0.115
-0.135
-0.17
-0.15
-0.12
-0.135
-0.14
-0.125
-0.11
-0.145
-0.095
-0.055
-0.045
-0.025
-0.015
0.035
0.08
0.14
0.11
0.015
-0.05
-0.185
-0.24
-0.185
-0.225
-0.21
-0.21
-0.215
-0.185
-0.25
-0.255
0.18
1.005
1.95
1.575
-0.095
-0.935
-0.76
-0.5
-0.38
-0.35
-0.355
-0.32
-0.315
-0.315
-0.285
-0.265
-0.265
-0.28
-0.275
-0.23
-0.19
-0.18
-0.185
-0.195
-0.165
-0.145
-0.185
-0.135
-0.08
-0.045
-0.05
-0.115
-0.11
-0.075
-0.165
-0.19
-0.15
-0.14
-0.175
-0.205
-0.215
-0.25
-0.205
-0.17
-0.165
-0.09
-0.075
-0.175
-0.19
-0.085
-0.065
-0.045
-0.025
0.055
0.13
0.155
0.03
-0.13
-0.16
-0.125
-0.19
-0.175
-0.19
-0.24
-0.215
-0.21
-0.19
-0.225
-0.045
0.48
1.41
2.03
0.87
-0.615
-0.865
-0.6
-0.37
-0.35
-0.305
-0.24
-0.27
-0.255
-0.245
-0.295
-0.285
-0.24
-0.205
-0.2
-0.195
-0.145
-0.12
-0.125
-0.07
-0.01
-0.07
-0.115
-0.005
0.05
0.01
-0.015
-0.02
0.005
-0.045
-0.115
-0.07
-0.08
-0.18
-0.15
-0.115
-0.115
-0.125
-0.09
-0.08
-0.05
-0.005
-0.08
-0.15
-0.12
-0.03
-0.01
-0.03
0.005
0.13
0.27
0.215
0.13
0.03
-0.025
-0.02
-0.065
-0.125
-0.115
-0.085
-0.095
-0.07
-0.125
-0.205
-0.115
0.35
1.04
2.01
1.875
0.2
-0.74
-0.6
-0.33
-0.215
-0.23
-0.215
-0.17
-0.19
-0.13
-0.135
-0.145
-0.08
-0.105
-0.13
-0.095
-0.045
-0.025
-0.03
0.035
0.07
0.09
0.13
0.175
0.195
0.175
0.16
0.115
0.06
0.04
-0.025
-0.05
-0.05
-0.045
-0.035
-0.05
-0.015
0.04
-0.02
-0.04
-0.04
-0.025
0.06
0.06
-0.045
-0.085
-0.015
0.015
0.025
0.085
0.19
0.285
0.33
0.23
0.05
0.005
0.015
-0.045
-0.07
-0.065
-0.16
-0.075
0.035
-0.075
-0.24
-0.065
0.39
1.255
2.31
1.68
-0.125
-0.9
-0.645
-0.245
-0.2
-0.32
-0.29
-0.165
-0.165
-0.125
-0.105
-0.095
-0.06
-0.075
-0.22
-0.215
-0.115
-0.04
0.005
0.025
0.135
0.2
0.155
0.13
0.15
0.16
0.175
0.22
0.215
0.165
0.155
0.155
0.135
0.03
-0.025
0.01
0.005
0.035
0.06
0.08
0.08
0.08
0.065
0.075
0.125
0.16
0.155
0.155
0.225
0.31
0.42
0.535
0.595
0.585
0.515
0.39
0.24
0.115
0.015
-0.005
-0.02
-0.035
-0.1
-0.2
-0.285
-0.27
0.11
0.84
2.0
1.99
0.115
-1.165
-1.075
-0.79
-0.69
-0.62
-0.59
-0.55
-0.47
-0.36
-0.31
-0.33
-0.315
-0.28
-0.325
-0.265
-0.225
-0.235
-0.175
-0.09
-0.095
-0.11
-0.055
-0.015
0.02
0.035
-0.005
-0.07
-0.055
-0.01
-0.045
-0.12
-0.11
-0.135
-0.11
-0.135
-0.19
-0.17
-0.125
-0.13
-0.135
-0.125
-0.165
-0.165
-0.12
-0.15
-0.19
-0.08
-0.01
-0.025
-0.01
0.12
0.275
0.265
0.1
0.05
0.02
-0.04
-0.03
-0.055
-0.07
-0.04
-0.03
-0.065
-0.065
-0.05
-0.005
0.445
1.305
2.375
1.985
0.285
-0.58
-0.465
-0.255
-0.16
-0.06
-0.03
-0.065
-0.1
-0.05
0.025
0.025
-0.005
0.015
0.055
0.09
0.13
0.09
0.1
0.175
0.32
0.345
0.305
0.41
0.455
0.435
0.43
0.375
0.345
0.26
0.22
0.24
0.26
0.25
0.2
0.24
0.265
0.205
0.225
0.145
0.155
0.27
0.24
0.25
0.24
0.2
0.25
0.285
0.355
0.375
0.35
0.405
0.475
0.545
0.54
0.485
0.425
0.38
0.355
0.28
0.26
0.355
0.34
0.295
0.335
0.295
0.27
0.435
0.885
1.735
2.785
2.395
0.535
-0.265
-0.055
0.075
0.235
0.285
0.345
0.355
0.315
0.34
0.295
0.305
0.37
0.4
0.375
0.425
0.47
0.465
0.54
0.635
0.625
0.655
0.765
0.735
0.735
0.735
0.69
0.695
0.69
0.595
0.56
0.57
0.53
0.55
0.49
0.475
0.54
0.485
0.46
0.465
0.47
0.56
0.535
0.43
0.435
0.475
0.535
0.505
0.53
0.56
0.525
0.615
0.715
0.72
0.7
0.645
0.625
0.555
0.44
0.455
0.47
0.385
0.39
0.445
0.435
0.435
0.385
0.615
1.235
2.325
3.025
1.78
0.135
-0.185
0.07
0.265
0.245
0.23
0.25
0.305
0.34
0.335
0.305
0.315
0.365
0.35
0.325
0.355
0.405
0.44
0.47
0.51
0.575
0.625
0.65
0.665
0.675
0.665
0.59
0.515
0.47
0.415
0.41
0.4
0.39
0.405
0.375
0.335
0.325
0.31
0.28
0.295
0.285
0.285
0.29
0.275
0.265
0.275
0.275
0.295
0.335
0.35
0.34
0.38
0.425
0.495
0.435
0.35
0.305
0.225
0.17
0.135
0.1
0.135
0.14
0.015
-0.035
0.01
-0.015
-0.01
0.395
1.145
2.335
2.585
0.83
-0.605
-0.505
-0.24
-0.24
-0.13
-0.02
0.075
0.14
0.09
0.07
0.17
0.335
0.315
0.19
0.165
0.18
0.175
0.13
0.195
0.265
0.21
0.16
0.195
0.31
0.315
0.215
0.17
0.29
0.115
0.035
0.07
0.035
0.03
0.04
-0.095
-0.185
-0.225
-0.235
-0.325
-0.34
-0.36
-0.32
-0.37
-0.445
-0.365
-0.325
-0.45
-0.425
-0.38
-0.32
-0.215
-0.08
-0.13
-0.085
-0.125
-0.265
-0.34
-0.29
-0.275
-0.255
-0.28
-0.31
-0.32
-0.33
-0.33
-0.34
-0.22
0.365
1.415
2.265
1.315
-0.495
-1.275
-1.225
-0.98
-0.805
-0.685
-0.645
-0.65
-0.665
-0.7
-0.67
-0.63
-0.56
-0.595
-0.6
-0.52
-0.505
-0.52
-0.52
-0.495
-0.41
-0.36
-0.335
-0.325
-0.265
-0.27
-0.175
-0.215
-0.515
-0.71
-0.53
-0.355
-0.34
-0.28
-0.015
-0.045
-0.34
-0.385
-0.38
-0.47
-0.41
-0.365
-0.255
-0.275
-0.445
-0.55
-0.45
-0.31
-0.17
-0.125
-0.01
0.01
0.145
0.14
-0.195
-0.38
-0.4
-0.375
-0.24
-0.25
-0.235
-0.325
-0.4
-0.39
-0.4
-0.435
-0.3
0.37
1.67
2.47
1.425
-0.455
-0.94
-0.79
-0.715
-0.565
-0.42
-0.525
-0.56
-0.575
-0.57
-0.58
-0.56
-0.585
-0.59
-0.55
-0.405
-0.47
-0.57
-0.545
-0.505
-0.495
-0.34
-0.3
-0.26
-0.26
-0.16
-0.155
-0.1
-0.15
-0.31
-0.38
-0.34
-0.32
-0.26
-0.29
-0.275
-0.23
-0.15
-0.085
-0.13
-0.17
-0.125
-0.23
-0.4
-0.34
-0.2
-0.245
-0.285
-0.255
-0.285
-0.255
-0.14
-0.155
-0.325
-0.335
-0.33
-0.445
-0.535
-0.52
-0.485
-0.425
-0.345
-0.33
-0.34
-0.335
0.015
0.695
1.925
2.425
0.765
-0.785
-0.86
-0.565
-0.43
-0.465
-0.45
-0.38
-0.39
-0.43
-0.41
-0.325
-0.25
-0.28
-0.385
-0.385
-0.315
-0.27
-0.28
-0.26
-0.185
-0.115
-0.075
-0.065
-0.04
-0.005
0.02
-0.065
-0.17
-0.2
-0.23
-0.265
-0.295
-0.335
-0.33
-0.325
-0.34
-0.35
-0.335
-0.365
-0.405
-0.355
-0.365
-0.395
-0.345
-0.265
-0.3
-0.33
-0.24
-0.145
-0.09
-0.13
-0.175
-0.175
-0.235
-0.33
-0.4
-0.4
-0.355
-0.385
-0.425
-0.4
-0.41
-0.46
-0.175
0.655
2.025
2.615
0.96
-0.84
-1.04
-0.795
-0.685
-0.625
-0.49
-0.42
-0.435
-0.485
-0.49
-0.475
-0.515
-0.535
-0.495
-0.495
-0.465
-0.415
-0.38
-0.35
-0.315
-0.325
-0.24
-0.145
-0.095
-0.09
-0.14
-0.185
-0.225
-0.285
-0.325
-0.275
-0.245
-0.185
-0.185
-0.315
-0.345
-0.28
-0.25
-0.34
-0.375
-0.32
-0.295
-0.26
-0.24
-0.22
-0.19
-0.22
-0.125
-0.06
-0.125
-0.155
-0.17
-0.21
-0.24
-0.305
-0.365
-0.39
-0.38
-0.345
-0.34
-0.34
-0.155
0.495
1.665
2.495
1.595
-0.115
-1.05
-1.14
-0.79
-0.73
-0.705
-0.645
-0.615
-0.595
-0.575
-0.605
-0.585
-0.52
-0.525
-0.585
-0.585
-0.575
-0.535
-0.465
-0.395
-0.385
-0.33
-0.27
-0.23
-0.235
-0.215
-0.22
-0.26
-0.295
-0.325
-0.37
-0.38
-0.365
-0.355
-0.39
-0.395
-0.435
-0.47
-0.51
-0.5
-0.465
-0.455
-0.455
-0.455
-0.465
-0.395
-0.27
-0.275
-0.345
-0.265
-0.295
-0.555
-0.715
-0.695
-0.595
-0.545
-0.265
-0.045
-0.575
-1.05
-0.795
-0.015
1.155
2.23
1.305
-0.71
-1.31
-1.06
-0.845
-0.72
-0.705
-0.715
-0.655
-0.62
-0.635
-0.65
-0.635
-0.56
-0.545
-0.545
-0.5
-0.505
-0.47
-0.43
-0.39
-0.38
-0.36
-0.275
-0.215
-0.2
-0.235
-0.215
-0.24
-0.31
-0.25
-0.305
-0.465
-0.44
-0.43
-0.41
-0.415
-0.425
-0.42
-0.485
-0.46
-0.39
-0.315
-0.2
-0.275
-0.165
-0.035
-0.15
-0.305
-0.425
-0.43
-0.355
-0.365
-0.385
-0.385
-0.355
-0.405
-0.435
-0.375
-0.42
-0.25
0.4
1.55
2.52
1.375
-0.57
-1.025
-0.795
-0.625
-0.55
-0.485
-0.45
-0.435
-0.425
-0.405
-0.39
-0.385
-0.365
-0.365
-0.345
-0.33
-0.325
-0.305
-0.245
-0.215
-0.175
-0.09
-0.025
-0.055
-0.065
-0.075
-0.1
-0.16
-0.205
-0.215
-0.245
-0.31
-0.31
-0.31
-0.32
-0.35
-0.325
-0.315
-0.315
-0.325
-0.305
-0.285
-0.27
-0.25
-0.14
-0.045
-0.035
-0.055
-0.125
-0.275
-0.345
-0.35
-0.33
-0.335
-0.335
-0.345
-0.305
-0.32
-0.44
-0.285
0.42
1.635
2.715
1.55
-0.535
-1.015
-0.725
-0.56
-0.51
-0.475
-0.435
-0.43
-0.43
-0.44
-0.43
-0.415
-0.38
-0.395
-0.38
-0.375
-0.325
-0.32
-0.29
-0.275
-0.205
-0.17
-0.15
-0.15
-0.115
-0.11
-0.14
-0.19
-0.215
-0.275
-0.31
-0.33
-0.325
-0.345
-0.35
-0.365
-0.38
-0.405
-0.4
-0.4
-0.355
-0.35
-0.32
-0.265
-0.18
-0.155
-0.15
-0.2
-0.24
-0.325
-0.375
-0.42
-0.415
-0.435
-0.415
-0.435
-0.43
-0.455
-0.43
-0.11
0.695
2.075
2.455
0.53
-1.04
-1.01
-0.715
-0.625
-0.565
-0.55
-0.535
-0.535
-0.51
-0.52
-0.5
-0.49
-0.465
-0.49
-0.485
-0.455
-0.395
-0.39
-0.365
-0.35
-0.31
-0.28
-0.215
-0.19
-0.175
-0.215
-0.225
-0.265
-0.3
-0.365
-0.385
-0.385
-0.37
-0.415
-0.41
-0.425
-0.44
-0.485
-0.485
-0.44
-0.415
-0.4
-0.345
-0.28
-0.18
-0.19
-0.22
-0.28
-0.325
-0.43
-0.425
-0.43
-0.515
-0.545
-0.485
-0.5
-0.495
-0.53
-0.31
0.33
1.495
2.36
1.2
-0.675
-1.065
-0.805
-0.63
-0.595
-0.525
-0.515
-0.525
-0.485
-0.41
-0.465
-0.495
-0.475
-0.425
-0.425
-0.36
-0.37
-0.36
-0.325
-0.245
-0.225
-0.17
-0.135
-0.08
-0.075
-0.08
-0.12
-0.15
-0.195
-0.195
-0.225
-0.24
-0.305
-0.32
-0.305
-0.24
-0.27
-0.345
-0.385
-0.285
-0.26
-0.24
-0.205
-0.125
-0.07
-0.03
-0.045
-0.095
-0.145
-0.185
-0.315
-0.29
-0.255
-0.28
-0.295
-0.305
-0.315
-0.335
-0.215
0.285
1.215
2.46
1.97
-0.025
-0.895
-0.685
-0.515
-0.47
-0.4
-0.295
-0.265
-0.24
-0.265
-0.295
-0.3
-0.24
-0.24
-0.215
-0.205
-0.205
-0.19
-0.145
-0.09
-0.01
0.035
0.09
0.13
0.165
0.14
0.115
0.045
-0.01
-0.055
-0.08
-0.115
-0.095
-0.12
-0.165
-0.17
-0.14
-0.145
-0.115
-0.11
-0.14
-0.15
-0.095
-0.01
0.12
0.175
0.16
0.09
0.05
-0.04
-0.105
-0.12
-0.145
-0.19
-0.185
-0.18
-0.165
-0.17
-0.195
-0.02
0.595
1.775
2.785
1.615
-0.35
-0.79
-0.57
-0.42
-0.325
-0.295
-0.25
-0.23
-0.225
-0.23
-0.2
-0.22
-0.23
-0.23
-0.2
-0.205
-0.175
-0.17
-0.115
-0.07
-0.04
-0.03
-0.005
0.02
0.055
0.045
0.015
-0.035
-0.065
-0.11
-0.135
-0.17
-0.175
-0.185
-0.19
-0.21
-0.205
-0.225
-0.235
-0.24
-0.195
-0.185
-0.16
-0.1
0.005
0.04
0.03
-0.02
-0.065
-0.155
-0.22
-0.26
-0.27
-0.285
-0.29
-0.285
-0.275
-0.29
-0.33
-0.175
0.455
1.615
2.645
1.535
-0.485
-0.965
-0.695
-0.515
-0.425
-0.4
-0.37
-0.385
-0.365
-0.365
-0.36
-0.37
-0.35
-0.345
-0.325
-0.32
-0.295
-0.275
-0.24
-0.225
-0.17
-0.14
-0.11
-0.075
-0.045
-0.065
-0.105
-0.16
-0.18
-0.21
-0.23
-0.255
-0.275
-0.305
-0.315
-0.325
-0.315
-0.33
-0.335
-0.345
-0.315
-0.285
-0.255
-0.215
-0.11
-0.035
-0.03
-0.08
-0.125
-0.185
-0.265
-0.32
-0.33
-0.35
-0.34
-0.35
-0.345
-0.35
-0.34
-0.37
-0.1
0.57
1.88
2.56
0.97
-0.78
-0.91
-0.62
-0.505
-0.465
-0.425
-0.4
-0.39
-0.395
-0.385
-0.385
-0.37
-0.365
-0.345
-0.33
-0.32
-0.31
-0.285
-0.265
-0.225
-0.195
-0.15
-0.125
-0.08
-0.07
-0.07
-0.105
-0.135
-0.175
-0.2
-0.24
-0.255
-0.275
-0.29
-0.31
-0.295
-0.305
-0.325
-0.34
-0.34
-0.325
-0.29
-0.275
-0.255
-0.175
-0.06
-0.025
-0.05
-0.1
-0.165
-0.24
-0.285
-0.315
-0.34
-0.35
-0.35
-0.355
-0.35
-0.355
-0.385
-0.305
0.14
1.025
2.315
2.03
0.04
-0.945
-0.74
-0.53
-0.47
-0.435
-0.41
-0.405
-0.39
-0.385
-0.375
-0.36
-0.35
-0.355
-0.345
-0.33
-0.315
-0.305
-0.285
-0.255
-0.23
-0.2
-0.165
-0.13
-0.105
-0.09
-0.08
-0.11
-0.14
-0.17
-0.195
-0.215
-0.22
-0.245
-0.265
-0.28
-0.29
-0.3
-0.305
-0.3
-0.3
-0.29
-0.235
-0.2
-0.19
-0.14
-0.035
0.05
0.045
-0.02
-0.075
-0.15
-0.225
-0.255
-0.265
-0.27
-0.285
-0.3
-0.29
-0.285
-0.29
-0.33
-0.07
0.59
1.85
2.425
0.885
-0.68
-0.79
-0.555
-0.46
-0.415
-0.39
-0.375
-0.365
-0.365
-0.34
-0.33
-0.33
-0.335
-0.335
-0.32
-0.295
-0.29
-0.275
-0.265
-0.235
-0.2
-0.19
-0.18
-0.165
-0.115
-0.1
-0.11
-0.14
-0.15
-0.165
-0.195
-0.215
-0.225
-0.25
-0.255
-0.275
-0.29
-0.285
-0.285
-0.28
-0.275
-0.28
-0.24
-0.18
-0.175
-0.16
-0.08
0.01
0.035
-0.005
-0.05
-0.115
-0.205
-0.24
-0.265
-0.265
-0.275
-0.29
-0.29
-0.275
-0.27
-0.325
-0.21
0.25
1.16
2.29
1.765
-0.085
-0.805
-0.64
-0.48
-0.42
-0.385
-0.375
-0.37
-0.36
-0.345
-0.345
-0.33
-0.325
-0.325
-0.32
-0.31
-0.29
-0.275
-0.27
-0.25
-0.24
-0.21
-0.205
-0.165
-0.14
-0.115
-0.1
-0.11
-0.14
-0.16
-0.19
-0.22
-0.24
-0.24
-0.26
-0.26
-0.27
-0.26
-0.255
-0.24
-0.235
-0.235
-0.225
-0.21
-0.17
-0.15
-0.145
-0.105
-0.01
0.075
0.06
0.005
-0.055
-0.135
-0.215
-0.25
-0.27
-0.285
-0.285
-0.275
-0.285
-0.27
-0.295
-0.295
-0.02
0.635
1.85
2.295
0.74
-0.645
-0.7
-0.49
-0.415
-0.365
-0.35
-0.325
-0.33
-0.31
-0.305
-0.305
-0.305
-0.29
-0.28
-0.26
-0.26
-0.245
-0.255
-0.23
-0.23
-0.215
-0.215
-0.2
-0.18
-0.125
-0.095
-0.085
-0.09
-0.115
-0.14
-0.155
-0.17
-0.195
-0.215
-0.23
-0.24
-0.225
-0.22
-0.215
-0.205
-0.185
-0.19
-0.165
-0.175
-0.155
-0.13
-0.105
-0.11
-0.03
0.055
0.1
0.08
0.035
-0.035
-0.12
-0.185
-0.2
-0.215
-0.215
-0.215
-0.225
-0.225
-0.215
-0.255
-0.2
0.185
0.97
2.165
2.025
0.27
-0.7
-0.605
-0.415
-0.38
-0.33
-0.315
-0.29
-0.295
-0.28
-0.27
-0.26
-0.265
-0.25
-0.24
-0.235
-0.235
-0.22
-0.215
-0.205
-0.215
-0.21
-0.21
-0.185
-0.14
-0.095
-0.085
-0.08
-0.105
-0.11
-0.125
-0.145
-0.165
-0.17
-0.19
-0.18
-0.195
-0.185
-0.195
-0.17
-0.165
-0.15
-0.16
-0.15
-0.165
-0.145
-0.12
-0.085
-0.095
-0.065
0.015
0.125
0.115
0.055
-0.02
-0.095
-0.175
-0.195
-0.215
-0.215
-0.23
-0.235
-0.24
-0.23
-0.25
-0.275
-0.055
0.565
1.71
2.295
0.925
-0.5
-0.645
-0.465
-0.395
-0.345
-0.335
-0.32
-0.315
-0.295
-0.295
-0.29
-0.285
-0.27
-0.275
-0.26
-0.265
-0.245
-0.25
-0.24
-0.24
-0.235
-0.24
-0.23
-0.22
-0.175
-0.135
-0.11
-0.12
-0.13
-0.15
-0.165
-0.19
-0.19
-0.21
-0.225
-0.235
-0.22
-0.21
-0.205
-0.205
-0.19
-0.19
-0.175
-0.17
-0.16
-0.175
-0.14
-0.125
-0.11
-0.105
0.0
0.085
0.105
0.04
-0.005
-0.09
-0.155
-0.215
-0.215
-0.225
-0.215
-0.22
-0.215
-0.235
-0.23
-0.28
-0.075
0.475
1.6
2.255
1.045
-0.43
-0.645
-0.485
-0.38
-0.34
-0.315
-0.33
-0.295
-0.285
-0.27
-0.265
-0.235
-0.24
-0.23
-0.21
-0.185
-0.185
-0.175
-0.18
-0.16
-0.215
-0.25
-0.235
-0.17
-0.13
-0.085
-0.085
-0.075
-0.08
-0.12
-0.17
-0.185
-0.21
-0.205
-0.205
-0.16
-0.165
-0.21
-0.21
-0.17
-0.2
-0.19
-0.2
-0.155
-0.115
-0.135
-0.195
-0.155
-0.18
-0.12
-0.03
0.02
0.03
0.05
-0.005
-0.09
-0.15
-0.215
-0.275
-0.24
-0.255
-0.245
-0.25
-0.225
-0.255
-0.3
-0.075
0.535
1.58
2.015
0.755
-0.525
-0.685
-0.5
-0.425
-0.325
-0.31
-0.325
-0.325
-0.27
-0.275
-0.235
-0.21
-0.175
-0.17
-0.18
-0.205
-0.175
-0.14
-0.075
-0.12
-0.1
-0.08
-0.115
-0.07
0.055
0.105
0.095
0.115
0.12
0.015
-0.06
-0.07
-0.035
0.005
-0.005
-0.075
-0.055
-0.025
-0.045
-0.04
-0.01
-0.01
0.065
0.08
0.015
-0.04
-0.005
0.015
0.015
0.08
0.21
0.205
0.18
0.135
0.05
-0.05
-0.1
-0.075
-0.045
-0.165
-0.185
-0.145
-0.13
-0.14
-0.19
0.005
0.585
1.725
2.425
1.235
-0.2
-0.495
-0.39
-0.33
-0.28
-0.24
-0.21
-0.225
-0.22
-0.24
-0.19
-0.18
-0.19
-0.205
-0.18
-0.18
-0.105
-0.09
-0.165
-0.24
-0.275
-0.265
-0.225
-0.215
-0.13
0.0
0.055
0.0
-0.05
-0.12
-0.13
-0.145
-0.075
0.035
0.05
-0.1
-0.195
-0.215
-0.105
-0.065
-0.065
-0.065
-0.025
0.01
-0.045
-0.07
0.035
0.18
0.235
0.14
0.095
0.04
-0.035
-0.04
-0.045
-0.12
-0.125
-0.19
-0.235
-0.24
-0.235
-0.285
-0.225
0.165
0.885
1.99
1.875
0.295
-0.595
-0.65
-0.53
-0.405
-0.355
-0.385
-0.32
-0.425
-0.57
-0.57
-0.495
-0.475
-0.45
-0.465
-0.465
-0.495
-0.5
-0.55
-0.645
-0.72
-0.76
-0.815
-0.845
-0.865
-0.845
-0.87
-0.88
-0.875
-0.78
-0.585
-0.365
-0.37
-0.375
-0.4
-0.485
-0.555
-0.625
-0.735
-0.71
-0.66
-0.59
-0.51
-0.405
-0.38
-0.305
-0.305
-0.245
-0.08
0.14
0.315
0.42
0.48
0.555
0.605
0.675
0.65
0.495
0.365
0.28
0.155
0.19
0.535
1.305
2.465
2.535
1.13
0.265
0.275
0.365
0.34
0.33
0.29
0.265
0.18
0.14
0.095
0.115
0.095
0.035
0.005
-0.03
-0.1
-0.115
-0.21
-0.305
-0.395
-0.43
-0.415
-0.335
-0.295
-0.29
-0.25
-0.135
-0.08
-0.03
-0.035
-0.08
-0.185
-0.18
-0.215
-0.215
-0.23
-0.185
-0.21
-0.205
-0.195
-0.17
-0.115
-0.095
-0.06
0.04
0.075
0.11
0.06
-0.05
-0.17
-0.215
-0.245
-0.26
-0.295
-0.315
-0.29
-0.235
-0.26
-0.315
-0.29
0.055
0.67
1.565
1.37
-0.005
-0.825
-0.8
-0.63
-0.45
-0.4
-0.345
-0.29
-0.245
-0.22
-0.185
-0.195
-0.2
-0.215
-0.17
-0.155
-0.14
-0.105
-0.07
-0.08
-0.04
-0.06
-0.07
-0.055
-0.005
-0.005
0.005
-0.015
-0.035
-0.09
-0.09
-0.115
-0.1
-0.08
-0.05
-0.05
-0.03
-0.025
-0.035
-0.04
0.03
0.125
0.15
0.09
0.145
0.255
0.33
0.285
0.24
0.105
-0.025
-0.115
-0.04
-0.06
-0.05
-0.05
-0.085
-0.08
-0.075
-0.15
0.155
0.75
1.805
2.07
0.57
-0.57
-0.525
-0.435
-0.295
-0.205
-0.145
-0.145
-0.095
-0.115
-0.085
-0.065
-0.04
-0.075
-0.055
-0.015
0.0
-0.04
0.005
0.04
0.07
0.075
0.135
0.115
0.085
0.115
0.175
0.125
0.105
0.095
0.055
-0.04
-0.055
-0.02
0.03
0.015
0.015
0.03
0.08
0.04
0.08
0.085
0.145
0.195
0.28
0.31
0.355
0.285
0.23
0.15
0.1
0.045
0.005
-0.09
-0.12
-0.07
0.06
0.14
0.14
0.22
0.705
1.63
2.745
2.165
0.34
-0.43
-0.395
-0.295
-0.205
-0.14
-0.06
-0.105
-0.115
-0.06
0.06
0.105
0.135
0.095
0.08
0.08
0.12
0.09
0.09
0.105
0.115
0.085
0.135
0.125
0.11
0.085
0.085
0.055
0.045
-0.005
-0.01
-0.065
-0.08
-0.105
-0.075
-0.09
-0.08
-0.045
-0.025
-0.025
0.02
0.04
0.08
0.105
0.225
0.215
0.205
0.15
0.025
-0.08
-0.14
-0.195
-0.21
-0.205
-0.17
-0.21
-0.2
-0.235
-0.205
0.175
0.95
2.125
2.21
0.535
-0.595
-0.605
-0.435
-0.355
-0.265
-0.275
-0.26
-0.225
-0.175
-0.17
-0.17
-0.17
-0.165
-0.18
-0.095
-0.115
-0.14
-0.175
-0.17
-0.19
-0.15
-0.165
-0.135
-0.135
-0.13
-0.15
-0.15
-0.15
-0.165
-0.195
-0.17
-0.195
-0.175
-0.165
-0.17
-0.18
-0.185
-0.165
-0.06
0.065
0.2
0.2
0.175
0.2
0.2
0.14
0.065
-0.075
-0.16
-0.255
-0.27
-0.275
-0.25
-0.29
-0.285
-0.315
-0.295
-0.34
-0.045
0.635
1.845
2.375
0.905
-0.655
-0.86
-0.69
-0.535
-0.51
-0.515
-0.52
-0.52
-0.53
-0.35
-0.125
0.1
0.17
0.18
0.145
0.115
0.035
-0.04
-0.055
-0.08
-0.12
-0.05
-0.08
-0.13
-0.1
-0.055
-0.105
-0.08
-0.09
-0.115
-0.17
-0.145
-0.18
-0.19
-0.21
-0.195
-0.21
-0.16
-0.185
-0.16
-0.095
-0.065
-0.035
0.03
0.06
0.125
0.08
-0.005
-0.135
-0.205
-0.25
-0.225
-0.23
-0.215
-0.175
-0.195
-0.24
-0.29
-0.165
0.355
1.315
2.315
1.525
-0.16
-0.735
-0.58
-0.44
-0.41
-0.365
-0.3
-0.295
-0.315
-0.315
-0.25
-0.265
-0.25
-0.26
-0.23
-0.215
-0.185
-0.165
-0.14
-0.13
-0.08
-0.08
-0.035
-0.03
0.015
0.045
0.09
0.045
0.01
-0.06
-0.06
-0.03
-0.055
-0.11
-0.125
-0.08
-0.035
-0.075
-0.11
-0.1
0.01
0.055
0.12
0.13
0.2
0.26
0.27
0.195
0.095
0.005
-0.015
-0.035
-0.005
-0.085
-0.105
-0.065
0.01
-0.005
-0.065
0.205
0.95
2.2
2.565
0.87
-0.54
-0.535
-0.275
-0.215
-0.19
-0.11
-0.05
-0.13
-0.11
-0.035
0.025
0.015
-0.05
-0.05
0.035
0.075
0.105
0.06
0.085
0.155
0.21
0.215
0.225
0.265
0.28
0.25
0.21
0.195
0.215
0.14
0.155
0.155
0.15
0.15
0.14
0.08
0.09
0.095
0.165
0.19
0.15
0.205
0.235
0.32
0.455
0.435
0.415
0.405
0.325
0.24
0.165
0.095
0.155
0.14
0.185
0.155
0.11
0.09
0.15
0.565
1.395
2.63
2.575
0.68
-0.505
-0.36
-0.14
-0.04
0.055
0.11
0.125
0.1
0.145
0.17
0.165
0.15
0.19
0.175
0.2
0.215
0.22
0.25
0.315
0.345
0.35
0.4
0.43
0.405
0.425
0.405
0.375
0.355
0.305
0.27
0.25
0.23
0.225
0.185
0.185
0.23
0.24
0.195
0.175
0.17
0.215
0.27
0.31
0.365
0.435
0.465
0.45
0.435
0.35
0.225
0.145
0.13
0.145
0.145
0.13
0.115
0.1
0.08
0.11
0.475
1.24
2.605
2.875
0.99
-0.44
-0.405
-0.19
-0.095
-0.045
0.005
0.05
0.045
0.05
0.045
0.055
0.085
0.1
0.12
0.135
0.12
0.13
0.175
0.205
0.21
0.25
0.28
0.285
0.33
0.36
0.325
0.27
0.23
0.22
0.205
0.195
0.19
0.165
0.13
0.115
0.105
0.09
0.085
0.11
0.13
0.08
0.09
0.145
0.16
0.24
0.315
0.355
0.365
0.36
0.345
0.335
0.345
0.365
0.325
0.325
0.325
0.375
0.435
0.465
0.42
0.635
1.295
2.465
3.035
1.48
-0.21
-0.395
-0.16
0.02
0.02
-0.105
-0.105
-0.08
-0.08
-0.065
-0.055
-0.065
-0.09
-0.025
0.045
-0.005
0.01
0.065
-0.005
-0.005
0.065
0.115
0.165
0.205
0.22
0.19
0.16
0.14
0.085
0.055
0.035
0.015
0.015
0.01
0.01
-0.005
-0.05
-0.09
-0.095
-0.095
-0.09
-0.055
-0.01
0.01
0.03
0.095
0.17
0.195
0.15
0.1
0.03
-0.085
-0.115
-0.12
-0.125
-0.12
-0.12
-0.13
-0.135
-0.175
-0.13
0.295
1.165
2.47
2.275
0.285
-0.81
-0.65
-0.435
-0.375
-0.33
-0.305
-0.295
-0.315
-0.325
-0.315
-0.285
-0.29
-0.27
-0.26
-0.25
-0.26
-0.195
-0.065
-0.1
-0.115
-0.075
-0.14
-0.08
-0.04
-0.045
-0.065
-0.075
-0.085
-0.065
-0.09
-0.055
0.025
-0.11
-0.29
-0.35
-0.335
-0.295
-0.29
-0.32
-0.305
-0.295
-0.24
-0.185
-0.165
-0.135
-0.065
0.025
0.04
0.005
-0.065
-0.145
-0.24
-0.3
-0.305
-0.285
-0.295
-0.295
-0.31
-0.3
-0.355
-0.24
0.235
1.145
2.265
1.78
-0.09
-0.895
-0.71
-0.48
-0.46
-0.48
-0.475
-0.475
-0.475
-0.48
-0.465
-0.435
-0.46
-0.455
-0.465
-0.455
-0.42
-0.385
-0.38
-0.33
-0.33
-0.32
-0.25
-0.185
-0.14
-0.105
-0.19
-0.195
-0.17
-0.165
-0.17
-0.155
-0.215
-0.33
-0.33
-0.305
-0.38
-0.345
-0.185
-0.1
-0.145
-0.075
-0.1
-0.285
-0.405
-0.34
-0.21
-0.09
-0.06
0.035
0.325
0.1
-0.455
-0.515
-0.455
-0.41
-0.405
-0.385
-0.375
-0.385
-0.44
-0.345
0.1
0.955
2.03
1.63
-0.08
-0.775
-0.515
-0.43
-0.575
-0.535
-0.465
-0.42
-0.39
-0.375
-0.37
-0.335
-0.265
-0.125
0.125
-0.075
-0.535
-0.525
-0.385
-0.185
-0.225
-0.31
-0.15
-0.1
-0.07
-0.07
-0.17
-0.055
-0.03
-0.145
0.28
0.125
-0.61
-0.56
-0.4
-0.385
-0.355
-0.335
-0.32
-0.28
-0.27
-0.24
-0.22
-0.19
-0.185
-0.155
-0.04
0.065
0.07
0.025
-0.085
-0.23
-0.275
-0.295
-0.305
-0.315
-0.27
-0.23
-0.24
-0.325
-0.47
-0.325
0.23
1.275
2.315
1.51
-0.315
-0.86
-0.685
-0.545
-0.505
-0.47
-0.44
-0.4
-0.38
-0.38
-0.385
-0.39
-0.41
-0.395
-0.395
-0.375
-0.355
-0.325
-0.31
-0.3
-0.27
-0.225
-0.175
-0.12
-0.09
-0.065
-0.08
-0.13
-0.15
-0.165
-0.19
-0.21
-0.225
-0.225
-0.235
-0.245
-0.24
-0.235
-0.23
-0.24
-0.24
-0.2
-0.17
-0.145
-0.095
0.005
0.08
0.095
0.055
0.015
-0.075
-0.155
-0.195
-0.195
-0.205
-0.215
-0.215
-0.215
-0.225
-0.275
-0.125
0.415
1.465
2.405
1.475
-0.265
-0.73
-0.535
-0.39
-0.335
-0.31
-0.29
-0.285
-0.27
-0.26
-0.255
-0.255
-0.255
-0.255
-0.225
-0.22
-0.21
-0.195
-0.165
-0.15
-0.14
-0.115
-0.07
-0.045
-0.015
-0.01
-0.035
-0.065
-0.09
-0.115
-0.12
-0.145
-0.145
-0.16
-0.17
-0.185
-0.2
-0.2
-0.19
-0.185
-0.2
-0.185
-0.145
-0.13
-0.08
0.025
0.105
0.12
0.08
0.02
-0.045
-0.11
-0.16
-0.19
-0.195
-0.19
-0.19
-0.2
-0.19
-0.215
-0.2
0.135
0.85
2.11
2.295
0.525
-0.66
-0.565
-0.35
-0.335
-0.305
-0.305
-0.285
-0.265
-0.265
-0.235
-0.23
-0.255
-0.24
-0.235
-0.255
-0.25
-0.23
-0.185
-0.15
-0.15
-0.145
-0.145
-0.095
-0.02
0.04
0.025
-0.025
-0.065
-0.065
-0.05
-0.06
-0.11
-0.125
-0.145
-0.145
-0.14
-0.125
-0.13
-0.15
-0.13
-0.11
-0.1
-0.06
-0.055
-0.005
0.135
0.185
0.165
0.165
0.125
0.01
-0.09
-0.125
-0.125
-0.095
-0.13
-0.16
-0.135
-0.125
-0.18
-0.17
0.2
0.905
2.05
2.15
0.49
-0.64
-0.54
-0.34
-0.26
-0.215
-0.22
-0.21
-0.185
-0.17
-0.195
-0.19
-0.14
-0.105
-0.12
-0.115
-0.11
-0.065
-0.04
-0.015
0.02
0.055
0.055
0.06
0.095
0.15
0.16
0.125
0.09
0.05
0.005
-0.02
-0.02
-0.025
-0.01
-0.035
-0.04
-0.04
-0.025
0.005
0.005
-0.015
0.03
0.09
0.095
0.095
0.16
0.29
0.33
0.27
0.2
0.14
0.055
0.015
0.01
0.015
-0.005
-0.025
-0.025
-0.01
-0.025
-0.07
0.145
0.7
1.745
2.45
1.27
-0.255
-0.495
-0.31
-0.19
-0.135
-0.105
-0.09
-0.07
-0.06
-0.05
-0.055
-0.045
-0.03
-0.02
-0.005
0.015
0.035
0.045
0.055
0.08
0.095
0.12
0.14
0.175
0.195
0.2
0.185
0.17
0.145
0.1
0.045
0.03
0.03
0.015
0.0
-0.015
0.0
0.02
0.035
0.05
0.04
0.04
0.045
0.085
0.13
0.13
0.16
0.255
0.33
0.32
0.26
0.21
0.135
0.055
0.01
0.01
0.01
-0.005
-0.005
-0.01
-0.03
-0.025
-0.005
0.315
1.01
2.215
2.395
0.72
-0.54
-0.495
-0.26
-0.165
-0.1
-0.065
-0.06
-0.065
-0.075
-0.06
-0.03
-0.03
-0.02
-0.005
-0.005
0.015
0.03
0.055
0.065
0.08
0.085
0.115
0.135
0.17
0.18
0.19
0.17
0.145
0.11
0.09
0.065
0.045
0.03
0.025
0.02
0.015
0.01
0.005
0.0
0.01
0.02
0.03
0.05
0.08
0.115
0.11
0.11
0.175
0.265
0.32
0.285
0.225
0.155
0.065
0.01
-0.015
-0.02
-0.015
-0.04
-0.045
-0.04
-0.025
-0.075
0.01
0.425
1.26
2.39
2.005
0.215
-0.605
-0.455
-0.24
-0.195
-0.155
-0.15
-0.13
-0.115
-0.1
-0.105
-0.11
-0.12
-0.095
-0.085
-0.08
-0.065
-0.045
-0.045
-0.03
-0.005
0.01
0.025
0.035
0.065
0.09
0.085
0.07
0.035
0.0
-0.01
-0.03
-0.055
-0.065
-0.075
-0.08
-0.105
-0.1
-0.08
-0.08
-0.08
-0.07
-0.06
-0.055
-0.05
-0.04
-0.01
0.005
0.005
0.095
0.175
0.2
0.165
0.115
0.05
-0.03
-0.095
-0.11
-0.115
-0.13
-0.14
-0.135
-0.145
-0.125
-0.165
-0.08
0.335
1.16
2.255
1.85
0.115
-0.655
-0.51
-0.325
-0.285
-0.255
-0.23
-0.205
-0.2
-0.205
-0.2
-0.19
-0.185
-0.165
-0.145
-0.14
-0.15
-0.135
-0.135
-0.105
-0.095
-0.08
-0.08
-0.055
-0.025
-0.005
0.005
-0.015
-0.035
-0.025
-0.065
-0.08
-0.09
-0.105
-0.14
-0.15
-0.155
-0.155
-0.155
-0.14
-0.14
-0.13
-0.125
-0.115
-0.105
-0.095
-0.07
-0.035
-0.045
-0.045
0.04
0.15
0.175
0.135
0.08
-0.01
-0.085
-0.12
-0.15
-0.16
-0.175
-0.165
-0.16
-0.16
-0.17
-0.215
-0.085
0.395
1.3
2.24
1.52
-0.13
-0.65
-0.485
-0.325
-0.28
-0.26
-0.24
-0.24
-0.225
-0.215
-0.205
-0.195
-0.185
-0.185
-0.165
-0.155
-0.15
-0.16
-0.14
-0.13
-0.125
-0.095
-0.07
-0.06
-0.04
-0.025
0.0
-0.015
-0.04
-0.07
-0.09
-0.08
-0.11
-0.14
-0.135
-0.135
-0.125
-0.12
-0.12
-0.11
-0.115
-0.115
-0.09
-0.08
-0.08
-0.085
-0.07
-0.08
-0.045
-0.025
-0.025
-0.015
0.08
0.185
0.205
0.135
0.085
-0.005
-0.08
-0.125
-0.135
-0.14
-0.135
-0.155
-0.15
-0.14
-0.135
-0.155
0.07
0.635
1.73
2.215
0.89
-0.475
-0.59
-0.395
-0.275
-0.255
-0.225
-0.215
-0.2
-0.195
-0.185
-0.185
-0.18
-0.19
-0.17
-0.145
-0.13
-0.125
-0.125
-0.12
-0.11
-0.09
-0.07
-0.065
-0.04
-0.025
-0.01
0.0
-0.005
-0.01
-0.035
-0.055
-0.075
-0.09
-0.095
-0.12
-0.125
-0.125
-0.11
-0.115
-0.105
-0.1
-0.095
-0.095
-0.08
-0.085
-0.08
-0.085
-0.075
-0.075
-0.04
-0.04
-0.04
0.03
0.125
0.18
0.165
0.11
0.045
-0.05
-0.115
-0.14
-0.14
-0.16
-0.155
-0.165
-0.135
-0.14
-0.17
-0.15
0.205
0.88
1.975
1.95
0.35
-0.65
-0.565
-0.365
-0.315
-0.28
-0.26
-0.255
-0.235
-0.23
-0.23
-0.225
-0.21
-0.21
-0.185
-0.18
-0.17
-0.17
-0.165
-0.165
-0.145
-0.135
-0.13
-0.12
-0.09
-0.045
-0.015
-0.03
-0.045
-0.08
-0.105
-0.12
-0.13
-0.16
-0.16
-0.175
-0.165
-0.165
-0.165
-0.155
-0.135
-0.135
-0.115
-0.12
-0.12
-0.12
-0.105
-0.11
-0.1
-0.12
-0.095
-0.065
-0.06
-0.06
0.03
0.11
0.135
0.095
0.05
-0.025
-0.11
-0.165
-0.17
-0.185
-0.18
-0.19
-0.195
-0.195
-0.195
-0.25
-0.11
0.345
1.175
2.085
1.46
-0.13
-0.65
-0.505
-0.355
-0.335
-0.305
-0.295
-0.265
-0.255
-0.25
-0.24
-0.24
-0.25
-0.235
-0.23
-0.195
-0.19
-0.185
-0.18
-0.2
-0.19
-0.165
-0.15
-0.12
-0.095
-0.05
-0.04
-0.06
-0.08
-0.105
-0.125
-0.12
-0.14
-0.14
-0.155
-0.165
-0.175
-0.165
-0.17
-0.155
-0.145
-0.13
-0.145
-0.13
-0.13
-0.12
-0.115
-0.115
-0.135
-0.145
-0.115
-0.09
-0.08
-0.055
0.025
0.115
0.135
0.105
0.03
-0.05
-0.13
-0.155
-0.175
-0.175
-0.18
-0.165
-0.145
-0.165
-0.185
-0.205
-0.055
0.41
1.225
2.01
1.265
-0.17
-0.635
-0.53
-0.355
-0.285
-0.245
-0.24
-0.265
-0.245
-0.205
-0.195
-0.205
-0.185
-0.175
-0.175
-0.16
-0.125
-0.1
-0.1
-0.115
-0.09
-0.06
-0.025
-0.03
-0.005
0.02
0.035
0.0
-0.01
-0.035
-0.06
-0.085
-0.095
-0.095
-0.095
-0.115
-0.11
-0.08
-0.07
-0.055
-0.035
-0.025
-0.03
-0.035
-0.015
-0.025
-0.03
-0.03
-0.03
-0.015
0.025
0.045
0.025
0.045
0.165
0.25
0.245
0.175
0.1
0.04
-0.01
-0.03
-0.06
-0.11
-0.1
-0.08
-0.035
-0.015
-0.045
-0.095
0.245
0.86
1.89
2.105
0.61
-0.575
-0.545
-0.355
-0.195
-0.18
-0.18
-0.155
-0.13
-0.135
-0.115
-0.12
-0.105
-0.105
-0.08
-0.065
-0.025
0.005
0.035
0.05
0.1
0.105
0.09
0.095
0.125
0.135
0.165
0.155
0.125
0.08
0.04
0.045
0.035
0.005
-0.015
-0.025
-0.005
-0.005
0.025
0.025
0.025
0.015
0.035
0.045
0.06
0.045
0.045
0.035
0.035
0.025
0.04
0.06
0.075
0.075
0.155
0.235
0.265
0.225
0.185
0.105
0.03
-0.025
-0.035
-0.055
-0.05
-0.05
-0.045
-0.055
-0.045
-0.105
0.065
0.615
1.605
2.385
1.39
-0.215
-0.605
-0.455
-0.295
-0.24
-0.205
-0.185
-0.16
-0.15
-0.145
-0.145
-0.15
-0.135
-0.115
-0.115
-0.105
-0.11
-0.09
-0.065
-0.04
-0.04
-0.025
-0.015
0.02
0.035
0.06
0.035
0.03
0.01
-0.005
-0.04
-0.055
-0.07
-0.085
-0.1
-0.095
-0.095
-0.115
-0.125
-0.11
-0.1
-0.075
-0.06
-0.065
-0.07
-0.06
-0.09
-0.095
-0.085
-0.075
-0.06
-0.045
-0.045
-0.005
0.1
0.195
0.175
0.125
0.06
-0.005
-0.075
-0.105
-0.12
-0.125
-0.125
-0.13
-0.14
-0.135
-0.155
-0.135
0.195
0.87
2.09
2.33
0.65
-0.65
-0.63
-0.405
-0.345
-0.285
-0.25
-0.23
-0.23
-0.235
-0.23
-0.22
-0.23
-0.21
-0.215
-0.205
-0.21
-0.175
-0.165
-0.135
-0.125
-0.095
-0.09
-0.065
-0.045
-0.01
-0.005
-0.025
-0.035
-0.055
-0.08
-0.08
-0.095
-0.11
-0.125
-0.13
-0.155
-0.155
-0.16
-0.145
-0.15
-0.145
-0.13
-0.125
-0.115
-0.095
-0.085
-0.075
-0.08
-0.085
-0.075
-0.01
0.005
0.005
0.045
0.135
0.195
0.185
0.15
0.11
0.015
-0.04
-0.08
-0.095
-0.095
-0.065
-0.08
-0.08
-0.095
-0.105
-0.105
0.24
0.88
2.09
2.395
0.795
-0.535
-0.54
-0.3
-0.25
-0.195
-0.12
-0.15
-0.175
-0.19
-0.16
-0.14
-0.115
-0.12
-0.115
-0.11
-0.095
-0.105
-0.065
-0.055
-0.055
0.005
0.05
0.02
0.055
0.125
0.165
0.12
0.065
0.025
0.045
0.015
0.015
-0.015
-0.01
-0.02
-0.045
-0.04
-0.025
-0.055
-0.06
-0.07
-0.045
-0.02
-0.02
-0.025
-0.005
-0.01
0.07
0.08
0.09
0.065
0.105
0.205
0.265
0.295
0.29
0.17
0.115
0.035
-0.005
0.01
0.015
-0.015
-0.025
0.0
0.01
-0.02
-0.04
0.225
0.825
1.89
2.35
0.91
-0.42
-0.495
-0.34
-0.19
-0.1
-0.135
-0.105
-0.075
-0.045
-0.03
-0.045
-0.055
0.0
-0.025
0.015
0.055
0.035
0.035
0.095
0.14
0.205
0.215
0.24
0.21
0.26
0.27
0.21
0.15
0.14
0.145
0.125
0.08
0.09
0.08
0.085
0.055
0.08
0.05
0.08
0.095
0.12
0.095
0.08
0.145
0.19
0.16
0.165
0.165
0.2
0.26
0.335
0.365
0.415
0.35
0.21
0.12
0.09
0.045
0.05
0.065
0.07
0.08
0.095
0.035
-0.035
0.095
0.59
1.455
2.535
2.08
0.305
-0.56
-0.425
-0.23
-0.145
-0.075
-0.05
-0.045
-0.025
0.0
0.0
-0.015
0.01
0.015
0.005
-0.005
0.05
0.1
0.115
0.125
0.165
0.195
0.23
0.23
0.22
0.225
0.25
0.205
0.155
0.115
0.095
0.05
0.005
-0.01
0.05
0.02
-0.025
-0.035
-0.03
-0.04
-0.005
-0.025
-0.015
-0.005
0.035
0.03
0.025
0.095
0.13
0.13
0.285
0.385
0.325
0.175
0.13
0.105
0.01
-0.095
-0.09
-0.1
-0.145
-0.105
0.025
0.06
0.1
0.09
0.33
1.055
2.41
2.815
1.015
-0.505
-0.535
-0.355
-0.2
-0.11
-0.065
-0.055
-0.02
-0.035
-0.1
-0.125
-0.045
-0.055
-0.055
-0.04
-0.055
-0.045
-0.025
-0.11
0.0
0.125
0.165
0.195
0.24
0.215
0.275
0.29
0.255
0.165
0.095
0.025
0.015
-0.01
-0.02
-0.05
-0.055
-0.09
-0.09
-0.075
-0.065
-0.075
-0.05
-0.055
-0.055
-0.025
-0.02
-0.035
0.015
0.105
0.23
0.29
0.325
0.265
0.21
0.13
0.105
0.07
0.05
0.055
0.075
0.07
0.115
0.115
0.16
0.215
0.66
1.515
2.945
3.165
1.335
-0.035
-0.01
0.195
0.315
0.335
0.405
0.51
0.56
0.55
0.6
0.635
0.68
0.73
0.765
0.765
0.85
0.955
1.135
1.4
1.735
2.11
2.445
2.74
3.205
3.485
3.35
2.975
2.5
1.955
1.58
1.335
1.145
0.89
0.705
0.535
0.405
0.36
0.295
0.155
0.09
0.08
-0.04
-0.105
-0.06
-0.075
-0.055
-0.015
-0.025
-0.03
0.07
0.12
0.075
0.01
-0.015
-0.11
-0.185
-0.24
-0.275
-0.315
-0.35
-0.33
-0.345
-0.355
-0.37
-0.325
0.075
0.855
2.115
2.11
0.24
-0.975
-0.865
-0.665
-0.585
-0.525
-0.48
-0.48
-0.48
-0.495
-0.465
-0.395
-0.415
-0.42
-0.345
-0.385
-0.395
-0.38
-0.355
-0.265
-0.205
-0.14
-0.1
-0.11
-0.115
-0.065
-0.055
-0.105
-0.185
-0.28
-0.245
-0.225
-0.26
-0.28
-0.27
-0.255
-0.29
-0.29
-0.23
-0.225
-0.225
-0.27
-0.325
-0.295
-0.24
-0.24
-0.265
-0.295
-0.265
-0.175
-0.065
0.055
0.08
0.03
-0.04
-0.125
-0.165
-0.19
-0.265
-0.315
-0.245
-0.255
-0.295
-0.295
-0.29
-0.39
-0.165
0.45
1.435
2.335
1.45
-0.38
-0.96
-0.75
-0.57
-0.51
-0.49
-0.535
-0.465
-0.395
-0.455
-0.495
-0.495
-0.465
-0.39
-0.48
-0.495
-0.44
-0.435
-0.4
-0.345
-0.315
-0.25
-0.28
-0.28
-0.185
-0.185
-0.21
-0.295
-0.325
-0.345
-0.415
-0.43
-0.435
-0.425
-0.38
-0.37
-0.46
-0.51
-0.51
-0.465
-0.535
-0.54
-0.515
-0.51
-0.47
-0.47
-0.45
-0.43
-0.385
-0.345
-0.305
-0.245
-0.24
-0.22
-0.22
-0.345
-0.48
-0.485
-0.465
-0.465
-0.495
-0.515
-0.55
-0.5
-0.535
-0.55
-0.2
0.49
1.865
2.44
0.695
-0.965
-1.055
-0.745
-0.71
-0.675
-0.68
-0.63
-0.605
-0.615
-0.615
-0.67
-0.705
-0.685
-0.645
-0.7
-0.665
-0.63
-0.68
-0.6
-0.56
-0.57
-0.475
-0.415
-0.375
-0.325
-0.345
-0.33
-0.34
-0.425
-0.44
-0.415
-0.47
-0.47
-0.465
-0.525
-0.54
-0.545
-0.535
-0.55
-0.56
-0.54
-0.59
-0.63
-0.655
-0.62
-0.575
-0.55
-0.525
-0.495
-0.41
-0.305
-0.32
-0.345
-0.33
-0.405
-0.53
-0.56
-0.6
-0.64
-0.635
-0.61
-0.65
-0.615
-0.575
-0.67
-0.585
-0.03
1.075
2.43
1.785
-0.385
-1.205
-0.945
-0.795
-0.79
-0.78
-0.75
-0.735
-0.72
-0.75
-0.745
-0.725
-0.68
-0.695
-0.735
-0.71
-0.705
-0.7
-0.65
-0.62
-0.575
-0.51
-0.46
-0.435
-0.38
-0.375
-0.405
-0.48
-0.52
-0.52
-0.535
-0.56
-0.575
-0.605
-0.605
-0.6
-0.605
-0.635
-0.64
-0.67
-0.68
-0.66
-0.655
-0.715
-0.72
-0.705
-0.69
-0.695
-0.665
-0.585
-0.53
-0.545
-0.505
-0.44
-0.4
-0.445
-0.455
-0.465
-0.515
-0.585
-0.63
-0.64
-0.6
-0.625
-0.665
-0.65
-0.61
-0.6
-0.575
-0.22
0.535
1.94
2.26
0.31
-1.155
-1.055
-0.78
-0.88
-0.83
-0.78
-0.755
-0.605
-0.56
-0.545
-0.61
-0.69
-0.615
-0.57
-0.545
-0.61
-0.62
-0.455
-0.4
-0.505
-0.33
-0.195
-0.295
-0.21
0.0
-0.01
-0.09
-0.145
-0.225
-0.315
-0.28
-0.305
-0.35
-0.335
-0.195
-0.1
-0.095
-0.345
-0.45
-0.38
-0.28
-0.33
-0.325
-0.37
-0.335
-0.325
-0.26
-0.295
-0.335
-0.205
-0.015
-0.175
-0.345
-0.275
-0.125
-0.09
0.05
-0.035
-0.145
-0.155
-0.1
-0.195
-0.275
-0.255
-0.095
-0.055
-0.175
-0.325
-0.1
0.295
0.665
1.625
2.04
0.49
-0.81
-0.87
-0.63
-0.515
-0.445
-0.41
-0.365
-0.4
-0.415
-0.42
-0.425
-0.445
-0.36
-0.37
-0.39
-0.41
-0.36
-0.335
-0.33
-0.33
-0.205
-0.22
-0.16
-0.145
-0.125
-0.14
-0.1
-0.155
-0.175
-0.165
-0.105
-0.095
-0.12
-0.22
-0.18
-0.14
-0.14
-0.185
-0.105
-0.075
-0.01
-0.05
-0.14
-0.17
0.01
0.025
-0.115
-0.185
-0.095
-0.045
-0.045
-0.035
0.135
0.215
0.245
0.1
0.04
-0.07
-0.14
-0.17
-0.135
-0.11
-0.08
-0.1
-0.08
-0.12
-0.11
-0.135
0.165
0.89
2.235
2.76
1.15
-0.505
-0.645
-0.39
-0.255
-0.28
-0.24
-0.205
-0.17
-0.19
-0.185
-0.205
-0.185
-0.175
-0.11
-0.13
-0.1
-0.115
-0.115
-0.09
-0.035
0.02
0.125
0.135
0.155
0.215
0.24
0.17
0.11
0.1
0.085
0.06
0.12
0.055
0.02
0.02
0.015
-0.04
-0.02
-0.04
-0.03
0.03
0.045
0.01
0.015
-0.01
0.005
0.065
0.17
0.125
0.09
0.2
0.31
0.355
0.355
0.345
0.31
0.17
0.08
0.035
0.08
0.09
0.11
0.035
-0.015
0.025
0.06
0.035
0.365
1.125
2.34
2.33
0.57
-0.57
-0.515
-0.36
-0.235
-0.145
-0.115
-0.1
-0.08
-0.065
-0.055
-0.07
-0.075
-0.065
-0.02
0.01
0.035
0.045
0.08
0.08
0.125
0.14
0.18
0.195
0.24
0.24
0.215
0.18
0.135
0.07
0.06
0.045
0.065
0.015
0.02
0.0
-0.035
-0.05
-0.045
-0.02
0.005
-0.01
0.005
0.015
0.045
0.08
0.115
0.08
0.065
0.145
0.245
0.305
0.295
0.24
0.175
0.055
-0.005
-0.03
-0.025
-0.03
-0.02
-0.025
0.02
0.065
-0.025
-0.05
0.425
1.26
2.45
2.375
0.55
-0.635
-0.61
-0.445
-0.21
-0.09
-0.105
-0.15
-0.17
-0.175
-0.08
-0.075
-0.115
-0.09
-0.06
-0.045
0.01
-0.015
-0.01
0.07
0.15
0.155
0.15
0.19
0.215
0.17
0.195
0.15
0.08
0.04
0.005
-0.045
-0.08
-0.06
-0.08
-0.105
-0.085
-0.105
-0.11
-0.155
-0.135
-0.095
-0.09
-0.11
-0.07
-0.05
-0.03
-0.05
-0.02
0.105
0.24
0.24
0.165
0.025
-0.075
-0.115
-0.095
-0.15
-0.17
-0.17
-0.225
-0.225
-0.205
-0.235
-0.105
0.31
1.15
2.305
2.15
0.295
-0.845
-0.67
-0.385
-0.39
-0.39
-0.365
-0.285
-0.3
-0.24
-0.24
-0.235
-0.245
-0.24
-0.22
-0.19
-0.19
-0.145
-0.185
-0.15
-0.065
-0.11
-0.145
-0.045
-0.025
0.02
-0.005
-0.015
-0.09
-0.11
-0.105
-0.13
-0.18
-0.145
-0.225
-0.225
-0.23
-0.24
-0.215
-0.185
-0.21
-0.185
-0.14
-0.095
-0.125
-0.055
0.045
0.165
0.185
0.16
0.115
0.09
-0.04
-0.09
-0.165
-0.22
-0.19
-0.15
-0.15
-0.19
-0.27
-0.295
-0.275
0.16
0.915
2.165
2.155
0.365
-0.88
-0.835
-0.555
-0.3
-0.205
-0.175
-0.165
-0.165
-0.195
-0.135
-0.165
-0.2
-0.235
-0.21
-0.165
-0.11
-0.13
-0.115
-0.105
-0.065
-0.065
-0.065
-0.07
-0.045
-0.055
-0.06
-0.08
-0.08
-0.09
-0.015
0.12
0.34
0.39
0.385
0.28
0.175
0.055
-0.03
-0.105
-0.06
0.065
0.325
0.725
1.13
1.315
1.285
1.055
0.785
0.545
0.35
0.115
-0.035
-0.2
-0.215
-0.25
-0.275
-0.31
-0.31
-0.365
-0.43
-0.495
-0.155
0.49
1.59
2.045
0.705
-0.705
-0.905
-0.805
-0.625
-0.49
-0.46
-0.54
-0.5
-0.455
-0.475
-0.535
-0.52
-0.49
-0.435
-0.435
-0.375
-0.345
-0.29
-0.305
-0.305
-0.325
-0.2
-0.125
-0.155
-0.15
0.025
-0.05
-0.325
-0.445
-0.325
-0.28
-0.325
-0.45
-0.49
-0.515
-0.435
-0.365
-0.37
-0.375
-0.37
-0.485
-0.425
-0.355
-0.3
-0.155
-0.105
-0.115
-0.095
-0.155
-0.19
-0.305
-0.38
-0.43
-0.445
-0.465
-0.425
-0.425
-0.425
-0.44
-0.43
-0.285
0.27
1.395
2.245
1.03
-0.59
-0.945
-0.825
-0.7
-0.61
-0.555
-0.515
-0.505
-0.455
-0.46
-0.47
-0.465
-0.39
-0.425
-0.45
-0.485
-0.5
-0.52
-0.505
-0.515
-0.49
-0.505
-0.52
-0.635
-0.63
-0.485
-0.31
-0.31
-0.31
-0.33
-0.315
-0.355
-0.38
-0.38
-0.365
-0.385
-0.385
-0.395
-0.355
-0.36
-0.345
-0.335
-0.305
-0.275
-0.215
-0.18
-0.105
-0.08
-0.05
-0.095
-0.185
-0.265
-0.275
-0.315
-0.315
-0.31
-0.245
-0.235
-0.29
-0.365
-0.47
-0.355
0.185
1.155
2.245
1.525
-0.3
-0.965
-0.83
-0.67
-0.56
-0.505
-0.45
-0.435
-0.42
-0.425
-0.385
-0.4
-0.37
-0.36
-0.37
-0.38
-0.345
-0.325
-0.285
-0.285
-0.21
-0.185
-0.175
-0.145
-0.085
-0.06
-0.045
-0.085
-0.115
-0.155
-0.16
-0.205
-0.19
-0.19
-0.205
-0.225
-0.225
-0.25
-0.255
-0.24
-0.19
-0.195
-0.15
-0.12
-0.01
0.08
0.09
0.06
0.04
-0.065
-0.125
-0.175
-0.21
-0.215
-0.205
-0.205
-0.19
-0.215
-0.21
-0.21
0.12
0.825
2.095
2.365
0.725
-0.585
-0.615
-0.44
-0.325
-0.28
-0.21
-0.21
-0.215
-0.215
-0.205
-0.195
-0.175
-0.2
-0.205
-0.185
-0.16
-0.165
-0.15
-0.135
-0.105
-0.08
-0.07
-0.065
-0.015
0.04
0.07
0.015
-0.015
-0.05
-0.07
-0.11
-0.11
-0.135
-0.15
-0.13
-0.105
-0.135
-0.15
-0.14
-0.12
-0.145
-0.12
-0.1
-0.005
0.115
0.175
0.165
0.125
0.01
-0.07
-0.115
-0.145
-0.175
-0.13
-0.125
-0.135
-0.17
-0.15
-0.205
-0.005
0.6
1.73
2.535
1.415
-0.3
-0.68
-0.505
-0.33
-0.28
-0.24
-0.215
-0.19
-0.175
-0.145
-0.155
-0.145
-0.17
-0.17
-0.14
-0.105
-0.095
-0.08
-0.055
-0.015
0.005
0.08
0.095
0.085
0.09
0.11
0.09
0.07
0.025
0.005
-0.025
-0.005
-0.02
-0.03
-0.055
-0.075
-0.065
-0.07
-0.08
-0.065
-0.05
0.015
0.055
0.13
0.215
0.245
0.21
0.175
0.095
0.005
-0.06
-0.08
-0.115
-0.11
-0.11
-0.11
-0.11
-0.1
-0.165
0.01
0.56
1.635
2.385
1.27
-0.355
-0.695
-0.52
-0.335
-0.275
-0.23
-0.195
-0.195
-0.2
-0.18
-0.195
-0.19
-0.17
-0.15
-0.155
-0.13
-0.13
-0.115
-0.115
-0.085
-0.05
-0.035
-0.025
0.025
0.04
0.045
0.03
0.03
-0.02
-0.05
-0.075
-0.09
-0.125
-0.115
-0.14
-0.155
-0.14
-0.15
-0.155
-0.125
-0.08
-0.065
-0.07
0.01
0.105
0.185
0.185
0.145
0.05
-0.05
-0.105
-0.12
-0.145
-0.14
-0.145
-0.155
-0.155
-0.155
-0.2
-0.13
0.25
1.015
2.175
2.065
0.325
-0.66
-0.56
-0.34
-0.28
-0.24
-0.225
-0.195
-0.195
-0.205
-0.205
-0.165
-0.155
-0.155
-0.18
-0.165
-0.155
-0.15
-0.155
-0.14
-0.105
-0.07
-0.07
-0.04
-0.03
0.03
0.02
0.025
-0.02
-0.03
-0.055
-0.075
-0.07
-0.08
-0.125
-0.11
-0.135
-0.12
-0.11
-0.105
-0.07
-0.03
-0.015
0.015
0.095
0.195
0.215
0.215
0.14
0.08
-0.02
-0.065
-0.1
-0.1
-0.12
-0.125
-0.11
-0.095
-0.14
-0.2
-0.1
0.36
1.175
2.205
1.735
0.09
-0.585
-0.475
-0.32
-0.27
-0.265
-0.235
-0.23
-0.215
-0.225
-0.205
-0.215
-0.195
-0.175
-0.175
-0.185
-0.145
-0.14
-0.135
-0.15
-0.12
-0.095
-0.075
-0.05
0.005
0.015
0.01
0.015
0.015
-0.025
-0.035
-0.06
-0.075
-0.1
-0.11
-0.125
-0.11
-0.115
-0.11
-0.11
-0.095
-0.055
0.005
0.02
0.05
0.145
0.25
0.285
0.255
0.16
0.085
0.015
-0.025
-0.025
-0.015
-0.035
-0.025
-0.02
-0.025
-0.005
-0.05
0.135
0.675
1.66
2.53
1.7
0.295
-0.045
0.18
0.33
0.345
0.3
0.22
0.145
0.08
0.015
-0.01
-0.01
0.0
-0.015
-0.01
-0.02
-0.055
-0.105
-0.125
-0.13
-0.15
-0.235
-0.32
-0.285
-0.095
0.05
0.005
-0.105
-0.1
-0.05
-0.075
-0.125
-0.14
-0.135
-0.18
-0.185
-0.155
-0.155
-0.165
-0.15
-0.13
-0.095
-0.065
-0.025
-0.015
0.04
0.145
0.215
0.22
0.175
0.07
0.01
-0.045
-0.095
-0.11
-0.12
-0.125
-0.145
-0.15
-0.12
-0.14
-0.19
0.04
0.61
1.67
2.18
0.885
-0.425
-0.575
-0.415
-0.29
-0.215
-0.185
-0.175
-0.165
-0.165
-0.16
-0.15
-0.165
-0.145
-0.14
-0.115
-0.125
-0.115
-0.105
-0.09
-0.085
-0.075
-0.08
-0.07
-0.06
-0.025
-0.005
0.005
-0.025
-0.04
-0.045
-0.045
-0.065
-0.06
-0.075
-0.08
-0.055
-0.055
-0.055
-0.025
-0.005
-0.01
-0.01
0.04
0.08
0.095
0.13
0.21
0.3
0.345
0.265
0.18
0.07
-0.005
-0.03
-0.035
-0.02
-0.03
-0.045
-0.04
-0.055
-0.04
-0.115
0.045
0.52
1.465
2.29
1.45
-0.045
-0.47
-0.35
-0.21
-0.155
-0.1
-0.105
-0.115
-0.11
-0.14
-0.165
-0.13
-0.125
-0.115
-0.105
-0.115
-0.1
-0.095
-0.095
-0.08
-0.07
-0.06
-0.06
-0.045
-0.01
0.04
0.065
0.055
0.035
0.01
0.01
0.005
-0.03
-0.045
-0.065
-0.045
-0.05
-0.06
-0.055
-0.035
-0.025
-0.01
0.01
0.07
0.075
0.105
0.13
0.215
0.305
0.305
0.245
0.19
0.09
0.015
-0.02
-0.025
-0.045
-0.07
-0.05
-0.04
-0.055
-0.04
-0.09
0.125
0.65
1.67
2.225
1.075
-0.255
-0.445
-0.315
-0.23
-0.175
-0.13
-0.11
-0.115
-0.105
-0.07
-0.06
-0.06
-0.065
-0.07
-0.08
-0.055
-0.05
-0.055
-0.05
-0.055
-0.045
-0.025
-0.03
0.01
0.055
0.07
0.045
0.06
0.06
0.04
0.025
0.005
-0.015
-0.03
-0.06
-0.06
-0.065
-0.055
-0.06
-0.045
-0.025
-0.01
-0.025
0.0
0.03
0.035
0.06
0.15
0.265
0.29
0.215
0.125
0.05
-0.01
-0.07
-0.08
-0.11
-0.115
-0.09
-0.075
-0.125
-0.13
-0.185
-0.005
0.475
1.305
2.025
1.275
-0.08
-0.47
-0.415
-0.28
-0.215
-0.165
-0.13
-0.11
-0.125
-0.105
-0.095
-0.08
-0.08
-0.07
-0.08
-0.115
-0.095
-0.025
0.015
0.025
-0.005
-0.035
-0.045
-0.03
0.03
0.11
0.09
0.065
0.075
0.055
-0.005
-0.035
-0.005
-0.01
-0.04
-0.015
0.0
0.06
0.055
0.065
0.095
0.08
0.055
0.125
0.165
0.15
0.135
0.24
0.335
0.39
0.385
0.34
0.22
0.135
0.11
0.07
0.08
0.1
0.025
0.02
0.005
0.005
-0.03
-0.03
0.335
1.09
2.21
2.31
0.685
-0.5
-0.46
-0.265
-0.19
-0.105
-0.055
-0.065
-0.08
-0.045
-0.07
-0.035
-0.015
0.04
0.01
-0.015
-0.005
0.015
0.045
0.09
0.065
0.095
0.155
0.18
0.18
0.19
0.205
0.21
0.16
0.16
0.12
0.075
0.035
0.03
0.015
0.04
0.03
0.03
0.05
0.075
0.07
0.09
0.095
0.12
0.13
0.155
0.16
0.2
0.28
0.37
0.375
0.325
0.24
0.15
0.055
0.02
0.005
-0.01
-0.035
-0.035
-0.05
-0.045
-0.06
-0.065
0.205
0.88
2.105
2.625
1.06
-0.41
-0.565
-0.385
-0.275
-0.215
-0.205
-0.18
-0.175
-0.155
-0.165
-0.145
-0.135
-0.125
-0.145
-0.135
-0.135
-0.105
-0.085
-0.085
-0.08
-0.045
-0.04
-0.02
-0.015
0.025
0.045
0.03
-0.005
-0.035
-0.065
-0.075
-0.105
-0.125
-0.135
-0.135
-0.165
-0.155
-0.155
-0.145
-0.14
-0.12
-0.12
-0.105
-0.115
-0.095
-0.07
-0.025
-0.005
0.06
0.125
0.165
0.14
0.105
0.005
-0.09
-0.155
-0.185
-0.2
-0.2
-0.22
-0.225
-0.24
-0.22
-0.285
-0.125
0.445
1.505
2.51
1.675
-0.21
-0.8
-0.625
-0.445
-0.39
-0.325
-0.325
-0.315
-0.305
-0.295
-0.29
-0.285
-0.295
-0.275
-0.28
-0.235
-0.215
-0.21
-0.205
-0.18
-0.165
-0.13
-0.125
-0.085
-0.06
-0.035
-0.055
-0.055
-0.11
-0.145
-0.17
-0.165
-0.19
-0.17
-0.21
-0.225
-0.235
-0.23
-0.24
-0.23
-0.245
-0.235
-0.235
-0.21
-0.215
-0.195
-0.17
-0.125
-0.125
-0.06
0.005
0.07
0.08
0.02
-0.06
-0.135
-0.215
-0.24
-0.27
-0.265
-0.27
-0.26
-0.28
-0.265
-0.305
-0.23
0.175
0.985
2.23
2.14
0.26
-0.83
-0.72
-0.525
-0.455
-0.385
-0.37
-0.34
-0.345
-0.33
-0.345
-0.335
-0.345
-0.305
-0.31
-0.305
-0.31
-0.28
-0.275
-0.255
-0.245
-0.205
-0.195
-0.155
-0.12
-0.095
-0.09
-0.11
-0.15
-0.155
-0.185
-0.2
-0.22
-0.215
-0.24
-0.215
-0.23
-0.235
-0.24
-0.24
-0.255
-0.255
-0.28
-0.27
-0.25
-0.205
-0.22
-0.215
-0.23
-0.17
-0.155
-0.065
0.045
0.1
0.065
0.015
-0.1
-0.17
-0.205
-0.24
-0.27
-0.275
-0.28
-0.235
-0.25
-0.265
-0.305
-0.22
0.18
0.935
2.07
2.005
0.265
-0.82
-0.72
-0.45
-0.4
-0.345
-0.345
-0.305
-0.305
-0.285
-0.295
-0.28
-0.265
-0.23
-0.215
-0.21
-0.215
-0.17
-0.19
-0.175
-0.145
-0.135
-0.125
-0.045
-0.03
0.015
0.05
-0.005
-0.025
-0.045
-0.115
-0.1
-0.1
-0.095
-0.135
-0.145
-0.15
-0.165
-0.185
-0.14
-0.1
-0.1
-0.11
-0.08
-0.08
-0.035
-0.07
-0.055
-0.015
0.015
0.015
0.105
0.185
0.235
0.24
0.205
0.08
0.065
-0.01
-0.08
-0.035
-0.025
-0.055
-0.065
-0.135
-0.07
-0.045
0.04
0.43
1.245
2.375
2.1
0.325
-0.61
-0.53
-0.3
-0.19
-0.11
-0.11
-0.085
-0.065
-0.01
-0.05
-0.08
-0.05
0.005
-0.02
0.025
0.04
0.12
0.09
0.05
0.11
0.195
0.225
0.26
0.215
0.255
0.275
0.25
0.23
0.205
0.125
0.11
0.165
0.145
0.055
0.09
0.105
0.11
0.135
0.115
0.095
0.135
0.15
0.16
0.155
0.135
0.125
0.16
0.19
0.215
0.215
0.255
0.33
0.41
0.435
0.375
0.295
0.26
0.19
0.205
0.18
0.13
0.12
0.165
0.155
0.17
0.145
0.16
0.455
1.175
2.395
2.785
1.115
-0.335
-0.395
-0.19
-0.075
0.01
0.015
0.08
0.08
0.08
0.075
0.105
0.115
0.115
0.115
0.135
0.135
0.165
0.185
0.225
0.25
0.275
0.28
0.295
0.315
0.37
0.365
0.345
0.29
0.27
0.23
0.225
0.19
0.175
0.115
0.13
0.11
0.115
0.115
0.105
0.125
0.15
0.145
0.155
0.125
0.115
0.115
0.155
0.185
0.19
0.19
0.245
0.315
0.385
0.355
0.325
0.285
0.205
0.135
0.1
0.045
0.05
0.05
0.07
0.055
0.055
0.02
0.035
0.41
1.215
2.5
2.735
0.895
-0.535
-0.545
-0.295
-0.18
-0.115
-0.09
-0.05
-0.055
-0.06
-0.04
-0.03
-0.055
-0.05
-0.03
-0.03
-0.025
0.005
0.03
0.07
0.085
0.115
0.135
0.175
0.19
0.2
0.175
0.16
0.13
0.09
0.045
0.025
0.005
0.0
-0.015
-0.03
-0.04
-0.065
-0.075
-0.07
-0.08
-0.1
-0.1
-0.105
-0.09
-0.09
-0.08
-0.085
-0.05
-0.025
-0.01
-0.01
0.055
0.14
0.165
0.145
0.105
0.055
-0.015
-0.095
-0.14
-0.145
-0.15
-0.14
-0.145
-0.15
-0.15
-0.185
-0.105
0.32
1.22
2.495
2.225
0.255
-0.745
-0.56
-0.365
-0.33
-0.3
-0.265
-0.255
-0.28
-0.25
-0.23
-0.25
-0.26
-0.265
-0.265
-0.24
-0.235
-0.22
-0.175
-0.155
-0.185
-0.155
-0.1
-0.075
-0.03
0.0
0.005
-0.035
-0.105
-0.115
-0.135
-0.145
-0.165
-0.195
-0.225
-0.23
-0.205
-0.195
-0.22
-0.235
-0.27
-0.285
-0.255
-0.23
-0.265
-0.24
-0.24
-0.255
-0.25
-0.2
-0.19
-0.185
-0.14
-0.05
0.005
0.02
-0.015
-0.055
-0.105
-0.205
-0.25
-0.24
-0.25
-0.265
-0.28
-0.265
-0.27
-0.26
-0.255
-0.03
0.58
1.65
2.425
1.265
-0.46
-0.785
-0.525
-0.39
-0.345
-0.345
-0.33
-0.285
-0.285
-0.29
-0.31
-0.285
-0.265
-0.255
-0.275
-0.26
-0.21
-0.185
-0.155
-0.135
-0.11
-0.06
-0.015
0.005
0.03
0.035
0.035
0.01
-0.08
-0.125
-0.115
-0.14
-0.16
-0.16
-0.205
-0.185
-0.19
-0.195
-0.19
-0.215
-0.2
-0.205
-0.22
-0.225
-0.19
-0.14
-0.145
-0.145
-0.175
-0.155
-0.095
-0.09
-0.055
0.065
0.125
0.095
0.045
0.015
-0.065
-0.135
-0.165
-0.155
-0.14
-0.185
-0.18
-0.13
-0.165
-0.19
-0.135
0.24
0.985
2.175
2.29
0.57
-0.675
-0.65
-0.44
-0.34
-0.285
-0.245
-0.22
-0.205
-0.195
-0.17
-0.165
-0.17
-0.155
-0.165
-0.155
-0.14
-0.08
-0.075
-0.07
-0.06
0.01
0.055
0.085
0.11
0.105
0.095
0.085
0.045
0.01
-0.04
-0.06
-0.065
-0.09
-0.11
-0.105
-0.11
-0.14
-0.16
-0.135
-0.13
-0.13
-0.135
-0.125
-0.125
-0.11
-0.12
-0.105
-0.105
-0.085
-0.065
-0.05
-0.05
0.015
0.08
0.125
0.1
0.055
0.025
-0.04
-0.115
-0.15
-0.165
-0.175
-0.17
-0.155
-0.17
-0.17
-0.2
-0.13
0.3
1.175
2.41
2.18
0.25
-0.82
-0.685
-0.435
-0.345
-0.305
-0.315
-0.285
-0.275
-0.24
-0.235
-0.24
-0.24
-0.23
-0.24
-0.235
-0.21
-0.185
-0.17
-0.135
-0.1
-0.07
-0.04
-0.01
-0.005
0.045
0.02
-0.02
-0.065
-0.09
-0.13
-0.135
-0.15
-0.15
-0.17
-0.18
-0.2
-0.2
-0.205
-0.215
-0.225
-0.215
-0.225
-0.225
-0.22
-0.21
-0.205
-0.185
-0.195
-0.17
-0.145
-0.12
-0.125
-0.08
-0.01
0.06
0.04
-0.005
-0.04
-0.085
-0.16
-0.195
-0.215
-0.215
-0.235
-0.235
-0.23
-0.215
-0.235
-0.225
0.065
0.76
2.03
2.5
0.835
-0.685
-0.765
-0.49
-0.395
-0.345
-0.33
-0.315
-0.315
-0.29
-0.305
-0.29
-0.305
-0.29
-0.29
-0.265
-0.265
-0.24
-0.225
-0.185
-0.16
-0.11
-0.09
-0.065
-0.035
0.005
0.005
-0.005
-0.05
-0.065
-0.1
-0.125
-0.145
-0.175
-0.205
-0.2
-0.2
-0.21
-0.23
-0.23
-0.235
-0.21
-0.215
-0.225
-0.245
-0.225
-0.215
-0.19
-0.205
-0.195
-0.185
-0.15
-0.15
-0.11
-0.045
0.055
0.105
0.08
-0.025
-0.08
-0.16
-0.195
-0.21
-0.195
-0.21
-0.23
-0.25
-0.235
-0.21
-0.22
-0.115
0.365
1.3
2.405
1.775
-0.055
-0.77
-0.58
-0.425
-0.335
-0.28
-0.305
-0.31
-0.26
-0.285
-0.26
-0.24
-0.24
-0.255
-0.24
-0.235
-0.21
-0.205
-0.18
-0.17
-0.105
-0.095
-0.08
-0.03
0.05
0.05
0.05
0.015
-0.025
-0.05
-0.055
-0.1
-0.115
-0.105
-0.12
-0.145
-0.125
-0.15
-0.155
-0.155
-0.165
-0.185
-0.135
-0.11
-0.11
-0.155
-0.135
-0.105
-0.075
-0.07
-0.05
-0.03
0.01
0.045
0.115
0.17
0.155
0.075
0.085
0.015
-0.075
-0.085
-0.08
-0.115
-0.09
-0.095
-0.095
-0.12
-0.125
-0.015
0.41
1.17
2.33
2.21
0.415
-0.67
-0.505
-0.285
-0.215
-0.205
-0.19
-0.16
-0.11
-0.115
-0.125
-0.165
-0.17
-0.15
-0.11
-0.11
-0.1
-0.08
-0.03
-0.01
0.035
0.05
0.095
0.12
0.155
0.185
0.17
0.125
0.11
0.08
0.045
-0.005
0.0
-0.005
0.0
-0.03
-0.045
-0.075
-0.09
-0.08
-0.045
-0.055
-0.05
-0.06
-0.04
-0.04
-0.02
-0.025
-0.01
-0.01
0.045
0.07
0.04
0.065
0.165
0.21
0.21
0.155
0.115
0.045
-0.015
-0.05
-0.05
-0.095
-0.1
-0.09
-0.08
-0.08
-0.08
-0.05
0.38
1.205
2.42
2.26
0.405
-0.72
-0.58
-0.37
-0.28
-0.23
-0.2
-0.185
-0.175
-0.185
-0.175
-0.175
-0.165
-0.175
-0.155
-0.15
-0.115
-0.12
-0.105
-0.095
-0.07
-0.045
0.025
0.055
0.08
0.065
0.07
0.035
0.025
-0.025
-0.055
-0.095
-0.09
-0.11
-0.115
-0.15
-0.155
-0.17
-0.175
-0.17
-0.165
-0.185
-0.165
-0.15
-0.125
-0.13
-0.125
-0.125
-0.12
-0.125
-0.08
-0.08
-0.08
-0.04
0.065
0.12
0.115
0.04
-0.005
-0.075
-0.135
-0.19
-0.185
-0.21
-0.2
-0.205
-0.19
-0.195
-0.2
-0.195
0.175
0.895
2.17
2.355
0.565
-0.78
-0.715
-0.485
-0.37
-0.325
-0.29
-0.295
-0.285
-0.285
-0.27
-0.285
-0.265
-0.255
-0.24
-0.245
-0.225
-0.225
-0.21
-0.205
-0.18
-0.155
-0.105
-0.105
-0.08
-0.06
-0.045
-0.075
-0.09
-0.135
-0.145
-0.17
-0.18
-0.21
-0.215
-0.24
-0.24
-0.26
-0.25
-0.265
-0.265
-0.28
-0.265
-0.27
-0.25
-0.26
-0.24
-0.24
-0.235
-0.215
-0.165
-0.17
-0.15
-0.08
0.015
0.02
-0.02
-0.075
-0.12
-0.205
-0.255
-0.28
-0.28
-0.3
-0.285
-0.3
-0.29
-0.285
-0.31
-0.205
0.285
1.165
2.31
1.795
-0.085
-0.88
-0.67
-0.485
-0.425
-0.395
-0.375
-0.385
-0.37
-0.37
-0.36
-0.37
-0.35
-0.35
-0.325
-0.315
-0.315
-0.315
-0.29
-0.295
-0.255
-0.245
-0.21
-0.185
-0.14
-0.12
-0.115
-0.155
-0.165
-0.195
-0.19
-0.22
-0.25
-0.27
-0.26
-0.295
-0.3
-0.305
-0.31
-0.325
-0.31
-0.31
-0.295
-0.28
-0.255
-0.27
-0.27
-0.295
-0.275
-0.255
-0.235
-0.24
-0.185
-0.105
0.005
0.005
-0.035
-0.105
-0.145
-0.245
-0.31
-0.33
-0.31
-0.325
-0.32
-0.325
-0.31
-0.325
-0.355
-0.245
0.235
1.075
2.115
1.615
-0.115
-0.865
-0.705
-0.505
-0.45
-0.455
-0.45
-0.435
-0.41
-0.41
-0.38
-0.39
-0.4
-0.4
-0.38
-0.37
-0.34
-0.355
-0.345
-0.355
-0.33
-0.285
-0.24
-0.215
-0.2
-0.195
-0.165
-0.185
-0.2
-0.23
-0.235
-0.265
-0.295
-0.315
-0.315
-0.335
-0.305
-0.32
-0.315
-0.285
-0.305
-0.335
-0.295
-0.325
-0.305
-0.295
-0.255
-0.27
-0.27
-0.245
-0.23
-0.255
-0.185
-0.08
-0.005
-0.02
-0.075
-0.13
-0.195
-0.29
-0.325
-0.32
-0.3
-0.315
-0.31
-0.305
-0.31
-0.34
-0.32
-0.015
0.64
1.75
2.11
0.58
-0.72
-0.765
-0.555
-0.475
-0.425
-0.405
-0.37
-0.37
-0.35
-0.355
-0.335
-0.345
-0.325
-0.325
-0.31
-0.305
-0.29
-0.275
-0.25
-0.24
-0.23
-0.23
-0.19
-0.17
-0.135
-0.125
-0.115
-0.14
-0.155
-0.185
-0.185
-0.215
-0.225
-0.255
-0.25
-0.26
-0.24
-0.26
-0.24
-0.235
-0.215
-0.21
-0.195
-0.205
-0.19
-0.215
-0.19
-0.18
-0.14
-0.145
-0.125
-0.085
0.015
0.055
0.06
-0.01
-0.075
-0.16
-0.21
-0.24
-0.245
-0.27
-0.255
-0.26
-0.25
-0.265
-0.285
-0.27
0.1
0.795
1.955
2.05
0.425
-0.73
-0.68
-0.49
-0.4
-0.385
-0.355
-0.35
-0.33
-0.315
-0.31
-0.325
-0.305
-0.295
-0.275
-0.28
-0.26
-0.265
-0.265
-0.255
-0.225
-0.235
-0.225
-0.215
-0.185
-0.165
-0.12
-0.125
-0.12
-0.145
-0.15
-0.175
-0.19
-0.23
-0.235
-0.24
-0.235
-0.25
-0.24
-0.25
-0.235
-0.23
-0.21
-0.215
-0.195
-0.2
-0.19
-0.195
-0.145
-0.135
-0.12
-0.105
-0.005
0.08
0.115
0.055
-0.005
-0.105
-0.165
-0.225
-0.22
-0.235
-0.245
-0.24
-0.23
-0.235
-0.225
-0.29
-0.115
0.4
1.415
2.265
1.345
-0.3
-0.695
-0.54
-0.395
-0.375
-0.345
-0.335
-0.315
-0.315
-0.3
-0.315
-0.3
-0.305
-0.275
-0.28
-0.255
-0.26
-0.24
-0.24
-0.225
-0.22
-0.21
-0.22
-0.185
-0.165
-0.115
-0.11
-0.095
-0.125
-0.125
-0.14
-0.13
-0.17
-0.185
-0.215
-0.205
-0.215
-0.195
-0.215
-0.2
-0.205
-0.18
-0.185
-0.16
-0.17
-0.15
-0.17
-0.145
-0.11
-0.07
-0.07
-0.005
0.08
0.14
0.115
0.085
-0.03
-0.11
-0.185
-0.185
-0.205
-0.205
-0.215
-0.21
-0.23
-0.205
-0.24
-0.22
0.08
0.73
1.875
2.145
0.59
-0.595
-0.615
-0.415
-0.365
-0.32
-0.32
-0.295
-0.3
-0.275
-0.29
-0.265
-0.27
-0.25
-0.255
-0.225
-0.235
-0.225
-0.225
-0.2
-0.21
-0.18
-0.19
-0.175
-0.17
-0.115
-0.1
-0.06
-0.085
-0.08
-0.11
-0.105
-0.12
-0.125
-0.15
-0.155
-0.185
-0.165
-0.175
-0.15
-0.16
-0.15
-0.15
-0.125
-0.12
-0.11
-0.115
-0.1
-0.09
-0.05
-0.065
-0.02
0.055
0.175
0.19
0.165
0.075
0.0
-0.095
-0.12
-0.15
-0.145
-0.165
-0.155
-0.17
-0.155
-0.165
-0.205
-0.125
0.325
1.12
2.13
1.65
0.055
-0.605
-0.475
-0.34
-0.29
-0.275
-0.25
-0.255
-0.235
-0.24
-0.215
-0.23
-0.21
-0.23
-0.21
-0.2
-0.18
-0.195
-0.185
-0.195
-0.17
-0.175
-0.155
-0.165
-0.125
-0.11
-0.055
-0.06
-0.04
-0.055
-0.055
-0.1
-0.09
-0.125
-0.11
-0.135
-0.125
-0.135
-0.105
-0.12
-0.1
-0.105
-0.085
-0.09
-0.075
-0.08
-0.07
-0.09
-0.04
-0.025
-0.005
0.03
0.14
0.2
0.24
0.155
0.075
-0.04
-0.08
-0.13
-0.115
-0.135
-0.12
-0.14
-0.125
-0.145
-0.145
-0.185
0.085
0.635
1.74
2.12
0.79
-0.46
-0.515
-0.365
-0.295
-0.28
-0.23
-0.235
-0.22
-0.235
-0.205
-0.22
-0.21
-0.215
-0.19
-0.195
-0.175
-0.185
-0.175
-0.185
-0.185
-0.21
-0.185
-0.19
-0.165
-0.14
-0.085
-0.065
-0.045
-0.06
-0.065
-0.1
-0.1
-0.125
-0.11
-0.13
-0.13
-0.15
-0.125
-0.125
-0.1
-0.105
-0.095
-0.105
-0.08
-0.1
-0.09
-0.105
-0.06
-0.045
-0.025
-0.01
0.105
0.175
0.21
0.15
0.095
-0.025
-0.095
-0.145
-0.14
-0.16
-0.155
-0.18
-0.17
-0.185
-0.18
-0.24
-0.06
0.425
1.35
2.06
1.175
-0.25
-0.56
-0.45
-0.34
-0.325
-0.29
-0.285
-0.265
-0.265
-0.255
-0.265
-0.24
-0.255
-0.225
-0.23
-0.205
-0.22
-0.21
-0.215
-0.21
-0.225
-0.21
-0.205
-0.195
-0.185
-0.125
-0.095
-0.06
-0.075
-0.075
-0.105
-0.105
-0.125
-0.13
-0.145
-0.14
-0.155
-0.135
-0.145
-0.12
-0.125
-0.11
-0.105
-0.105
-0.09
-0.065
-0.08
-0.055
-0.03
-0.015
0.005
0.11
0.195
0.24
0.185
0.11
-0.01
-0.07
-0.125
-0.14
-0.155
-0.145
-0.165
-0.155
-0.17
-0.145
-0.22
-0.07
0.38
1.24
2.06
1.375
-0.11
-0.53
-0.43
-0.305
-0.285
-0.24
-0.245
-0.22
-0.225
-0.215
-0.21
-0.195
-0.195
-0.185
-0.185
-0.175
-0.165
-0.145
-0.155
-0.17
-0.185
-0.185
-0.185
-0.155
-0.14
-0.1
-0.06
-0.035
-0.035
-0.025
-0.05
-0.055
-0.07
-0.08
-0.085
-0.075
-0.08
-0.07
-0.065
-0.055
-0.05
-0.03
-0.03
-0.01
-0.01
-0.01
-0.015
0.005
0.03
0.05
0.055
0.145
0.25
0.295
0.265
0.2
0.09
0.02
-0.045
-0.055
-0.065
-0.075
-0.08
-0.07
-0.075
-0.08
-0.135
-0.04
0.355
1.085
2.055
1.7
0.195
-0.455
-0.375
-0.23
-0.195
-0.165
-0.155
-0.14
-0.14
-0.13
-0.125
-0.12
-0.125
-0.105
-0.11
-0.1
-0.095
-0.095
-0.105
-0.105
-0.105
-0.11
-0.11
-0.095
-0.07
-0.035
0.005
0.03
0.045
0.055
0.04
0.015
0.005
0.005
-0.005
-0.005
-0.005
0.005
-0.005
0.005
0.025
0.035
0.035
0.045
0.04
0.04
0.04
0.065
0.09
0.115
0.135
0.21
0.31
0.005
0.03
0.085
-0.025
-0.02
0.015
0.03
0.085
-0.01
-0.095
-0.065
-0.025
0.015
0.015
0.015
0.045
0.055
-0.095
-0.015
0.12
0.075
0.005
-0.065
-0.05
0.045
0.09
0.17
0.17
0.19
0.24
0.2
0.195
0.24
0.155
0.015
-0.025
0.02
0.05
0.025
0.005
-0.01
-0.065
-0.125
-0.065
0.385
1.265
2.27
1.98
0.265
-0.645
-0.515
-0.31
-0.225
-0.09
-0.015
-0.025
-0.11
-0.135
-0.105
-0.18
-0.215
-0.165
-0.145
-0.08
-0.125
-0.13
-0.15
-0.255
-0.24
-0.235
-0.195
-0.14
-0.11
-0.14
-0.13
-0.065
0.01
0.03
0.025
0.005
-0.06
-0.08
-0.035
-0.005
-0.01
0.015
0.015
-0.11
-0.135
-0.005
-0.01
-0.005
0.125
0.18
0.145
0.165
0.0
-0.055
-0.13
-0.23
-0.18
-0.185
-0.18
-0.235
-0.21
-0.175
-0.12
0.175
0.865
1.77
1.445
-0.03
-0.74
-0.585
-0.415
-0.465
-0.265
-0.155
-0.21
-0.255
-0.24
-0.255
-0.25
-0.145
-0.21
-0.215
-0.185
-0.15
-0.17
-0.28
-0.315
-0.15
-0.07
-0.25
-0.32
-0.165
0.005
-0.025
-0.115
-0.05
-0.05
-0.065
-0.085
-0.035
-0.03
-0.08
-0.135
-0.015
0.015
-0.13
-0.185
-0.175
-0.145
-0.07
-0.01
0.155
0.21
0.005
-0.155
-0.17
-0.14
-0.405
-0.575
-0.395
-0.415
-0.44
-0.385
-0.475
-0.845
-0.105
0.71
1.17
1.835
0.825
-0.89
-1.115
-0.395
-0.27
-0.645
-0.47
-0.27
-0.355
-0.505
-0.325
-0.1
-0.16
-0.11
-0.13
-0.015
0.28
0.57
0.69
0.375
0.635
0.87
0.915
1.445
1.22
0.92
1.15
1.375
1.515
1.425
1.525
1.79
1.735
1.555
1.515
1.33
1.04
0.755
0.27
-0.135
-0.155
-0.075
-0.265
-0.435
-0.495
-0.625
-0.585
-0.61
-0.635
-0.705
-0.835
-0.8
-0.905
-0.955
-0.85
-0.765
-0.85
-0.76
-0.195
0.065
0.335
1.32
1.08
-0.655
-1.245
-0.855
-0.745
-0.805
-0.795
-0.805
-0.72
-0.475
-0.53
-0.725
-0.705
-0.73
-0.64
-0.625
-0.485
-0.51
-0.49
-0.03
0.035
0.17
0.265
-0.44
-0.61
-0.27
-0.35
-0.235
-0.075
-0.225
-0.21
-0.005
-0.04
-0.285
-0.045
0.185
0.085
0.105
0.295
0.4
0.41
0.5
0.565
0.43
0.42
0.405
0.305
0.275
0.32
0.24
0.125
-0.045
-0.26
-0.29
-0.415
-0.525
-0.415
-0.465
-0.445
-0.15
0.45
1.275
1.05
-0.505
-1.165
-0.865
-0.76
-0.765
-0.805
-0.76
-0.69
-0.585
-0.545
-0.53
-0.64
-0.67
-0.54
-0.63
-0.5
-0.385
-0.72
-0.825
-0.545
-0.635
-0.365
-0.185
-0.775
-0.455
0.33
0.265
-0.065
-0.02
-0.065
-0.135
0.005
-0.265
-0.275
0.11
0.19
0.265
0.045
0.06
0.155
0.02
0.36
0.38
0.02
0.195
0.425
0.33
0.03
0.185
0.045
-0.215
-0.14
0.045
0.13
0.23
-0.04
-0.37
0.12
0.655
1.025
1.795
1.805
0.445
-0.445
-0.32
-0.13
0.075
0.085
0.14
-0.01
-0.09
0.185
0.29
0.22
0.15
0.115
0.03
0.03
-0.005
-0.07
-0.015
0.01
0.005
0.035
0.28
0.33
0.115
0.24
0.455
0.46
0.465
0.49
0.505
0.5
0.445
0.425
0.445
0.575
0.84
0.745
0.445
0.49
0.62
0.685
0.77
0.835
0.82
0.7
0.6
0.525
0.485
0.385
0.305
0.25
0.235
0.25
0.26
0.175
-0.035
0.205
0.88
1.835
2.03
0.465
-0.885
-0.835
-0.485
-0.35
-0.34
-0.305
-0.26
-0.25
-0.22
-0.235
-0.23
-0.17
-0.155
-0.215
-0.18
-0.1
-0.02
-0.06
-0.185
-0.16
-0.12
-0.105
-0.025
0.025
0.035
0.07
0.105
0.145
0.11
0.025
-0.03
-0.105
-0.105
-0.1
-0.155
-0.21
-0.265
-0.22
-0.175
-0.16
-0.1
-0.025
0.015
0.02
-0.105
-0.155
-0.225
-0.285
-0.24
-0.22
-0.305
-0.365
-0.335
-0.325
-0.325
-0.27
0.08
0.755
1.695
1.435
-0.28
-1.235
-0.995
-0.66
-0.485
-0.355
-0.325
-0.355
-0.375
-0.415
-0.395
-0.35
-0.39
-0.37
-0.24
-0.065
-0.065
-0.12
-0.035
-0.075
-0.1
-0.03
-0.055
-0.1
-0.03
-0.055
-0.075
0.02
-0.01
-0.165
-0.21
-0.265
-0.31
-0.265
-0.285
-0.355
-0.425
-0.385
-0.325
-0.305
-0.325
-0.27
-0.23
-0.15
-0.11
-0.165
-0.255
-0.285
-0.32
-0.325
-0.295
-0.315
-0.34
-0.24
-0.27
-0.41
-0.09
0.455
1.295
1.645
0.34
-1.045
-0.985
-0.78
-0.86
-0.785
-0.74
-0.705
-0.655
-0.56
-0.515
-0.51
-0.58
-0.575
-0.43
-0.4
-0.35
-0.2
-0.215
-0.315
-0.485
-0.52
-0.365
-0.285
-0.165
-0.075
-0.105
0.105
0.265
0.415
0.45
0.45
0.415
0.205
0.045
-0.015
-0.125
-0.285
-0.27
-0.205
-0.195
-0.17
-0.3
-0.34
-0.34
-0.475
-0.525
-0.565
-0.615
-0.545
-0.545
-0.625
-0.685
-0.645
-0.645
-0.67
-0.41
0.155
0.96
1.43
0.375
-1.21
-1.445
-1.085
-0.835
-0.63
-0.49
-0.57
-0.73
-0.74
-0.675
-0.625
-0.54
-0.51
-0.635
-0.745
-0.75
-0.63
-0.51
-0.49
-0.555
-0.525
-0.305
-0.105
-0.14
-0.29
-0.285
-0.355
-0.475
-0.5
-0.59
-0.61
-0.515
-0.505
-0.46
-0.475
-0.525
-0.415
-0.395
-0.465
-0.485
-0.61
-0.545
-0.365
-0.345
-0.355
-0.385
-0.49
-0.56
-0.555
-0.625
-0.605
-0.54
-0.575
-0.63
-0.715
-0.485
0.095
0.77
1.35
0.74
-0.68
-1.295
-1.16
-0.835
-0.655
-0.645
-0.62
-0.645
-0.52
-0.28
-0.385
-0.64
-0.675
-0.59
-0.54
-0.505
-0.435
-0.43
-0.445
-0.41
-0.385
-0.235
-0.205
-0.235
-0.145
-0.105
-0.075
-0.13
-0.205
-0.21
-0.325
-0.36
-0.315
-0.35
-0.36
-0.315
-0.4
-0.38
-0.31
-0.285
-0.285
-0.235
-0.155
-0.155
-0.23
-0.38
-0.5
-0.54
-0.66
-0.68
-0.485
-0.375
-0.36
-0.44
-0.575
-0.31
0.25
1.015
1.375
0.24
-1.06
-1.16
-0.87
-0.695
-0.615
-0.56
-0.58
-0.585
-0.58
-0.65
-0.69
-0.645
-0.56
-0.51
-0.545
-0.58
-0.505
-0.45
-0.49
-0.38
-0.325
-0.42
-0.43
-0.285
-0.195
-0.185
-0.215
-0.255
-0.265
-0.285
-0.245
-0.195
-0.25
-0.42
-0.49
-0.445
-0.395
-0.39
-0.425
-0.375
-0.27
-0.205
-0.195
-0.22
-0.26
-0.325
-0.325
-0.305
-0.43
-0.465
-0.545
-0.54
-0.455
-0.475
-0.205
0.535
1.565
1.905
0.345
-1.13
-1.085
-0.705
-0.55
-0.51
-0.56
-0.425
-0.28
-0.31
-0.405
-0.395
-0.365
-0.35
-0.305
-0.295
-0.335
-0.325
-0.365
-0.315
-0.235
-0.175
-0.175
-0.205
-0.115
0.02
0.005
0.09
0.175
0.155
-0.105
-0.205
-0.13
-0.095
-0.125
-0.145
-0.145
-0.1
-0.08
-0.06
-0.04
-0.01
0.005
0.06
0.08
0.07
-0.145
-0.275
-0.2
-0.12
-0.2
-0.305
-0.305
-0.335
-0.325
0.1
0.815
1.815
1.75
0.13
-0.905
-0.72
-0.55
-0.56
-0.545
-0.395
-0.305
-0.34
-0.32
-0.295
-0.305
-0.355
-0.37
-0.255
-0.255
-0.26
-0.325
-0.225
-0.1
-0.195
-0.29
-0.235
-0.125
-0.09
-0.005
0.22
0.225
0.105
-0.035
-0.165
-0.4
-0.215
-0.02
-0.165
-0.115
-0.1
-0.225
-0.14
-0.065
-0.06
-0.03
0.07
-0.125
-0.015
-0.055
-0.175
-0.225
-0.215
-0.47
-0.385
-0.225
-0.305
-0.41
-0.125
0.76
1.65
2.07
0.995
-0.715
-0.88
-0.485
-0.355
-0.22
-0.165
-0.35
-0.275
-0.185
-0.24
-0.215
-0.055
-0.125
-0.165
-0.145
-0.13
-0.125
-0.12
-0.235
-0.185
-0.155
-0.135
-0.095
-0.03
0.065
0.145
0.09
0.05
-0.04
-0.08
-0.03
-0.02
-0.115
-0.115
-0.125
-0.105
-0.08
-0.01
0.105
0.25
0.245
0.245
0.275
0.175
0.07
-0.01
-0.13
-0.115
-0.11
-0.075
-0.03
-0.055
-0.085
0.025
0.425
1.185
1.94
1.615
-0.095
-1.04
-0.8
-0.455
-0.345
-0.305
-0.185
-0.165
-0.205
-0.205
-0.29
-0.235
-0.255
-0.19
-0.035
-0.135
-0.36
-0.295
-0.08
0.12
0.125
0.19
0.185
0.055
0.025
0.2
0.275
0.34
0.35
0.295
0.08
0.045
0.07
0.05
-0.035
-0.005
0.045
0.095
0.11
0.07
0.015
0.125
0.18
0.195
0.24
0.155
-0.13
-0.12
-0.065
-0.03
-0.085
0.015
-0.08
-0.2
0.06
0.635
1.49
2.06
0.945
-0.575
-0.79
-0.49
-0.34
-0.195
-0.07
-0.095
-0.245
-0.215
-0.21
-0.04
0.055
-0.02
-0.065
-0.01
0.05
0.085
0.1
0.26
0.88
0.635
-0.2
-0.005
0.235
0.28
0.285
0.31
0.295
0.305
0.24
0.185
0.18
0.195
0.055
0.06
0.075
0.035
0.19
0.25
0.205
0.255
0.155
0.08
0.11
0.17
0.095
-0.005
-0.02
0.015
-0.005
-0.025
-0.05
-0.07
-0.08
0.45
1.08
1.785
1.47
-0.105
-0.88
-0.585
-0.315
-0.17
-0.11
-0.06
-0.17
-0.07
-0.145
-0.24
-0.15
-0.07
-0.07
-0.065
-0.055
0.065
0.03
0.0
0.085
0.095
0.025
0.115
0.135
0.23
0.265
0.3
0.365
0.4
0.185
0.085
0.105
0.115
0.055
-0.005
0.02
0.09
0.115
0.145
0.14
0.195
0.215
0.28
0.255
0.145
0.045
0.03
-0.025
-0.05
-0.08
-0.075
-0.06
-0.055
-0.115
0.165
0.72
1.725
1.98
0.445
-0.865
-0.77
-0.44
-0.245
-0.23
-0.21
-0.16
-0.155
-0.175
-0.13
-0.17
-0.2
-0.205
-0.125
-0.105
-0.11
-0.095
-0.025
-0.075
-0.095
-0.075
-0.04
-0.015
0.095
0.115
0.155
0.19
0.18
0.09
0.02
0.04
0.045
-0.055
-0.05
-0.035
0.065
0.06
0.065
0.09
0.145
0.15
0.17
0.175
0.145
0.065
-0.005
-0.065
-0.09
-0.08
-0.105
-0.175
-0.13
-0.21
-0.01
0.645
1.715
2.09
0.605
-0.835
-0.79
-0.495
-0.345
-0.27
-0.255
-0.275
-0.205
-0.175
-0.19
-0.185
-0.15
-0.205
-0.22
-0.17
-0.08
-0.115
-0.175
-0.18
-0.115
-0.095
-0.055
-0.015
-0.015
-0.03
0.055
0.105
0.05
-0.025
0.0
-0.015
-0.035
-0.11
-0.08
-0.06
-0.06
-0.01
0.045
-0.045
0.0
0.115
0.135
0.08
0.1
0.045
-0.045
-0.105
-0.12
-0.16
-0.15
-0.145
-0.125
-0.185
-0.165
0.29
1.16
2.07
1.34
-0.515
-0.985
-0.605
-0.385
-0.34
-0.28
-0.27
-0.24
-0.275
-0.23
-0.21
-0.24
-0.23
-0.195
-0.18
-0.225
-0.195
-0.165
-0.19
-0.145
-0.105
-0.035
-0.06
-0.175
-0.115
0.01
0.045
0.03
-0.03
-0.055
-0.025
0.09
0.1
-0.09
-0.185
-0.175
-0.175
-0.08
-0.045
-0.04
0.035
0.125
0.125
0.105
0.09
0.07
-0.05
-0.08
-0.05
-0.145
-0.175
-0.16
-0.215
-0.235
0.09
0.795
1.87
2.065
0.455
-0.895
-0.865
-0.535
-0.435
-0.38
-0.33
-0.285
-0.29
-0.27
-0.255
-0.21
-0.21
-0.245
-0.22
-0.175
-0.115
-0.115
-0.105
-0.12
-0.14
-0.13
-0.06
0.01
0.055
0.08
0.145
0.205
0.11
-0.07
-0.005
-0.015
-0.14
-0.15
-0.08
-0.105
-0.165
0.03
0.09
-0.155
-0.155
0.01
0.13
0.135
0.095
0.175
0.17
-0.025
0.005
-0.08
-0.275
-0.34
-0.24
-0.17
-0.235
0.01
0.655
1.555
1.795
0.36
-0.845
-0.795
-0.625
-0.43
-0.145
-0.035
-0.155
-0.15
-0.175
-0.225
-0.235
-0.205
-0.165
-0.155
-0.12
-0.075
-0.045
-0.02
-0.05
-0.1
-0.045
0.01
0.04
0.025
0.075
0.13
0.13
0.05
-0.005
-0.03
-0.01
-0.015
-0.07
-0.08
-0.055
-0.065
-0.005
0.08
0.09
0.08
0.14
0.225
0.255
0.195
0.145
0.085
0.05
0.01
0.01
-0.075
-0.135
-0.125
-0.11
-0.105
0.28
0.85
1.555
1.495
0.155
-0.77
-0.7
-0.485
-0.28
-0.215
-0.14
-0.115
-0.105
-0.04
-0.01
-0.045
-0.075
-0.105
-0.085
-0.06
-0.015
0.035
0.035
0.05
0.08
0.12
0.13
0.145
0.21
0.255
0.26
0.205
0.145
0.09
0.065
0.08
0.075
0.07
0.05
0.02
0.03
0.08
0.135
0.16
0.17
0.215
0.31
0.35
0.34
0.305
0.235
0.14
0.055
0.045
0.015
-0.005
0.005
0.02
-0.05
0.055
