signal
0.145
0.09
0.075
0.08
0.13
0.065
0.165
0.065
0.03
0.015
-0.065
-0.025
0.045
0.105
0.09
0.105
0.18
0.095
0.12
0.295
0.29
-0.61
-1.69
-0.705
0.3
0.365
0.315
0.145
0.055
0.055
0.055
0.11
0.05
0.025
0.06
0.055
0.04
0.04
0.035
-0.04
0.04
0.025
-0.03
-0.03
-0.085
-0.085
-0.1
-0.15
-0.155
-0.24
-0.25
-0.265
-0.255
-0.2
-0.17
-0.025
0.005
-0.035
0.045
0.045
0.055
0.06
0.015
0.075
0.055
0.025
0.06
-0.02
0.03
0.04
0.005
0.045
0.04
0.01
0.0
0.05
0.05
0.025
0.06
0.035
0.04
0.06
0.05
0.05
0.055
0.06
0.07
0.05
0.075
0.1
0.055
0.06
0.085
0.105
0.08
0.065
0.075
0.085
0.08
0.085
0.075
0.095
0.1
0.095
0.1
0.135
0.09
0.095
0.0
-0.065
0.0
0.015
0.015
0.06
0.1
0.115
0.11
0.125
0.15
0.265
0.105
-0.835
-1.47
-0.47
0.395
0.345
0.275
0.065
0.075
0.075
0.075
0.055
0.07
0.065
0.05
0.055
0.04
0.035
0.025
0.02
0.01
0.0
-0.03
-0.04
-0.075
-0.09
-0.14
-0.175
-0.205
-0.235
-0.295
-0.295
-0.275
-0.225
-0.1
-0.05
-0.01
0.025
0.04
0.045
0.055
0.05
0.045
0.045
0.03
0.035
0.02
0.02
0.025
0.0
0.02
0.025
0.015
0.015
0.02
0.025
0.02
0.02
0.04
0.04
0.045
0.05
0.06
0.05
0.045
0.05
0.055
0.05
0.05
0.06
0.055
0.07
0.07
0.075
0.065
0.075
0.08
0.065
0.08
0.085
0.085
0.095
0.1
0.095
0.085
0.09
0.1
0.09
0.105
0.1
0.095
0.09
0.12
0.11
0.07
0.005
-0.045
-0.03
-0.005
0.01
0.035
0.08
0.095
0.095
0.115
0.1
0.21
0.14
-0.735
-1.53
-0.59
0.415
0.305
0.18
0.05
0.055
0.05
0.06
0.06
0.05
0.045
0.04
0.04
0.025
0.03
0.01
0.0
-0.02
-0.03
-0.045
-0.07
-0.09
-0.125
-0.165
-0.195
-0.225
-0.265
-0.3
-0.32
-0.31
-0.245
-0.195
-0.11
-0.04
0.0
0.03
0.035
0.025
0.025
0.03
0.025
0.02
0.01
0.005
0.01
0.0
-0.005
0.005
0.01
0.01
0.005
0.015
0.0
0.005
0.005
0.005
0.015
0.025
0.02
0.02
0.03
0.03
0.025
0.025
0.025
0.025
0.025
0.03
0.025
0.03
0.045
0.04
0.045
0.04
0.05
0.045
0.04
0.055
0.05
0.045
0.045
0.055
0.05
0.05
0.055
0.065
0.075
0.075
0.08
0.08
0.085
0.075
0.09
0.09
0.06
0.0
-0.065
-0.045
0.0
0.035
0.045
0.08
0.115
0.105
0.115
0.12
0.235
0.165
-0.68
-1.455
-0.59
0.44
0.345
0.19
0.085
0.085
0.08
0.075
0.07
0.075
0.07
0.05
0.045
0.045
0.05
0.035
0.02
0.01
0.0
-0.015
-0.045
-0.075
-0.09
-0.125
-0.155
-0.205
-0.245
-0.275
-0.305
-0.295
-0.24
-0.175
-0.08
-0.035
0.0
0.02
0.04
0.03
0.03
0.02
0.035
0.01
0.035
0.04
0.02
0.01
0.015
0.01
0.0
0.02
0.02
0.035
0.0
0.01
0.015
0.03
0.04
0.035
0.035
0.04
0.04
0.045
0.06
0.045
0.045
0.06
0.055
0.045
0.045
0.07
0.075
0.055
0.065
0.07
0.04
0.075
0.07
0.075
0.065
0.045
0.08
0.07
0.07
0.075
0.065
0.065
0.08
0.065
0.075
0.1
0.09
0.105
0.075
0.035
-0.035
-0.05
-0.005
0.03
0.03
0.09
0.13
0.125
0.135
0.14
0.205
0.31
-0.29
-1.37
-0.89
0.16
0.41
0.3
0.125
0.085
0.06
0.065
0.06
0.06
0.06
0.055
0.05
0.03
0.035
0.025
0.02
0.0
0.0
-0.025
-0.04
-0.06
-0.095
-0.115
-0.14
-0.175
-0.225
-0.245
-0.285
-0.295
-0.275
-0.2
-0.13
-0.07
-0.025
0.02
0.03
0.03
0.045
0.045
0.035
0.04
0.03
0.015
0.02
0.0
0.02
0.025
0.03
0.05
0.035
0.035
0.045
0.02
0.03
0.035
0.02
0.035
0.04
0.05
0.06
0.045
0.065
0.065
0.045
0.035
0.06
0.07
0.06
0.06
0.05
0.06
0.045
0.06
0.075
0.08
0.075
0.06
0.03
0.06
0.07
0.08
0.09
0.09
0.08
0.07
0.08
0.08
0.075
0.115
0.06
0.095
0.115
0.115
0.055
0.045
-0.03
-0.065
-0.03
0.035
0.06
0.07
0.105
0.135
0.14
0.11
0.205
0.32
-0.32
-1.435
-0.92
0.07
0.42
0.305
0.13
0.055
0.035
0.09
0.055
0.065
0.05
0.025
0.045
0.025
0.025
0.0
-0.01
-0.01
0.005
-0.025
-0.055
-0.04
-0.09
-0.095
-0.15
-0.17
-0.215
-0.245
-0.255
-0.27
-0.26
-0.215
-0.14
-0.065
-0.02
0.02
0.045
0.045
0.02
0.04
0.04
0.03
0.025
0.03
0.01
0.005
0.015
0.03
0.0
0.005
0.035
0.03
0.01
0.04
0.03
0.0
0.015
0.03
0.025
0.06
0.02
0.045
0.035
0.045
0.035
0.04
0.08
0.08
0.07
0.065
0.085
0.05
0.08
0.055
0.045
0.055
0.1
0.07
0.095
0.09
0.09
0.115
0.085
0.09
0.065
0.08
0.13
0.095
0.01
-0.015
-0.015
-0.04
0.055
0.02
0.14
0.13
0.12
0.135
0.155
0.29
0.27
-0.59
-1.585
-0.64
0.245
0.36
0.315
0.12
0.08
0.065
0.06
0.05
0.065
0.055
0.04
0.045
0.015
0.02
0.005
0.0
-0.02
-0.04
-0.025
-0.055
-0.075
-0.105
-0.135
-0.16
-0.195
-0.23
-0.265
-0.27
-0.275
-0.225
-0.165
-0.105
-0.09
0.02
0.025
0.005
0.025
0.015
0.025
0.03
0.03
0.0
0.015
0.005
0.005
-0.02
0.005
0.0
0.01
0.015
-0.015
0.005
0.04
0.03
0.0
0.025
0.045
0.015
0.025
0.025
0.025
0.045
0.045
0.04
0.02
0.025
0.025
0.02
0.045
0.06
0.055
0.03
0.055
0.055
0.04
0.05
0.06
0.06
0.07
0.09
0.065
0.045
0.065
0.09
0.06
0.09
0.09
0.08
0.07
0.11
0.095
0.045
-0.03
-0.07
-0.03
0.03
0.04
0.055
0.105
0.12
0.125
0.125
0.17
0.24
-0.29
-1.335
-0.995
0.055
0.385
0.3
0.125
0.075
0.075
0.045
0.05
0.07
0.045
0.045
0.04
0.04
0.045
0.03
0.015
0.0
0.0
-0.025
-0.035
-0.065
-0.08
-0.115
-0.155
-0.195
-0.225
-0.26
-0.285
-0.305
-0.275
-0.21
-0.145
-0.07
-0.005
0.01
0.005
0.02
0.045
0.04
0.025
0.015
0.02
0.03
0.01
0.0
0.005
-0.005
0.0
0.005
0.0
0.0
0.005
0.01
0.0
0.0
0.0
0.02
0.02
0.02
0.01
0.02
0.02
0.025
0.03
0.025
0.035
0.025
0.03
0.035
0.035
0.05
0.04
0.035
0.035
0.04
0.05
0.045
0.05
0.05
0.045
0.055
0.07
0.06
0.055
0.055
0.065
0.07
0.07
0.075
0.075
0.08
0.08
0.085
0.08
0.08
0.075
0.105
0.09
0.06
-0.02
-0.065
-0.025
0.015
0.035
0.04
0.095
0.125
0.115
0.125
0.14
0.235
-0.08
-1.035
-1.175
-0.225
0.405
0.29
0.135
0.065
0.055
0.06
0.055
0.055
0.055
0.06
0.04
0.045
0.045
0.015
0.02
0.005
0.0
-0.015
-0.05
-0.06
-0.09
-0.115
-0.15
-0.18
-0.205
-0.255
-0.29
-0.31
-0.285
-0.24
-0.17
-0.09
-0.035
-0.01
0.025
0.035
0.03
0.035
0.03
0.025
0.02
0.005
0.01
0.005
0.005
0.01
0.005
0.005
0.005
0.005
0.005
0.025
0.01
0.01
0.015
0.02
0.015
0.02
0.02
0.035
0.03
0.025
0.025
0.03
0.035
0.035
0.05
0.04
0.045
0.04
0.05
0.05
0.04
0.055
0.05
0.05
0.065
0.055
0.05
0.06
0.075
0.06
0.065
0.065
0.065
0.065
0.075
0.08
0.07
0.08
0.065
0.09
0.085
0.08
0.08
0.1
0.08
0.07
0.0
-0.07
-0.045
-0.015
0.035
0.04
0.075
0.105
0.11
0.11
0.115
0.23
0.195
-0.615
-1.455
-0.65
0.4
0.345
0.185
0.065
0.065
0.075
0.06
0.055
0.05
0.065
0.055
0.06
0.065
0.045
0.035
0.03
0.015
0.015
-0.01
-0.045
-0.05
-0.08
-0.11
-0.145
-0.2
-0.235
-0.265
-0.295
-0.31
-0.255
-0.205
-0.12
-0.04
0.0
0.03
0.045
0.04
0.05
0.05
0.025
0.035
0.02
0.01
0.02
0.015
0.005
0.0
0.005
0.01
0.015
0.0
0.005
0.005
0.0
0.0
0.015
0.0
0.01
0.03
0.03
0.025
0.02
0.04
0.03
0.03
0.035
0.05
0.045
0.035
0.055
0.035
0.04
0.05
0.045
0.06
0.05
0.075
0.065
0.06
0.035
0.025
0.07
0.035
0.04
0.075
0.075
0.065
0.065
0.07
0.065
0.08
0.065
0.085
0.085
0.07
-0.03
-0.105
-0.065
-0.035
0.02
0.06
0.085
0.09
0.11
0.1
0.115
0.28
0.215
-0.66
-1.455
-0.595
0.34
0.345
0.28
0.095
0.06
0.075
0.05
0.08
0.05
0.045
0.055
0.06
0.03
0.03
0.03
0.005
0.015
-0.025
-0.005
-0.02
-0.06
-0.085
-0.115
-0.14
-0.195
-0.225
-0.26
-0.28
-0.29
-0.265
-0.215
-0.13
-0.045
-0.01
0.005
0.03
0.04
0.03
0.005
0.025
0.025
0.015
0.0
0.0
0.0
-0.005
0.0
-0.015
0.0
0.01
0.01
0.01
0.015
0.015
0.025
-0.005
0.03
0.045
0.035
0.025
0.005
0.035
0.05
0.02
0.03
0.03
0.04
0.045
0.045
0.055
0.05
0.055
0.04
0.05
0.055
0.07
0.05
0.055
0.07
0.065
0.06
0.06
0.055
0.075
0.07
0.07
0.085
0.07
0.08
0.085
0.085
0.095
0.085
0.085
0.055
0.0
-0.075
-0.08
-0.035
0.02
0.025
0.055
0.12
0.115
0.11
0.115
0.2
0.245
-0.445
-1.49
-0.85
0.235
0.35
0.245
0.08
0.07
0.06
0.055
0.05
0.05
0.035
0.025
0.035
0.025
0.025
0.01
0.0
-0.01
-0.025
-0.04
-0.045
-0.07
-0.105
-0.135
-0.16
-0.215
-0.25
-0.275
-0.305
-0.315
-0.295
-0.23
-0.15
-0.08
-0.03
0.0
0.015
0.025
0.025
0.03
0.025
0.015
0.015
0.015
0.01
0.005
0.01
0.005
0.0
0.0
0.005
0.0
0.0
0.0
0.01
0.015
0.01
0.01
0.01
0.015
0.01
0.02
0.025
0.025
0.015
0.015
0.025
0.02
0.025
0.025
0.025
0.03
0.04
0.035
0.03
0.035
0.04
0.04
0.03
0.05
0.05
0.045
0.05
0.06
0.05
0.05
0.06
0.055
0.06
0.065
0.07
0.06
0.08
0.07
0.075
0.08
0.075
0.095
0.06
0.025
-0.05
-0.085
-0.04
0.015
0.025
0.055
0.1
0.12
0.115
0.125
0.165
0.26
-0.265
-1.28
-0.955
0.05
0.385
0.255
0.075
0.065
0.08
0.075
0.07
0.065
0.045
0.045
0.05
0.035
0.035
0.025
0.01
0.0
0.0
-0.025
-0.045
-0.05
-0.075
-0.115
-0.155
-0.18
-0.23
-0.275
-0.305
-0.315
-0.29
-0.26
-0.145
-0.075
-0.05
-0.015
0.01
0.03
0.03
0.035
0.04
0.015
0.02
0.03
0.01
0.02
0.01
0.01
0.01
0.015
0.02
0.015
0.005
0.015
0.01
0.015
0.035
0.02
0.02
0.02
0.03
0.05
0.02
0.04
0.055
0.03
0.03
0.05
0.04
0.04
0.025
0.05
0.07
0.055
0.05
0.055
0.06
0.055
0.06
0.045
0.02
0.07
0.065
0.05
0.08
0.095
0.085
0.06
0.105
0.065
0.07
0.065
0.085
0.065
0.08
0.09
0.115
0.095
0.055
-0.005
-0.08
-0.055
0.0
0.035
0.045
0.08
0.12
0.11
0.115
0.135
0.315
0.035
-1.025
-1.26
-0.305
0.385
0.32
0.215
0.085
0.07
0.06
0.06
0.075
0.05
0.025
0.03
0.05
0.03
0.03
0.015
0.005
-0.015
-0.005
-0.07
-0.065
-0.08
-0.1
-0.125
-0.17
-0.205
-0.22
-0.27
-0.305
-0.27
-0.25
-0.21
-0.115
-0.055
-0.02
0.0
0.015
0.015
0.045
0.03
0.0
0.015
0.015
-0.005
-0.01
0.01
-0.005
0.02
-0.01
0.0
0.0
0.0
0.0
0.005
0.005
0.005
0.01
0.035
0.015
0.01
0.02
0.04
0.04
0.01
0.03
0.035
0.045
0.04
0.055
0.055
0.035
0.035
0.055
0.075
0.045
0.035
0.08
0.075
0.07
0.06
0.055
0.075
0.07
0.055
0.065
0.065
0.055
0.075
0.08
0.08
0.075
0.105
0.09
0.025
0.015
-0.06
-0.055
-0.025
0.01
0.025
0.095
0.105
0.11
0.12
0.115
0.28
0.155
-0.775
-1.535
-0.57
0.35
0.325
0.225
0.085
0.075
0.075
0.065
0.07
0.05
0.05
0.045
0.05
0.025
0.015
0.02
0.01
-0.01
-0.02
-0.015
-0.05
-0.065
-0.105
-0.13
-0.16
-0.2
-0.235
-0.275
-0.3
-0.295
-0.26
-0.18
-0.12
-0.05
-0.005
0.015
0.035
0.035
0.045
0.03
0.03
0.035
0.01
0.01
0.015
0.0
0.0
0.005
0.005
0.0
0.0
0.005
0.0
0.0
0.005
0.015
0.02
0.015
0.025
0.03
0.02
0.025
0.03
0.03
0.025
0.025
0.035
0.025
0.03
0.035
0.025
0.03
0.04
0.035
0.04
0.045
0.045
0.035
0.055
0.045
0.045
0.05
0.05
0.055
0.055
0.05
0.05
0.06
0.065
0.055
0.07
0.07
0.075
0.07
0.075
0.085
0.07
0.08
0.095
0.09
0.055
0.0
-0.05
-0.04
-0.005
0.025
0.045
0.075
0.115
0.115
0.125
0.115
0.23
0.185
-0.68
-1.515
-0.685
0.405
0.335
0.19
0.075
0.08
0.075
0.06
0.075
0.06
0.07
0.06
0.065
0.04
0.045
0.035
0.02
0.0
0.0
-0.02
-0.05
-0.065
-0.085
-0.13
-0.165
-0.205
-0.245
-0.285
-0.315
-0.315
-0.285
-0.215
-0.13
-0.065
-0.01
0.02
0.03
0.045
0.05
0.035
0.035
0.035
0.02
0.03
0.02
0.025
0.015
0.005
0.005
0.005
0.01
0.015
0.005
0.01
0.01
0.005
0.02
0.015
0.015
0.01
0.025
0.02
0.015
0.03
0.025
0.025
0.02
0.03
0.025
0.025
0.04
0.03
0.035
0.04
0.035
0.03
0.04
0.04
0.035
0.04
0.045
0.04
0.045
0.055
0.05
0.05
0.06
0.055
0.06
0.07
0.06
0.06
0.065
0.06
0.075
0.075
0.08
0.07
0.08
0.07
0.1
0.07
0.04
-0.02
-0.09
-0.04
0.0
0.03
0.04
0.085
0.115
0.105
0.115
0.125
0.235
0.0
-0.91
-1.235
-0.36
0.415
0.3
0.13
0.07
0.065
0.07
0.075
0.07
0.055
0.06
0.045
0.05
0.035
0.04
0.02
0.015
-0.005
-0.01
-0.025
-0.05
-0.08
-0.11
-0.14
-0.185
-0.22
-0.265
-0.3
-0.33
-0.315
-0.27
-0.205
-0.12
-0.06
-0.01
0.02
0.045
0.02
0.035
0.04
0.04
0.03
0.02
0.025
0.015
0.01
0.01
0.015
0.01
0.01
0.01
0.0
0.005
0.01
0.02
0.005
0.015
0.01
0.01
0.01
0.005
0.015
0.005
0.015
0.015
0.025
0.04
0.025
0.015
0.025
0.035
0.025
0.03
0.025
0.02
0.045
0.045
0.035
0.02
0.045
0.045
0.045
0.055
0.045
0.055
0.055
0.06
0.05
0.065
0.06
0.06
0.08
0.08
0.07
0.07
0.08
0.07
0.08
0.09
0.085
0.075
0.11
0.1
0.035
-0.04
-0.045
-0.035
0.015
0.03
0.06
0.105
0.115
0.12
0.125
0.18
0.3
-0.14
-1.19
-1.095
-0.105
0.435
0.335
0.185
0.095
0.095
0.09
0.08
0.095
0.08
0.08
0.055
0.075
0.045
0.07
0.035
0.025
0.025
0.0
-0.01
-0.025
-0.05
-0.105
-0.12
-0.145
-0.195
-0.235
-0.265
-0.28
-0.285
-0.26
-0.19
-0.095
-0.035
0.0
0.015
0.055
0.06
0.06
0.07
0.035
0.045
0.025
0.015
0.01
0.01
0.03
0.015
0.02
0.03
0.01
0.035
0.01
0.01
0.015
0.02
0.025
0.03
0.045
0.025
0.025
0.035
0.035
0.035
0.045
0.035
0.03
0.0
0.075
0.05
0.04
0.045
0.04
0.035
0.05
0.065
0.04
0.08
0.04
0.05
0.035
0.075
0.06
0.06
0.06
0.055
0.085
0.055
0.045
0.06
0.085
0.065
0.095
0.1
0.105
0.05
-0.045
-0.055
-0.07
-0.025
0.01
0.025
0.08
0.115
0.125
0.125
0.12
0.3
0.1
-0.885
-1.43
-0.425
0.37
0.355
0.26
0.105
0.06
0.075
0.1
0.09
0.065
0.07
0.06
0.05
0.06
0.04
0.04
0.015
0.01
-0.015
-0.005
-0.03
-0.065
-0.095
-0.115
-0.17
-0.21
-0.225
-0.28
-0.29
-0.305
-0.295
-0.195
-0.15
-0.05
-0.015
0.01
0.025
0.03
0.045
0.035
0.025
0.01
0.025
0.0
0.015
0.0
0.015
0.0
-0.005
0.01
0.005
-0.02
-0.01
-0.005
0.0
0.0
-0.01
0.005
0.005
0.02
0.03
0.025
0.015
0.025
0.03
0.02
0.0
0.03
0.035
0.035
0.045
0.03
0.035
0.04
0.035
0.06
0.05
0.07
0.07
0.065
0.045
0.06
0.08
0.08
0.075
0.06
0.08
0.095
0.085
0.085
0.095
0.085
0.09
0.09
0.1
0.1
0.1
0.115
0.12
0.08
0.025
-0.04
-0.045
-0.015
0.035
0.06
0.1
0.12
0.125
0.125
0.12
0.25
0.215
-0.63
-1.59
-0.695
0.375
0.345
0.245
0.09
0.065
0.075
0.07
0.055
0.07
0.06
0.035
0.045
0.055
0.04
0.03
0.02
0.005
-0.005
-0.035
-0.045
-0.07
-0.095
-0.135
-0.17
-0.205
-0.245
-0.295
-0.315
-0.33
-0.295
-0.225
-0.15
-0.08
-0.005
0.02
0.03
0.05
0.045
0.05
0.04
0.04
0.035
0.04
0.02
0.015
0.02
0.015
0.0
-0.005
0.0
0.0
0.0
0.0
-0.005
0.005
0.0
0.01
0.025
0.02
0.01
0.015
0.02
0.025
0.025
0.02
0.03
0.025
0.03
0.03
0.03
0.025
0.035
0.035
0.04
0.04
0.04
0.04
0.05
0.045
0.045
0.05
0.05
0.05
0.05
0.06
0.055
0.06
0.075
0.08
0.07
0.075
0.075
0.075
0.085
0.075
0.085
0.09
0.09
0.085
0.095
0.1
0.1
0.105
0.115
0.115
0.085
0.035
-0.03
-0.035
0.015
0.055
0.07
0.105
0.14
0.155
0.16
0.15
0.265
0.24
-0.58
-1.49
-0.68
0.435
0.37
0.225
0.105
0.105
0.1
0.085
0.085
0.075
0.07
0.065
0.065
0.05
0.055
0.04
0.025
0.015
0.0
-0.01
-0.035
-0.06
-0.08
-0.115
-0.15
-0.205
-0.23
-0.27
-0.31
-0.31
-0.285
-0.23
-0.145
-0.055
-0.005
0.03
0.05
0.06
0.06
0.065
0.065
0.055
0.05
0.055
0.05
0.045
0.04
0.04
0.035
0.035
0.045
0.03
0.035
0.035
0.04
0.035
0.04
0.035
0.05
0.035
0.035
0.04
0.05
0.045
0.05
0.055
0.05
0.04
0.045
0.05
0.04
0.045
0.035
0.05
0.035
0.03
0.04
0.045
0.04
0.045
0.04
0.045
0.045
0.045
0.05
0.05
0.055
0.06
0.06
0.065
0.065
0.065
0.085
0.075
0.08
0.075
0.08
0.08
0.075
0.09
0.1
0.1
0.105
0.115
0.075
0.015
-0.05
-0.05
-0.015
0.05
0.07
0.1
0.14
0.135
0.15
0.14
0.24
0.245
-0.49
-1.475
-0.73
0.385
0.37
0.23
0.09
0.085
0.095
0.09
0.09
0.08
0.06
0.075
0.07
0.055
0.05
0.04
0.045
0.03
0.01
-0.02
-0.01
-0.04
-0.075
-0.11
-0.14
-0.21
-0.24
-0.265
-0.33
-0.335
-0.315
-0.245
-0.15
-0.075
-0.045
0.0
0.05
0.045
0.055
0.065
0.025
0.05
0.05
0.05
0.05
0.04
0.04
0.035
0.025
0.02
0.025
0.02
0.035
0.035
0.035
0.02
0.03
0.03
0.03
0.015
0.03
0.04
0.015
0.04
0.015
0.015
0.02
0.04
0.055
0.045
0.055
0.04
0.04
0.03
0.06
0.03
0.055
0.04
0.05
0.055
0.065
0.085
0.045
0.09
0.07
0.075
0.07
0.065
0.06
0.07
0.07
0.075
0.085
0.07
0.095
0.06
0.065
0.055
0.125
0.1
0.05
0.005
-0.06
-0.055
-0.015
0.025
0.065
0.11
0.135
0.08
0.13
0.155
0.34
-0.015
-1.13
-1.24
-0.255
0.405
0.345
0.225
0.085
0.09
0.075
0.06
0.075
0.06
0.015
0.075
0.08
0.03
0.025
0.035
0.025
0.0
-0.02
-0.03
-0.045
-0.09
-0.105
-0.1
-0.14
-0.215
-0.245
-0.28
-0.27
-0.31
-0.275
-0.21
-0.11
-0.045
0.0
0.05
0.035
0.065
0.045
0.035
0.04
0.02
0.035
0.04
0.01
0.01
0.025
0.02
0.02
-0.02
0.01
0.01
0.015
0.02
0.01
0.015
0.03
0.015
0.005
0.03
0.02
0.04
0.03
0.04
0.045
0.045
0.045
0.045
0.035
0.02
0.06
0.055
0.03
0.05
0.05
0.05
0.055
0.05
0.065
0.065
0.045
0.06
0.035
0.055
0.065
0.08
0.075
0.075
0.07
0.065
0.085
0.07
0.095
0.095
0.11
0.09
0.045
-0.04
-0.05
-0.04
0.02
0.04
0.06
0.095
0.13
0.125
0.13
0.185
0.275
-0.345
-1.455
-0.965
0.1
0.39
0.305
0.145
0.075
0.06
0.07
0.08
0.07
0.06
0.06
0.055
0.055
0.05
0.02
0.01
0.0
-0.005
-0.015
-0.03
-0.045
-0.08
-0.12
-0.155
-0.2
-0.245
-0.275
-0.32
-0.345
-0.325
-0.26
-0.18
-0.11
-0.045
0.01
0.015
0.03
0.035
0.04
0.045
0.03
0.025
0.03
0.02
0.025
0.015
0.0
-0.005
-0.005
0.005
0.0
0.0
0.0
0.0
0.005
0.01
0.015
0.015
0.015
0.01
0.015
0.02
0.02
0.03
0.025
0.015
0.02
0.02
0.025
0.025
0.035
0.03
0.02
0.025
0.035
0.03
0.03
0.045
0.035
0.035
0.035
0.04
0.035
0.045
0.045
0.045
0.05
0.05
0.055
0.05
0.06
0.055
0.07
0.065
0.065
0.07
0.065
0.06
0.075
0.075
0.075
0.075
0.075
0.09
0.065
0.015
-0.05
-0.075
-0.015
0.02
0.035
0.07
0.11
0.12
0.125
0.12
0.195
0.245
-0.45
-1.465
-0.825
0.275
0.345
0.225
0.09
0.095
0.08
0.08
0.075
0.075
0.08
0.07
0.065
0.06
0.06
0.045
0.035
0.025
0.005
-0.01
-0.02
-0.055
-0.08
-0.115
-0.15
-0.19
-0.23
-0.27
-0.32
-0.35
-0.33
-0.265
-0.175
-0.1
-0.045
0.0
0.02
0.035
0.04
0.04
0.035
0.025
0.03
0.035
0.03
0.02
0.01
0.01
0.0
0.0
0.01
0.01
0.005
0.005
0.0
0.01
0.015
0.01
0.01
0.015
0.03
0.025
0.03
0.03
0.025
0.025
0.02
0.03
0.03
0.04
0.025
0.025
0.04
0.055
0.04
0.05
0.055
0.04
0.045
0.045
0.035
0.04
0.055
0.045
0.045
0.055
0.065
0.06
0.065
0.07
0.065
0.075
0.07
0.07
0.07
0.07
0.08
0.065
0.095
0.085
0.075
0.105
0.085
0.095
0.085
0.05
-0.065
-0.08
-0.01
0.03
0.03
0.06
0.105
0.12
0.12
0.11
0.18
0.305
-0.33
-1.435
-0.95
0.11
0.405
0.305
0.13
0.08
0.095
0.05
0.06
0.075
0.065
0.075
0.07
0.04
0.035
0.065
0.02
-0.005
0.0
-0.005
-0.035
-0.035
-0.07
-0.11
-0.17
-0.17
-0.18
-0.27
-0.31
-0.325
-0.34
-0.27
-0.205
-0.11
-0.03
0.01
0.025
0.04
0.03
0.05
0.025
0.045
0.085
0.035
0.005
0.045
-0.005
0.015
0.025
0.005
0.025
0.025
0.035
0.0
0.025
0.01
0.05
0.03
0.025
0.025
0.04
0.045
0.035
0.02
0.06
0.06
0.035
0.04
0.035
0.065
0.065
0.04
0.04
0.06
0.07
0.04
0.07
0.055
0.055
0.06
0.055
0.045
0.075
0.095
0.07
0.08
0.06
0.07
0.115
0.09
0.115
0.09
0.11
0.095
0.07
0.005
-0.055
-0.06
0.02
0.08
0.07
0.105
0.105
0.145
0.16
0.185
0.305
-0.245
-1.315
-1.025
-0.115
0.41
0.375
0.225
0.07
0.09
0.115
0.055
0.07
0.06
0.08
0.035
0.075
0.02
0.04
0.015
0.02
0.0
-0.03
-0.025
-0.065
-0.1
-0.11
-0.14
-0.18
-0.23
-0.24
-0.29
-0.31
-0.305
-0.265
-0.205
-0.115
-0.045
-0.01
0.035
0.045
0.025
0.02
0.03
0.015
0.05
0.02
0.03
0.03
0.015
-0.005
-0.005
0.0
-0.005
0.02
0.01
0.015
0.0
0.01
0.02
0.02
0.01
0.025
0.03
0.02
0.035
0.05
0.045
0.045
0.035
0.05
0.05
0.04
0.05
0.05
0.05
0.055
0.07
0.065
0.065
0.07
0.07
0.07
0.065
0.075
0.08
0.08
0.09
0.07
0.075
0.085
0.09
0.095
0.105
0.075
-0.005
-0.07
-0.055
-0.02
0.035
0.035
0.08
0.115
0.125
0.105
0.125
0.23
0.12
-0.74
-1.535
-0.575
0.385
0.325
0.215
0.07
0.06
0.055
0.055
0.06
0.06
0.055
0.04
0.045
0.045
0.025
0.01
0.015
0.0
-0.01
-0.03
-0.05
-0.075
-0.105
-0.14
-0.175
-0.225
-0.265
-0.3
-0.345
-0.34
-0.3
-0.25
-0.155
-0.085
-0.02
0.015
0.02
0.035
0.03
0.03
0.035
0.025
0.02
0.025
0.01
0.005
0.005
0.005
0.0
0.01
0.0
0.0
0.0
0.0
0.0
0.0
0.01
0.015
0.02
0.015
0.01
0.005
0.025
0.015
0.01
0.03
0.025
0.025
0.02
0.03
0.02
0.025
0.025
0.03
0.03
0.025
0.03
0.04
0.03
0.035
0.045
0.035
0.035
0.04
0.05
0.035
0.03
0.05
0.04
0.05
0.045
0.055
0.05
0.05
0.06
0.055
0.06
0.065
0.065
0.06
0.06
0.075
0.065
0.085
0.06
0.015
-0.04
-0.075
-0.03
0.015
0.03
0.045
0.095
0.105
0.115
0.115
0.16
0.225
-0.365
-1.365
-0.9
0.165
0.335
0.22
0.075
0.07
0.07
0.065
0.07
0.065
0.065
0.06
0.055
0.055
0.04
0.03
0.025
0.01
0.005
-0.01
-0.025
-0.05
-0.075
-0.11
-0.15
-0.185
-0.225
-0.275
-0.31
-0.34
-0.33
-0.28
-0.2
-0.105
-0.055
-0.005
0.015
0.04
0.04
0.04
0.04
0.035
0.035
0.03
0.03
0.015
0.005
0.01
0.02
0.02
0.01
0.0
0.015
0.005
0.005
0.01
0.015
0.02
0.01
0.005
0.015
0.015
0.015
0.02
0.025
0.02
0.02
0.02
0.025
0.025
0.03
0.035
0.04
0.025
0.03
0.035
0.035
0.04
0.04
0.035
0.04
0.04
0.045
0.045
0.05
0.055
0.05
0.05
0.045
0.06
0.065
0.065
0.07
0.06
0.065
0.07
0.065
0.075
0.075
0.075
0.09
0.07
0.04
-0.025
-0.085
-0.045
0.0
0.025
0.05
0.08
0.105
0.115
0.125
0.13
0.235
-0.04
-0.95
-1.17
-0.29
0.415
0.3
0.145
0.085
0.07
0.075
0.07
0.07
0.065
0.07
0.055
0.065
0.05
0.045
0.035
0.025
0.01
0.0
-0.02
-0.045
-0.065
-0.085
-0.125
-0.165
-0.21
-0.25
-0.29
-0.33
-0.34
-0.29
-0.23
-0.15
-0.065
-0.02
0.01
0.03
0.035
0.035
0.03
0.035
0.03
0.03
0.03
0.015
0.015
0.015
0.005
0.01
0.005
0.03
0.015
0.015
0.02
0.015
0.02
0.015
0.02
0.0
0.03
0.025
0.025
0.035
0.015
0.01
0.02
0.045
0.03
0.035
0.03
0.035
0.035
0.025
0.04
0.035
0.04
0.045
0.045
0.04
0.04
0.05
0.055
0.06
0.05
0.045
0.05
0.07
0.06
0.06
0.05
0.06
0.075
0.07
0.075
0.07
0.085
0.075
0.08
0.085
0.07
0.1
0.09
0.04
-0.065
-0.085
-0.045
0.025
0.03
0.07
0.105
0.11
0.115
0.13
0.2
0.29
-0.32
-1.395
-0.905
0.085
0.4
0.31
0.135
0.075
0.075
0.065
0.06
0.08
0.065
0.08
0.05
0.035
0.04
0.035
0.035
0.0
0.0
0.01
-0.025
-0.06
-0.06
-0.105
-0.145
-0.175
-0.205
-0.25
-0.305
-0.33
-0.315
-0.25
-0.2
-0.1
-0.045
-0.005
0.025
0.045
0.05
0.045
0.045
0.025
0.045
0.025
0.03
0.005
0.015
-0.005
0.02
0.005
0.015
0.0
0.02
0.0
0.035
0.005
0.04
0.01
0.05
0.01
0.06
0.0
0.065
-0.005
0.07
0.01
0.085
0.005
0.095
0.015
0.105
0.02
0.0
0.075
0.005
0.07
0.005
0.07
0.005
0.07
0.02
0.06
0.03
0.07
0.025
0.07
0.04
0.07
0.05
0.075
0.055
0.08
0.06
0.08
0.07
0.085
0.08
0.055
-0.005
-0.075
-0.065
-0.02
0.015
0.035
0.07
0.115
0.11
0.11
0.115
0.22
0.17
-0.64
-1.47
-0.665
0.39
0.345
0.195
0.075
0.075
0.07
0.06
0.07
0.07
0.055
0.05
0.045
0.04
0.035
0.03
0.015
0.005
-0.01
-0.045
-0.05
-0.065
-0.095
-0.135
-0.175
-0.22
-0.26
-0.3
-0.33
-0.35
-0.325
-0.26
-0.17
-0.1
-0.04
0.0
0.02
0.03
0.035
0.035
0.035
0.035
0.03
0.02
0.02
0.02
0.01
0.01
0.01
0.01
0.005
0.015
0.01
0.015
0.02
0.015
0.02
0.02
0.02
0.025
0.04
0.035
0.035
0.035
0.04
0.04
0.03
0.04
0.04
0.035
0.045
0.05
0.05
0.055
0.05
0.05
0.05
0.055
0.06
0.05
0.06
0.055
0.055
0.065
0.06
0.055
0.07
0.06
0.07
0.075
0.075
0.08
0.07
0.075
0.075
0.095
0.095
0.09
0.085
0.105
0.08
0.06
-0.01
-0.07
-0.045
0.0
0.03
0.06
0.09
0.125
0.12
0.13
0.135
0.24
0.05
-0.815
-1.245
-0.41
0.43
0.32
0.165
0.09
0.09
0.08
0.085
0.08
0.06
0.075
0.06
0.055
0.04
0.05
0.035
0.025
0.015
0.005
-0.025
-0.025
-0.05
-0.08
-0.125
-0.15
-0.2
-0.255
-0.295
-0.305
-0.32
-0.31
-0.25
-0.16
-0.07
-0.015
0.015
0.03
0.03
0.03
0.055
0.045
0.03
0.035
0.04
0.035
0.025
0.02
0.02
0.02
0.01
0.005
0.005
0.01
0.01
0.01
0.01
0.02
0.015
0.015
0.01
0.015
0.015
0.02
0.025
0.02
0.025
0.03
0.035
0.025
0.03
0.03
0.035
0.03
0.04
0.03
0.05
0.04
0.04
0.045
0.045
0.04
0.055
0.055
0.065
0.055
0.055
0.06
0.065
0.07
0.075
0.065
0.095
0.08
0.05
-0.02
-0.085
-0.06
-0.005
0.02
0.035
0.09
0.11
0.11
0.115
0.12
0.235
0.11
-0.745
-1.295
-0.49
0.405
0.325
0.165
0.065
0.06
0.075
0.06
0.07
0.06
0.065
0.06
0.07
0.055
0.05
0.035
0.035
0.015
0.015
-0.01
-0.025
-0.05
-0.08
-0.105
-0.145
-0.195
-0.24
-0.295
-0.315
-0.33
-0.295
-0.21
-0.135
-0.065
-0.015
0.03
0.03
0.05
0.04
0.055
0.045
0.045
0.03
0.03
0.025
0.02
0.015
0.015
0.015
0.03
0.015
0.015
0.03
0.04
0.025
0.02
0.04
0.035
0.035
0.02
0.025
0.055
0.04
0.01
0.04
0.06
0.055
0.01
0.05
0.05
0.03
0.075
0.04
0.05
0.065
0.07
0.1
0.04
0.08
0.055
0.125
0.11
0.045
0.1
0.055
0.1
0.08
0.105
0.105
0.08
0.095
0.045
-0.02
-0.08
-0.08
0.005
0.045
0.06
0.11
0.15
0.14
0.135
0.11
0.26
0.08
-0.815
-1.165
-0.405
0.435
0.35
0.165
0.095
0.065
0.08
0.075
0.05
0.05
0.06
0.075
0.08
0.065
0.05
0.01
0.04
0.03
0.0
-0.04
0.02
-0.07
-0.09
-0.155
-0.165
-0.205
-0.225
-0.27
-0.325
-0.325
-0.315
-0.255
-0.14
-0.03
0.005
-0.015
0.03
0.06
0.035
0.14
0.055
0.11
0.075
0.065
0.065
0.065
0.03
0.055
0.045
0.03
0.04
0.07
0.095
0.03
0.08
0.035
0.0
0.04
0.08
0.07
0.055
0.09
0.09
0.09
0.07
0.06
0.05
0.07
0.13
0.075
0.095
0.065
0.075
0.055
0.095
0.09
0.07
0.135
0.08
0.045
-0.04
-0.095
-0.06
0.015
0.055
0.035
0.1
0.105
0.145
0.16
0.11
0.32
0.255
-0.62
-1.49
-0.68
0.255
0.35
0.305
0.105
0.06
0.04
0.06
0.07
0.07
0.02
0.005
0.09
0.04
-0.005
0.055
0.0
-0.01
-0.005
-0.015
-0.015
-0.07
-0.06
-0.085
-0.15
-0.18
-0.21
-0.29
-0.325
-0.3
-0.26
-0.185
-0.13
-0.05
0.03
0.05
0.03
0.075
0.08
0.03
0.07
0.04
0.04
0.005
0.0
0.0
0.0
0.035
0.045
0.015
0.025
0.03
-0.005
0.035
-0.005
0.045
0.06
0.03
0.03
0.05
0.055
0.085
0.085
0.07
0.04
0.1
0.09
0.095
0.11
0.07
0.105
0.095
0.105
0.085
0.095
0.03
-0.025
-0.035
-0.01
0.03
0.07
0.125
0.11
0.135
0.085
0.185
0.225
0.36
-0.275
-1.325
-1.045
-0.09
0.415
0.37
0.24
0.085
0.07
0.12
0.14
0.035
0.11
0.1
0.055
0.085
0.075
0.0
0.025
0.045
-0.005
0.01
-0.015
-0.1
-0.065
-0.095
-0.075
-0.195
-0.23
-0.26
-0.26
-0.29
-0.255
-0.205
-0.18
-0.04
-0.05
0.025
0.06
0.05
0.075
0.085
0.04
0.085
0.055
0.08
0.035
0.055
0.015
0.11
0.07
0.025
0.04
0.06
0.1
0.04
0.075
0.06
0.085
0.075
0.06
0.075
0.105
0.065
0.115
0.1
0.1
0.08
0.115
0.1
0.055
-0.04
-0.085
0.005
0.02
0.03
0.065
0.12
0.11
0.125
0.105
0.14
0.295
0.08
-0.855
-1.48
-0.545
0.315
0.33
0.29
0.1
0.06
0.085
0.085
0.06
0.04
0.06
0.055
0.045
0.06
0.03
0.03
0.005
0.005
-0.015
-0.01
-0.04
-0.07
-0.07
-0.135
-0.165
-0.22
-0.225
-0.285
-0.29
-0.33
-0.24
-0.145
-0.065
0.01
0.005
0.065
0.065
0.06
0.075
0.075
0.045
0.06
0.06
0.055
0.035
0.02
0.055
0.025
0.01
0.025
0.025
0.015
0.025
0.04
0.035
0.045
0.035
0.045
0.055
0.045
0.055
0.04
0.065
0.065
0.07
0.05
0.065
0.06
0.07
0.085
0.07
0.085
0.095
0.07
0.07
0.095
0.105
0.115
0.09
0.055
0.015
-0.04
-0.05
-0.025
0.02
0.025
0.085
0.12
0.12
0.12
0.105
0.175
0.23
-0.355
-1.38
-0.935
0.095
0.375
0.315
0.135
0.07
0.06
0.07
0.07
0.05
0.04
0.05
0.05
0.05
0.04
0.03
0.0
0.0
-0.01
-0.015
-0.03
-0.055
-0.09
-0.115
-0.165
-0.195
-0.21
-0.28
-0.305
-0.32
-0.305
-0.24
-0.165
-0.095
-0.03
0.0
0.015
0.02
0.035
0.04
0.025
0.025
0.025
0.03
0.0
-0.015
-0.02
-0.015
-0.005
0.0
0.005
0.015
0.005
0.0
0.015
0.0
0.005
0.02
0.02
0.035
0.015
0.02
0.02
0.01
0.015
0.035
0.025
0.035
0.025
0.02
0.025
0.065
0.055
0.04
0.015
0.015
0.05
0.04
0.06
0.065
0.03
0.06
0.045
0.055
0.06
0.005
0.075
0.07
0.06
0.075
0.08
0.065
0.06
0.045
0.065
0.085
0.09
0.08
0.08
0.1
0.1
0.08
0.06
-0.03
-0.07
-0.02
0.02
0.03
0.05
0.08
0.115
0.145
0.115
0.135
0.265
-0.09
-1.135
-1.255
-0.21
0.39
0.315
0.205
0.08
0.095
0.07
0.05
0.07
0.06
0.08
0.06
0.06
0.035
0.04
0.015
0.045
0.005
-0.01
0.0
-0.025
-0.07
-0.09
-0.1
-0.165
-0.19
-0.235
-0.28
-0.295
-0.29
-0.285
-0.22
-0.155
-0.045
-0.015
0.005
0.015
0.055
0.04
0.035
0.02
0.03
0.05
0.025
0.02
0.025
0.025
0.005
0.02
0.04
0.0
0.02
0.02
0.01
0.065
0.01
0.025
0.05
0.025
0.04
0.07
0.025
0.02
0.06
0.075
0.02
0.055
0.07
0.04
0.035
0.09
0.065
0.07
0.05
0.06
0.07
0.035
0.1
0.09
0.025
0.1
0.085
0.075
0.09
0.085
0.1
0.06
0.095
0.085
0.095
0.08
0.075
0.11
0.115
0.08
0.03
-0.015
-0.03
-0.03
0.03
0.025
0.09
0.11
0.125
0.11
0.13
0.25
0.28
-0.55
-1.605
-0.805
0.17
0.37
0.33
0.155
0.095
0.035
0.05
0.1
0.06
0.035
0.07
0.085
0.055
0.02
0.03
0.015
0.01
0.0
0.005
-0.045
-0.07
-0.055
-0.11
-0.13
-0.175
-0.22
-0.24
-0.29
-0.28
-0.29
-0.245
-0.16
-0.085
-0.03
0.01
0.04
0.02
0.06
0.03
0.035
0.015
0.02
0.04
0.02
0.02
0.015
0.0
0.0
0.005
0.005
0.0
0.0
0.025
0.02
0.015
0.01
0.02
0.015
0.03
0.025
0.045
0.035
0.05
0.055
0.035
0.055
0.03
0.045
0.045
0.045
0.06
0.06
0.05
0.055
0.065
0.06
0.06
0.06
0.07
0.07
0.07
0.08
0.08
0.085
0.09
0.075
0.03
-0.025
-0.065
-0.03
-0.005
0.025
0.035
0.085
0.11
0.1
0.105
0.11
0.225
0.07
-0.81
-1.465
-0.44
0.425
0.31
0.185
0.075
0.07
0.055
0.065
0.06
0.055
0.05
0.04
0.05
0.045
0.03
0.02
0.02
0.0
-0.01
-0.025
-0.045
-0.075
-0.11
-0.13
-0.17
-0.22
-0.265
-0.315
-0.345
-0.35
-0.305
-0.205
-0.125
-0.065
-0.005
0.025
0.035
0.035
0.045
0.05
0.045
0.025
0.055
0.02
0.005
0.03
0.02
0.0
0.025
0.025
0.005
0.015
0.015
0.03
0.02
0.02
0.02
0.025
0.02
0.05
0.035
0.04
0.06
0.04
0.035
0.045
0.055
0.055
0.045
0.05
0.035
0.055
0.065
0.075
0.055
0.06
0.06
0.06
0.075
0.065
0.105
0.05
0.075
0.09
0.07
0.085
0.09
0.115
0.05
0.025
-0.035
-0.08
-0.035
0.035
0.035
0.05
0.11
0.115
0.13
0.125
0.195
0.27
-0.39
-1.475
-0.915
0.17
0.385
0.31
0.135
0.085
0.075
0.085
0.07
0.085
0.075
0.025
0.04
0.06
0.045
0.055
0.02
0.02
0.01
-0.015
-0.025
-0.03
-0.08
-0.085
-0.125
-0.215
-0.19
-0.255
-0.31
-0.34
-0.305
-0.25
-0.165
-0.06
-0.065
0.01
0.065
0.04
0.005
0.055
0.095
0.035
0.05
0.055
0.055
0.035
0.045
0.025
0.035
0.045
0.06
0.04
0.035
0.05
0.05
0.06
0.045
0.06
0.05
0.065
0.065
0.045
0.055
0.06
0.07
0.06
0.05
0.08
0.095
0.075
0.07
0.09
0.065
0.07
0.08
0.09
0.105
0.08
0.08
0.1
0.105
0.11
0.065
0.01
-0.035
-0.05
-0.035
0.05
0.04
0.08
0.11
0.12
0.11
0.115
0.23
0.25
-0.505
-1.57
-0.79
0.245
0.375
0.305
0.105
0.08
0.06
0.065
0.055
0.045
0.04
0.035
0.04
0.045
0.01
0.005
0.01
0.0
-0.025
-0.03
-0.05
-0.08
-0.105
-0.125
-0.175
-0.215
-0.235
-0.295
-0.32
-0.335
-0.31
-0.245
-0.155
-0.075
-0.02
0.01
0.025
0.025
0.035
0.04
0.035
0.025
0.025
0.03
0.01
0.01
0.01
0.005
0.005
0.01
0.015
0.015
0.005
0.015
0.03
0.02
0.025
0.025
0.035
0.035
0.025
0.03
0.035
0.035
0.035
0.04
0.04
0.035
0.045
0.05
0.04
0.045
0.06
0.06
0.055
0.065
0.06
0.06
0.06
0.07
0.08
0.07
0.065
0.075
0.09
0.065
0.08
0.085
0.09
0.085
0.05
-0.015
-0.07
-0.07
-0.015
0.025
0.03
0.06
0.11
0.125
0.125
0.11
0.2
0.185
-0.605
-1.485
-0.655
0.41
0.345
0.175
0.08
0.065
0.07
0.06
0.065
0.07
0.06
0.05
0.055
0.045
0.035
0.03
0.015
0.0
-0.015
-0.02
-0.04
-0.055
-0.095
-0.125
-0.165
-0.205
-0.25
-0.29
-0.32
-0.345
-0.33
-0.235
-0.15
-0.105
-0.01
0.005
0.01
0.03
0.045
0.04
0.005
0.03
0.045
0.03
0.03
0.005
0.01
0.035
0.0
0.03
0.015
0.015
0.03
0.02
0.0
0.02
0.065
0.015
0.03
0.03
0.035
0.005
0.035
0.06
0.05
0.02
0.035
0.035
0.04
0.055
0.06
0.065
0.05
0.025
0.06
0.07
0.035
0.055
0.095
0.08
0.04
0.085
0.075
0.1
0.075
0.08
0.09
0.095
0.105
0.085
0.1
0.075
0.11
0.09
0.055
-0.03
-0.055
-0.035
0.0
0.02
0.04
0.095
0.12
0.1
0.125
0.135
0.26
-0.07
-1.09
-1.21
-0.26
0.395
0.315
0.18
0.07
0.06
0.065
0.05
0.05
0.04
0.05
0.03
0.045
0.025
0.015
0.015
0.01
-0.01
-0.015
-0.035
-0.05
-0.065
-0.105
-0.13
-0.165
-0.205
-0.245
-0.275
-0.305
-0.305
-0.265
-0.205
-0.115
-0.06
-0.01
0.02
0.025
0.015
0.025
0.035
0.03
0.015
0.02
0.005
0.01
0.01
0.0
0.0
0.0
0.005
0.0
0.0
0.015
0.005
0.01
0.015
0.015
0.025
0.025
0.015
0.025
0.035
0.035
0.04
0.03
0.045
0.04
0.04
0.045
0.05
0.045
0.05
0.05
0.06
0.055
0.045
0.06
0.06
0.055
0.065
0.06
0.065
0.07
0.065
0.065
0.065
0.075
0.08
0.065
0.07
0.075
0.075
0.08
0.085
0.055
0.01
-0.05
-0.07
-0.02
0.02
0.035
0.06
0.115
0.11
0.105
0.115
0.19
0.21
-0.49
-1.46
-0.735
0.35
0.355
0.22
0.085
0.075
0.085
0.07
0.06
0.065
0.07
0.065
0.055
0.05
0.05
0.05
0.03
0.005
0.01
0.0
-0.015
-0.06
-0.07
-0.11
-0.15
-0.175
-0.235
-0.28
-0.31
-0.335
-0.315
-0.245
-0.175
-0.1
-0.03
0.0
0.01
0.05
0.035
0.045
0.04
0.045
0.03
0.04
0.04
0.03
0.02
0.01
0.035
0.04
0.03
0.03
0.015
0.035
0.045
0.02
0.035
0.02
0.01
0.04
0.05
0.03
0.04
0.05
0.055
0.03
0.035
0.04
0.045
0.05
0.04
0.055
0.055
0.06
0.05
0.07
0.05
0.05
0.06
0.06
0.06
0.06
0.085
0.085
0.08
0.06
0.065
0.09
0.08
0.085
0.075
0.065
0.11
0.1
0.05
-0.02
-0.04
-0.045
0.015
0.03
0.045
0.085
0.12
0.115
0.105
0.11
0.295
0.12
-0.865
-1.355
-0.425
0.355
0.325
0.255
0.09
0.1
0.08
0.06
0.07
0.05
0.055
0.055
0.055
0.05
0.04
0.02
0.005
0.03
0.01
-0.02
-0.04
-0.075
-0.075
-0.095
-0.15
-0.19
-0.23
-0.28
-0.305
-0.305
-0.275
-0.205
-0.125
-0.075
-0.02
0.005
0.025
0.03
0.045
0.025
0.015
0.045
0.025
0.01
0.005
0.0
0.0
0.0
0.01
0.0
-0.005
0.01
0.005
0.015
0.01
0.0
0.02
0.03
0.015
0.015
0.02
0.025
0.025
0.03
0.035
0.035
0.03
0.03
0.025
0.04
0.05
0.05
0.045
0.045
0.05
0.05
0.055
0.05
0.07
0.06
0.055
0.055
0.06
0.05
0.055
0.07
0.07
0.075
0.07
0.075
0.09
0.06
0.005
-0.06
-0.075
-0.02
0.015
0.025
0.055
0.1
0.095
0.115
0.11
0.205
0.205
-0.565
-1.53
-0.725
0.355
0.34
0.22
0.07
0.07
0.065
0.06
0.055
0.05
0.04
0.045
0.055
0.055
0.04
0.035
0.025
0.0
0.0
-0.02
-0.04
-0.065
-0.09
-0.11
-0.14
-0.19
-0.25
-0.295
-0.325
-0.34
-0.315
-0.245
-0.16
-0.08
-0.02
-0.005
0.015
0.035
0.05
0.065
0.07
0.07
0.055
0.035
0.055
0.02
0.04
0.015
0.01
0.01
0.015
0.0
0.02
0.03
0.035
0.04
0.015
0.05
0.06
0.05
0.07
0.03
0.06
0.08
0.075
0.085
0.04
0.06
0.055
0.065
0.055
0.065
0.085
0.065
0.07
0.075
0.035
0.05
0.05
0.075
0.09
0.065
0.035
0.045
0.03
0.055
0.065
0.015
0.02
0.05
0.045
0.06
0.06
0.095
0.08
-0.005
-0.075
-0.07
-0.03
0.0
0.025
0.06
0.105
0.09
0.12
0.11
0.225
0.28
-0.54
-1.505
-0.705
0.335
0.375
0.28
0.13
0.08
0.065
0.095
0.045
0.04
0.07
0.06
0.04
0.035
0.025
0.02
0.03
0.01
0.03
0.0
-0.015
-0.035
-0.065
-0.095
-0.2
-0.23
-0.235
-0.285
-0.265
-0.275
-0.23
-0.2
-0.14
-0.04
-0.015
0.045
0.005
0.04
0.04
0.03
0.05
0.04
0.055
0.025
0.025
0.015
0.035
0.02
0.035
0.045
0.04
0.045
0.035
0.035
0.015
0.015
0.01
0.03
0.03
0.015
0.045
0.03
0.025
0.045
0.07
0.055
0.03
0.055
0.04
0.05
0.06
0.055
0.09
0.06
0.08
0.06
0.075
0.075
0.075
0.1
0.095
0.07
0.075
0.095
0.095
0.095
0.095
0.035
-0.055
-0.11
-0.085
-0.03
0.025
0.07
0.085
0.115
0.11
0.135
0.15
0.22
0.24
-0.545
-1.445
-0.655
0.425
0.38
0.225
0.12
0.085
0.1
0.06
0.045
0.07
0.055
0.05
0.04
0.045
0.035
0.055
0.025
-0.01
-0.01
-0.01
-0.03
-0.065
-0.09
-0.145
-0.175
-0.2
-0.23
-0.25
-0.3
-0.325
-0.255
-0.2
-0.155
-0.09
-0.04
0.0
0.045
0.03
0.04
0.05
0.045
0.03
0.02
0.035
0.035
0.005
0.04
0.09
0.05
0.01
0.03
0.005
0.035
0.04
0.035
0.025
0.015
0.025
0.055
0.135
0.025
-0.01
0.0
0.05
0.04
0.075
0.075
0.055
0.035
0.05
0.075
0.06
0.22
0.075
0.005
0.035
0.055
0.07
0.07
0.065
0.075
0.095
0.125
0.08
0.085
0.03
0.01
-0.085
-0.065
0.29
0.065
-0.115
-0.04
0.06
0.12
0.12
0.11
0.235
0.24
-0.5
-1.505
-0.77
0.23
0.405
0.465
0.025
-0.01
0.01
0.055
0.06
0.05
0.05
0.04
0.045
0.035
0.035
0.025
0.01
0.005
0.005
-0.025
-0.04
-0.065
-0.105
-0.155
-0.19
-0.245
-0.265
-0.27
-0.29
-0.285
-0.285
-0.23
-0.14
-0.08
-0.025
0.025
0.07
0.06
0.065
0.045
0.055
0.045
0.04
0.05
0.03
0.02
0.02
0.045
0.035
0.03
0.05
0.04
0.055
0.065
0.06
0.04
0.055
0.05
0.025
0.06
0.065
0.05
0.075
0.065
0.055
0.09
0.085
0.06
0.08
0.075
0.06
0.07
0.085
0.1
0.05
0.055
0.1
0.1
0.07
0.1
0.08
0.09
0.09
0.02
-0.065
-0.04
-0.045
0.04
0.02
0.045
0.105
0.13
0.12
0.09
0.2
0.305
-0.3
-1.445
-1.005
0.02
0.38
0.34
0.165
0.1
0.06
0.065
0.075
0.07
0.05
0.03
0.055
0.06
0.045
0.06
0.02
0.0
0.01
-0.005
-0.01
-0.04
-0.075
-0.09
-0.12
-0.175
-0.185
-0.22
-0.245
-0.305
-0.285
-0.225
-0.145
-0.09
-0.005
0.035
0.015
0.05
0.075
0.095
0.07
0.05
0.06
0.04
0.035
0.05
0.065
0.045
0.06
0.01
0.065
0.115
0.035
0.08
0.035
0.055
0.07
0.065
0.075
0.085
0.05
0.07
0.105
0.07
0.055
0.125
0.09
0.07
0.125
0.1
0.06
0.1
0.115
0.115
0.135
0.125
0.07
0.015
-0.04
-0.01
-0.035
0.035
0.065
0.08
0.135
0.125
0.115
0.115
0.275
0.235
-0.635
-1.605
-0.68
0.255
0.345
0.28
0.13
0.08
0.07
0.08
0.055
0.055
0.025
0.05
0.03
0.045
0.015
0.015
0.02
0.0
0.0
-0.05
-0.045
-0.05
-0.085
-0.14
-0.17
-0.185
-0.22
-0.275
-0.31
-0.3
-0.275
-0.205
-0.12
-0.06
-0.005
0.005
0.04
0.05
0.03
0.04
0.035
0.055
0.05
0.03
0.02
0.035
0.03
0.025
0.015
0.01
0.03
0.025
0.0
0.025
0.035
0.015
0.03
0.035
0.035
0.055
0.055
0.045
0.055
0.05
0.035
0.04
0.055
0.055
0.055
0.06
0.06
0.06
0.065
0.07
0.065
0.07
0.065
0.06
0.07
0.065
0.06
0.065
0.07
0.095
0.065
0.03
-0.025
-0.075
-0.04
-0.01
0.03
0.045
0.08
0.105
0.1
0.1
0.115
0.22
0.0
-0.91
-1.345
-0.355
0.425
0.32
0.155
0.065
0.07
0.065
0.065
0.065
0.06
0.055
0.045
0.045
0.045
0.035
0.03
0.02
0.005
-0.01
-0.02
-0.045
-0.07
-0.1
-0.13
-0.17
-0.2
-0.245
-0.29
-0.33
-0.325
-0.28
-0.21
-0.12
-0.05
-0.01
0.015
0.04
0.045
0.045
0.035
0.025
0.025
0.005
0.015
0.015
0.005
0.015
0.01
0.005
0.005
0.0
0.005
0.02
0.015
0.015
0.01
0.035
0.02
0.005
0.035
0.005
0.025
0.03
0.02
0.05
0.05
0.025
0.03
0.035
0.025
0.045
0.04
0.045
0.035
0.055
0.065
0.04
0.045
0.065
0.06
0.045
0.065
0.065
0.065
0.085
0.06
0.07
0.06
0.075
0.09
0.1
0.075
0.08
0.1
0.085
0.09
0.095
0.075
0.11
0.09
0.03
-0.03
-0.06
-0.03
0.0
0.04
0.065
0.105
0.11
0.12
0.135
0.2
0.29
-0.405
-1.54
-0.93
0.165
0.37
0.305
0.165
0.07
0.05
0.08
0.065
0.055
0.085
0.065
0.075
0.035
0.035
0.03
0.035
0.035
-0.005
-0.005
-0.02
-0.02
-0.05
-0.115
-0.115
-0.14
-0.195
-0.225
-0.25
-0.265
-0.28
-0.23
-0.185
-0.105
-0.05
0.0
0.035
0.045
0.05
0.055
0.07
0.06
0.025
0.015
0.01
0.02
0.04
0.03
0.035
0.05
0.045
0.07
0.055
0.015
0.015
0.015
0.04
0.055
0.05
0.03
0.03
0.065
0.055
0.05
0.045
0.085
0.05
0.075
0.05
0.085
0.05
0.03
0.11
0.06
0.07
0.08
0.08
0.075
0.08
0.07
0.075
0.095
0.075
0.085
0.07
0.08
0.075
0.075
0.125
0.06
0.05
-0.03
-0.075
-0.09
0.005
0.025
0.035
0.065
0.105
0.1
0.095
0.14
0.265
-0.135
-1.22
-1.21
-0.195
0.365
0.285
0.185
0.035
0.05
0.055
0.025
0.035
0.03
0.035
0.015
0.03
0.02
0.015
0.0
-0.005
-0.02
-0.03
-0.035
-0.05
-0.085
-0.11
-0.145
-0.17
-0.205
-0.26
-0.275
-0.3
-0.305
-0.255
-0.185
-0.12
-0.06
-0.01
0.01
0.01
0.03
0.035
0.03
0.035
0.01
0.015
0.015
0.0
0.005
0.0
0.005
0.0
0.0
0.005
0.0
0.005
0.005
0.0
0.02
0.03
0.025
0.01
0.025
0.04
0.04
0.02
0.03
0.045
0.04
0.04
0.04
0.03
0.05
0.045
0.04
0.055
0.055
0.055
0.06
0.065
0.055
0.06
0.06
0.07
0.065
0.065
0.075
0.07
0.075
0.075
0.075
0.075
0.09
0.05
0.0
-0.055
-0.065
-0.015
0.025
0.04
0.065
0.115
0.11
0.12
0.125
0.21
0.215
-0.525
-1.53
-0.75
0.39
0.34
0.195
0.07
0.065
0.07
0.08
0.085
0.065
0.075
0.06
0.05
0.055
0.05
0.04
0.025
0.01
0.01
-0.01
-0.03
-0.05
-0.09
-0.105
-0.155
-0.2
-0.24
-0.29
-0.32
-0.345
-0.31
-0.235
-0.15
-0.1
-0.035
0.015
0.04
0.04
0.04
0.05
0.045
0.04
0.03
0.03
0.02
0.035
0.035
0.025
0.035
0.02
0.025
0.03
0.015
0.03
0.03
0.035
0.04
0.02
0.03
0.04
0.05
0.04
0.04
0.05
0.065
0.035
0.06
0.075
0.04
0.03
0.07
0.055
0.04
0.065
0.05
0.045
0.075
0.05
0.06
0.08
0.08
0.055
0.04
0.095
0.075
0.06
0.075
0.1
0.09
0.065
0.075
0.085
0.105
0.095
0.065
0.115
0.1
0.02
-0.06
-0.035
-0.03
0.03
0.065
0.095
0.11
0.125
0.135
0.12
0.27
0.305
-0.615
-1.59
-0.685
0.27
0.385
0.32
0.135
0.065
0.065
0.105
0.08
0.065
0.07
0.08
0.09
0.06
0.035
0.03
0.015
0.015
-0.005
-0.005
-0.015
-0.045
-0.075
-0.105
-0.13
-0.17
-0.205
-0.245
-0.27
-0.315
-0.29
-0.225
-0.17
-0.075
-0.025
0.0
0.03
0.045
0.035
0.05
0.03
0.02
0.045
0.035
0.015
0.01
0.01
0.005
0.005
0.02
0.02
0.025
0.015
0.02
0.02
0.025
0.02
0.035
0.035
0.03
0.045
0.055
0.065
0.055
0.055
0.065
0.06
0.05
0.06
0.065
0.075
0.07
0.065
0.07
0.07
0.075
0.075
0.08
0.075
0.085
0.08
0.075
0.085
0.085
0.06
0.055
0.115
0.095
0.07
0.01
-0.055
-0.04
0.02
0.035
0.08
0.06
0.065
0.09
0.125
0.11
0.275
0.09
-0.825
-1.38
-0.45
0.425
0.305
0.145
0.04
0.025
0.02
0.045
0.055
0.07
0.145
0.12
0.03
0.015
0.095
0.1
0.0
0.02
-0.01
-0.025
-0.105
-0.1
-0.06
-0.08
-0.145
-0.145
-0.22
-0.27
-0.305
-0.305
-0.265
-0.17
-0.06
0.0
0.025
0.04
0.11
0.06
0.065
0.085
0.08
0.065
0.085
0.065
0.08
0.04
0.04
0.025
0.025
0.045
0.06
0.0
0.025
0.01
0.055
0.03
0.04
0.07
0.09
0.075
0.07
0.05
0.08
0.03
0.04
0.085
0.06
0.08
0.02
0.07
0.045
0.055
0.075
0.09
0.065
0.07
0.03
0.07
0.005
0.005
0.015
0.0
-0.06
-0.07
0.0
0.025
0.015
0.08
0.105
0.115
0.1
0.16
0.2
0.245
-0.165
-1.18
-1.06
-0.075
0.41
0.24
0.135
0.06
0.07
0.08
0.08
0.085
0.055
0.065
0.06
0.04
0.04
0.035
0.025
0.02
-0.02
-0.025
-0.055
-0.05
-0.08
-0.12
-0.145
-0.195
-0.24
-0.265
-0.34
-0.35
-0.335
-0.245
-0.185
-0.09
-0.03
0.015
0.04
0.04
0.06
0.045
0.03
0.035
0.025
0.04
0.05
0.04
0.03
0.04
0.04
0.03
0.035
0.015
0.015
0.06
0.06
0.045
0.02
0.015
0.0
-0.025
0.005
0.03
0.045
0.07
0.075
0.07
0.065
0.045
0.06
0.06
0.065
0.08
0.06
0.05
0.075
0.08
0.105
0.085
0.03
-0.06
-0.11
-0.05
-0.03
0.055
0.05
0.075
0.11
0.11
0.095
0.09
0.215
0.23
-0.565
-1.52
-0.705
0.31
0.365
0.26
0.07
0.055
0.075
0.045
0.045
0.06
0.04
0.045
0.045
0.04
0.045
0.02
0.02
0.01
0.0
-0.025
-0.045
-0.065
-0.11
-0.15
-0.17
-0.21
-0.255
-0.295
-0.33
-0.345
-0.3
-0.215
-0.1
-0.035
-0.02
0.035
0.04
0.06
0.065
0.05
0.055
0.045
0.075
0.065
0.05
0.025
0.035
0.04
0.025
0.045
0.055
0.07
0.04
0.02
0.07
0.07
0.065
0.05
0.07
0.1
0.05
0.065
0.07
0.07
0.085
0.095
0.085
0.095
0.105
0.105
0.07
0.055
0.105
0.125
0.095
0.1
0.12
0.05
0.005
-0.04
-0.04
-0.06
0.075
0.08
0.125
0.12
0.145
0.125
0.1
0.29
0.24
-0.685
-1.53
-0.58
0.275
0.36
0.315
0.1
0.055
0.07
0.055
0.045
0.08
0.045
0.04
0.04
0.02
0.055
0.03
0.01
-0.015
-0.03
-0.01
-0.065
-0.095
-0.09
-0.105
-0.155
-0.205
-0.245
-0.275
-0.3
-0.305
-0.27
-0.17
-0.075
-0.055
-0.01
0.045
0.08
0.045
0.05
0.055
0.03
0.055
0.04
0.06
0.055
0.005
0.05
0.0
0.05
0.03
0.02
0.045
0.015
0.035
0.045
0.04
0.02
0.055
0.03
0.075
0.05
0.055
0.07
0.075
0.06
0.05
0.05
0.065
0.09
0.085
0.075
0.09
0.07
0.1
0.08
0.065
0.095
0.09
0.08
0.0
-0.045
-0.035
-0.025
0.0
0.04
0.09
0.105
0.1
0.135
0.15
0.225
0.25
-0.54
-1.585
-0.725
0.24
0.35
0.29
0.115
0.08
0.05
0.07
0.065
0.065
0.055
0.03
0.04
0.06
0.03
0.015
0.03
0.0
-0.035
0.0
-0.05
-0.07
-0.09
-0.12
-0.16
-0.22
-0.23
-0.29
-0.32
-0.31
-0.275
-0.21
-0.125
-0.06
-0.025
0.015
0.035
0.04
0.035
0.035
0.025
0.04
0.05
0.02
0.0
0.005
0.005
0.0
0.0
-0.005
-0.01
-0.005
0.015
0.005
0.005
-0.01
0.015
0.005
0.005
0.015
0.015
0.0
0.02
0.02
0.025
0.02
0.0
0.0
0.015
0.035
0.03
0.02
0.03
0.02
0.025
0.02
0.035
0.04
0.035
0.045
0.035
0.035
0.035
0.05
0.045
0.05
0.045
0.045
0.05
0.065
0.075
0.06
0.065
0.06
0.065
0.065
0.065
0.065
0.075
0.085
0.07
0.05
-0.015
-0.065
-0.045
0.0
0.02
0.045
0.075
0.115
0.11
0.1
0.12
0.22
0.085
-0.8
-1.375
-0.435
0.435
0.31
0.15
0.08
0.065
0.065
0.065
0.06
0.065
0.065
0.05
0.055
0.045
0.04
0.035
0.03
0.01
0.0
-0.02
-0.035
-0.065
-0.095
-0.14
-0.17
-0.205
-0.255
-0.285
-0.325
-0.335
-0.295
-0.22
-0.14
-0.07
-0.015
0.005
0.02
0.035
0.025
0.02
0.025
0.02
0.01
0.025
0.01
0.0
0.01
0.0
-0.015
0.01
0.0
0.01
0.015
0.005
0.01
0.01
0.005
0.005
0.02
0.015
0.02
0.03
0.02
0.015
0.01
0.03
0.03
0.025
0.04
0.03
0.025
0.04
0.03
0.045
0.045
0.035
0.055
0.05
0.055
0.045
0.05
0.055
0.035
0.045
0.07
0.08
0.06
0.055
0.065
0.05
0.06
0.08
0.09
0.065
0.08
0.08
0.08
0.075
0.075
0.12
0.05
0.08
0.12
0.07
0.005
-0.06
-0.05
0.0
0.025
0.035
0.095
0.12
0.13
0.13
0.12
0.27
0.155
-0.79
-1.43
-0.535
0.365
0.375
0.265
0.055
0.07
0.095
0.085
0.06
0.06
0.075
0.05
0.055
0.015
0.03
0.035
0.05
0.0
-0.025
0.0
-0.015
-0.055
-0.095
-0.1
-0.165
-0.195
-0.215
-0.26
-0.27
-0.31
-0.255
-0.235
-0.14
-0.07
-0.045
0.005
0.03
0.04
0.08
0.06
0.06
0.03
0.015
0.02
0.025
0.06
0.03
-0.005
-0.005
0.04
0.045
0.045
0.035
0.035
0.04
0.03
0.03
0.06
0.04
0.04
0.03
0.025
0.065
0.05
0.06
0.055
0.03
0.06
0.08
0.045
0.05
0.09
0.075
0.045
0.045
0.07
0.075
0.07
0.06
0.065
0.06
0.065
0.055
0.075
0.075
0.065
0.095
0.095
0.08
0.095
0.075
0.04
-0.01
-0.05
-0.035
-0.02
0.02
0.055
0.095
0.105
0.075
0.12
0.15
0.25
-0.175
-1.185
-1.14
-0.185
0.375
0.305
0.18
0.04
0.055
0.065
0.03
0.045
0.035
0.055
0.04
0.015
0.03
0.02
0.005
-0.02
-0.015
-0.005
-0.04
-0.05
-0.065
-0.105
-0.135
-0.165
-0.22
-0.26
-0.275
-0.3
-0.31
-0.265
-0.205
-0.1
-0.05
-0.01
0.02
0.03
0.025
0.04
0.04
0.03
0.03
0.025
0.02
0.0
0.0
0.0
0.005
0.005
0.01
0.0
0.005
0.015
0.01
0.005
0.01
0.03
0.025
0.02
0.02
0.03
0.035
0.045
0.045
0.035
0.035
0.03
0.04
0.045
0.04
0.045
0.05
0.045
0.05
0.045
0.05
0.05
0.05
0.05
0.065
0.065
0.065
0.06
0.06
0.075
0.06
0.07
0.07
0.075
0.07
0.085
0.08
0.08
0.085
0.1
0.075
0.04
-0.01
-0.07
-0.035
0.01
0.025
0.03
0.1
0.11
0.105
0.105
0.135
0.23
-0.155
-1.085
-1.05
-0.095
0.39
0.285
0.115
0.075
0.085
0.085
0.065
0.08
0.08
0.07
0.065
0.065
0.04
0.05
0.035
0.035
0.015
-0.005
-0.01
-0.025
-0.055
-0.095
-0.125
-0.16
-0.19
-0.245
-0.285
-0.32
-0.305
-0.28
-0.2
-0.1
-0.05
0.005
0.025
0.025
0.045
0.035
0.025
0.065
0.055
0.055
0.02
0.03
0.045
0.025
0.02
0.01
0.035
0.015
0.04
0.05
0.035
0.01
0.06
0.04
0.02
0.05
0.04
0.06
0.035
0.05
0.055
0.06
0.065
0.065
0.035
0.05
0.075
0.08
0.06
0.045
0.065
0.08
0.075
0.035
0.055
0.07
0.08
0.085
0.045
0.08
0.095
0.09
0.095
0.065
0.08
0.1
0.09
0.09
0.09
0.1
0.08
0.05
-0.03
-0.055
-0.025
0.035
0.04
0.095
0.145
0.12
0.11
0.12
0.28
0.26
-0.63
-1.545
-0.685
0.22
0.37
0.305
0.085
0.08
0.06
0.095
0.085
0.03
0.065
0.07
0.065
0.03
0.02
0.035
0.02
0.03
0.035
-0.015
-0.04
-0.04
-0.06
-0.11
-0.135
-0.165
-0.205
-0.255
-0.305
-0.28
-0.28
-0.23
-0.14
-0.06
-0.03
0.01
0.04
0.04
0.055
0.035
0.03
0.045
0.035
0.015
0.01
0.01
0.02
0.025
0.0
0.0
0.0
0.02
0.03
0.005
0.02
0.03
0.025
0.03
0.05
0.03
0.04
0.035
0.03
0.035
0.04
0.04
0.06
0.06
0.06
0.035
0.065
0.055
0.05
0.06
0.045
0.05
0.07
0.065
0.065
0.07
0.045
0.065
0.085
0.075
0.065
0.085
0.085
0.08
0.015
-0.05
-0.055
-0.045
0.01
0.02
0.05
0.095
0.11
0.1
0.095
0.195
0.235
-0.485
-1.535
-0.83
0.185
0.335
0.26
0.07
0.055
0.04
0.04
0.04
0.04
0.04
0.04
0.02
0.025
0.025
0.0
0.005
0.0
-0.02
-0.04
-0.06
-0.065
-0.11
-0.14
-0.16
-0.21
-0.26
-0.285
-0.315
-0.325
-0.315
-0.25
-0.175
-0.095
-0.04
0.0
0.015
0.035
0.03
0.02
0.04
0.025
0.02
0.005
0.015
0.005
0.0
0.0
0.005
0.0
0.0
0.0
0.0
0.015
0.01
0.01
0.02
0.02
0.015
0.02
0.03
0.025
0.025
0.035
0.02
0.02
0.035
0.035
0.04
0.03
0.03
0.03
0.03
0.035
0.04
0.04
0.035
0.045
0.045
0.05
0.05
0.045
0.045
0.045
0.055
0.06
0.06
0.06
0.06
0.06
0.06
0.065
0.07
0.065
0.075
0.075
0.07
0.07
0.085
0.065
0.035
-0.03
-0.085
-0.055
-0.005
0.025
0.04
0.075
0.11
0.11
0.125
0.125
0.22
0.06
-0.8
-1.315
-0.44
0.415
0.32
0.15
0.075
0.08
0.075
0.075
0.07
0.065
0.075
0.075
0.03
0.045
0.07
0.05
0.02
0.02
0.005
-0.02
-0.03
-0.05
-0.065
-0.105
-0.15
-0.195
-0.225
-0.275
-0.325
-0.32
-0.27
-0.205
-0.135
-0.07
0.0
0.01
0.035
0.065
0.035
0.045
0.035
0.04
0.045
0.04
0.05
0.01
0.02
0.015
0.035
0.03
0.02
0.04
0.025
0.02
0.025
0.02
0.02
0.04
0.035
0.045
0.045
0.035
0.015
0.045
0.04
0.055
0.05
0.025
0.05
0.06
0.05
0.04
0.05
0.045
0.045
0.06
0.045
0.05
0.05
0.05
0.045
0.095
0.075
0.05
0.06
0.08
0.08
0.055
0.08
0.07
0.07
0.09
0.085
0.06
0.07
0.095
0.135
0.075
0.055
-0.03
-0.065
-0.075
0.005
0.035
0.105
0.1
0.11
0.145
0.125
0.195
0.29
-0.285
-1.41
-0.995
0.015
0.415
0.305
0.175
0.075
0.055
0.1
0.04
0.05
0.04
0.07
0.05
0.065
0.01
0.01
0.025
0.02
0.015
0.0
-0.025
-0.05
-0.08
-0.105
-0.12
-0.14
-0.185
-0.235
-0.27
-0.315
-0.3
-0.27
-0.175
-0.105
-0.06
-0.01
0.02
0.035
0.015
0.025
0.025
0.02
0.025
0.02
0.005
0.005
0.0
0.0
0.02
0.0
0.01
0.0
0.0
0.02
0.02
0.02
0.005
0.02
0.02
0.025
0.02
0.03
0.03
0.045
0.025
0.035
0.035
0.035
0.065
0.045
0.055
0.06
0.065
0.04
0.035
0.065
0.06
0.055
0.055
0.065
0.075
0.055
0.07
0.065
0.06
0.07
0.075
0.065
0.09
0.075
0.03
-0.03
-0.065
-0.055
0.0
0.01
0.02
0.095
0.1
0.105
0.105
0.13
0.235
-0.115
-1.095
-1.215
-0.22
0.395
0.305
0.145
0.05
0.07
0.06
0.055
0.06
0.045
0.045
0.05
0.04
0.035
0.03
0.015
0.005
-0.005
-0.02
-0.045
-0.045
-0.075
-0.105
-0.15
-0.185
-0.225
-0.275
-0.305
-0.325
-0.32
-0.275
-0.195
-0.115
-0.06
-0.01
0.015
0.04
0.035
0.035
0.04
0.03
0.03
0.025
0.02
0.015
0.01
0.01
0.005
0.005
0.0
0.01
0.005
0.0
0.005
0.01
0.015
0.005
0.01
0.01
0.005
0.01
0.025
0.035
0.025
0.01
0.015
0.03
0.035
0.02
0.035
0.035
0.02
0.03
0.04
0.055
0.03
0.02
0.045
0.05
0.055
0.055
0.07
0.045
0.065
0.07
0.05
0.065
0.075
0.08
0.055
0.105
0.075
0.075
0.1
0.095
0.07
0.095
0.115
0.07
-0.01
-0.055
-0.045
-0.005
0.04
0.055
0.08
0.115
0.135
0.125
0.135
0.265
0.17
-0.78
-1.455
-0.53
0.375
0.35
0.225
0.075
0.105
0.075
0.055
0.085
0.085
0.06
0.03
0.05
0.075
0.055
0.02
0.03
0.0
0.02
0.015
-0.015
-0.07
-0.085
-0.12
-0.16
-0.18
-0.195
-0.265
-0.3
-0.315
-0.315
-0.21
-0.1
-0.06
-0.025
0.005
0.04
0.06
0.04
0.055
0.075
0.05
0.025
0.04
0.025
0.005
0.04
0.045
0.015
-0.01
0.005
0.05
0.005
0.045
0.0
0.025
0.065
0.03
0.025
0.015
0.055
0.05
0.06
0.035
0.045
0.045
0.035
0.055
0.06
0.055
0.07
0.06
0.035
0.085
0.06
0.025
0.09
0.06
0.075
0.075
0.09
0.07
0.08
0.05
0.1
0.1
0.08
0.07
0.09
0.11
0.065
0.105
0.12
0.08
0.04
-0.04
-0.05
-0.045
0.035
0.03
0.06
0.095
0.115
0.11
0.125
0.27
0.255
-0.615
-1.62
-0.715
0.225
0.35
0.305
0.12
0.08
0.06
0.055
0.045
0.075
0.055
0.055
0.045
0.055
0.04
0.02
0.015
0.0
0.005
-0.025
-0.045
-0.05
-0.085
-0.11
-0.135
-0.185
-0.235
-0.27
-0.27
-0.305
-0.28
-0.22
-0.155
-0.08
-0.03
0.0
0.035
0.035
0.025
0.035
0.025
0.025
0.015
0.01
0.015
0.005
0.005
0.0
-0.005
0.02
0.0
0.0
0.01
0.0
-0.005
0.0
0.01
0.015
0.01
0.03
0.03
0.02
0.01
0.015
0.01
0.015
0.035
0.025
0.025
0.035
0.025
0.03
0.035
0.03
0.035
0.035
0.035
0.04
0.03
0.055
0.04
0.035
0.045
0.06
0.05
0.055
0.055
0.06
0.06
0.055
0.06
0.065
0.065
0.06
0.075
0.085
0.09
0.05
-0.005
-0.06
-0.055
-0.01
0.025
0.02
0.055
0.115
0.1
0.1
0.11
0.215
0.145
-0.7
-1.49
-0.625
0.405
0.325
0.18
0.07
0.08
0.08
0.065
0.075
0.06
0.06
0.06
0.05
0.055
0.045
0.03
0.025
0.01
0.0
-0.01
-0.025
-0.06
-0.085
-0.12
-0.16
-0.21
-0.25
-0.295
-0.325
-0.34
-0.305
-0.23
-0.155
-0.07
-0.02
0.005
0.03
0.04
0.04
0.035
0.025
0.025
0.02
0.01
0.005
0.01
0.015
0.01
0.005
0.005
0.01
0.01
0.015
0.005
0.01
0.0
0.005
0.02
0.01
0.005
0.005
0.02
0.02
0.005
0.02
0.02
0.025
0.025
0.015
0.025
0.02
0.035
0.025
0.03
0.04
0.035
0.04
0.05
0.045
0.04
0.05
0.045
0.045
0.06
0.025
0.055
0.065
0.045
0.065
0.07
0.055
0.065
0.06
0.07
0.075
0.08
0.075
0.075
0.08
0.085
0.05
0.08
0.12
0.06
-0.005
-0.06
-0.035
-0.01
0.03
0.055
0.095
0.085
0.11
0.13
0.115
0.285
0.145
-0.825
-1.455
-0.505
0.4
0.31
0.225
0.11
0.09
0.08
0.06
0.085
0.055
0.055
0.045
0.05
0.065
0.055
0.04
0.03
-0.01
-0.005
-0.005
-0.025
-0.05
-0.075
-0.095
-0.165
-0.195
-0.22
-0.29
-0.325
-0.355
-0.305
-0.205
-0.155
-0.055
-0.025
0.01
0.015
0.02
0.02
0.045
0.09
0.03
0.055
0.035
0.03
0.005
0.005
0.02
0.02
-0.01
0.025
0.02
0.005
0.025
0.04
0.015
0.05
0.005
0.015
0.03
0.03
0.05
0.02
0.065
0.035
0.03
0.035
0.025
0.065
0.055
0.02
0.02
0.05
0.095
0.055
0.06
0.05
0.045
0.075
0.075
0.055
0.055
0.08
0.09
0.085
0.08
0.07
0.07
0.085
0.07
0.09
0.07
0.11
0.1
0.035
-0.02
-0.02
-0.04
-0.015
0.03
0.045
0.1
0.11
0.12
0.14
0.155
0.31
-0.12
-1.185
-1.165
-0.215
0.365
0.335
0.22
0.09
0.09
0.085
0.06
0.065
0.04
0.065
0.055
0.05
0.035
0.03
0.035
0.035
0.0
-0.01
-0.01
-0.055
-0.07
-0.095
-0.125
-0.15
-0.185
-0.245
-0.295
-0.32
-0.31
-0.27
-0.205
-0.13
-0.055
0.0
0.01
0.025
0.03
0.035
0.03
0.03
0.045
0.01
0.01
-0.01
-0.01
-0.005
0.0
0.005
0.0
-0.01
-0.005
-0.005
0.0
0.0
0.0
0.015
0.01
0.01
0.01
0.0
0.0
0.025
0.02
0.02
0.025
0.02
0.01
0.015
0.025
0.025
0.015
0.03
0.03
0.025
0.04
0.035
0.035
0.03
0.04
0.05
0.045
0.04
0.04
0.05
0.05
0.06
0.05
0.055
0.05
0.06
0.07
0.06
0.06
0.07
0.07
0.07
0.075
0.08
0.09
0.06
-0.005
-0.065
-0.055
-0.005
0.03
0.03
0.065
0.105
0.11
0.115
0.12
0.215
0.195
-0.635
-1.51
-0.655
0.415
0.335
0.185
0.075
0.07
0.08
0.06
0.07
0.065
0.07
0.06
0.055
0.055
0.06
0.05
0.03
0.02
0.0
-0.02
-0.03
-0.05
-0.08
-0.125
-0.155
-0.205
-0.25
-0.3
-0.33
-0.34
-0.315
-0.245
-0.175
-0.095
-0.04
-0.005
0.025
0.03
0.035
0.04
0.04
0.02
0.03
0.03
0.025
0.005
0.005
0.0
-0.005
0.025
0.025
-0.01
0.005
0.01
0.0
0.0
0.02
0.015
0.0
0.01
0.02
0.025
0.02
0.025
0.025
0.01
0.015
0.02
0.03
0.02
0.035
0.025
0.02
0.025
0.045
0.045
0.03
0.015
0.03
0.05
0.045
0.05
0.06
0.055
0.04
0.04
0.045
0.055
0.055
0.055
0.065
0.07
0.08
0.075
0.07
0.06
0.08
0.095
0.06
0.075
0.11
0.085
0.095
0.085
0.055
-0.02
-0.05
-0.055
0.005
0.04
0.07
0.1
0.11
0.13
0.125
0.165
0.3
-0.11
-1.21
-1.14
-0.155
0.405
0.355
0.2
0.095
0.065
0.105
0.075
0.045
0.06
0.095
0.04
0.06
0.025
0.025
0.045
0.055
0.0
-0.01
-0.015
-0.04
-0.055
-0.07
-0.1
-0.16
-0.2
-0.22
-0.27
-0.29
-0.32
-0.265
-0.205
-0.145
-0.035
-0.02
0.03
0.035
0.045
0.045
0.045
0.05
0.03
0.045
0.01
0.03
0.01
0.0
0.035
0.01
0.005
0.02
0.015
0.0
0.02
0.03
0.02
0.025
0.035
0.045
0.035
0.03
0.04
0.03
0.03
0.04
0.04
0.06
0.05
0.025
0.06
0.025
0.03
0.035
0.055
0.06
0.05
0.035
0.045
0.05
0.085
0.045
0.055
0.07
0.055
0.055
0.07
0.08
0.065
0.08
0.07
0.075
0.085
0.075
0.075
-0.01
-0.075
-0.05
-0.02
0.01
0.025
0.115
0.105
0.095
0.115
0.14
0.275
-0.005
-0.975
-1.34
-0.35
0.385
0.3
0.215
0.06
0.055
0.085
0.045
0.06
0.05
0.05
0.03
0.05
0.03
0.035
0.02
0.0
0.0
-0.015
-0.03
-0.065
-0.07
-0.115
-0.14
-0.15
-0.205
-0.25
-0.285
-0.335
-0.34
-0.3
-0.23
-0.14
-0.095
-0.03
0.01
0.015
0.03
0.02
0.015
0.03
0.015
0.01
0.015
-0.005
0.0
0.0
-0.01
-0.01
-0.015
-0.01
-0.01
0.0
0.0
0.0
0.0
-0.005
-0.005
0.02
0.02
0.005
0.01
0.015
0.015
0.01
0.025
0.025
0.025
0.02
0.025
0.02
0.025
0.03
0.04
0.035
0.035
0.04
0.04
0.035
0.04
0.05
0.055
0.055
0.05
0.055
0.055
0.065
0.055
0.07
0.065
0.065
0.065
0.075
0.07
0.07
0.065
0.085
0.055
0.015
-0.04
-0.085
-0.04
0.015
0.035
0.04
0.1
0.115
0.11
0.115
0.175
0.23
-0.365
-1.385
-0.87
0.19
0.345
0.25
0.085
0.075
0.07
0.085
0.065
0.05
0.08
0.065
0.06
0.045
0.045
0.05
0.045
0.02
0.005
-0.02
-0.02
-0.045
-0.065
-0.075
-0.14
-0.17
-0.205
-0.275
-0.31
-0.335
-0.335
-0.3
-0.19
-0.1
-0.06
0.0
0.02
0.04
0.045
0.055
0.035
0.05
0.065
0.045
0.035
0.035
0.05
0.03
0.015
0.015
0.025
0.015
0.05
0.045
0.005
0.03
0.03
0.025
0.035
0.055
0.025
0.02
0.045
0.06
0.035
0.06
0.045
0.03
0.04
0.06
0.05
0.045
0.06
0.055
0.06
0.05
0.07
0.06
0.08
0.075
0.03
0.075
0.105
0.075
0.055
0.08
0.105
0.06
0.085
0.09
0.115
0.08
0.09
-0.005
-0.04
-0.06
-0.01
0.025
0.085
0.135
0.105
0.13
0.115
0.18
0.33
-0.09
-1.16
-1.145
-0.195
0.385
0.35
0.22
0.07
0.06
0.08
0.085
0.07
0.07
0.055
0.035
0.05
0.02
0.045
0.015
0.03
-0.025
-0.01
-0.015
-0.045
-0.09
-0.105
-0.125
-0.16
-0.165
-0.255
-0.285
-0.305
-0.31
-0.28
-0.195
-0.12
-0.045
-0.015
0.025
0.06
0.035
0.025
0.07
0.03
0.045
0.05
0.025
0.01
0.015
0.0
0.0
0.02
0.0
0.015
0.015
0.02
0.015
0.01
0.03
0.03
0.045
0.035
0.03
0.045
0.03
0.04
0.045
0.035
0.05
0.055
0.04
0.05
0.06
0.045
0.065
0.065
0.065
0.07
0.075
0.065
0.075
0.07
0.07
0.085
0.055
0.075
0.095
0.12
0.06
0.005
-0.05
-0.07
-0.035
0.025
0.035
0.07
0.11
0.115
0.095
0.12
0.23
0.205
-0.625
-1.55
-0.665
0.31
0.345
0.26
0.075
0.055
0.07
0.07
0.045
0.055
0.045
0.035
0.055
0.035
0.025
0.02
0.01
0.0
-0.005
-0.02
-0.04
-0.07
-0.105
-0.13
-0.16
-0.205
-0.235
-0.28
-0.325
-0.32
-0.29
-0.235
-0.155
-0.08
-0.03
0.005
0.025
0.035
0.035
0.025
0.02
0.02
0.035
0.015
0.005
0.005
0.005
0.0
0.0
0.005
0.0
0.0
0.0
0.005
0.01
0.0
0.015
0.02
0.015
0.015
0.03
0.03
0.025
0.03
0.035
0.03
0.03
0.03
0.03
0.03
0.04
0.035
0.035
0.035
0.035
0.04
0.045
0.04
0.04
0.045
0.05
0.055
0.055
0.05
0.055
0.065
0.055
0.065
0.065
0.065
0.07
0.07
0.07
0.07
0.075
0.075
0.075
0.085
0.085
0.08
0.085
0.055
0.015
-0.045
-0.07
-0.02
0.025
0.035
0.055
0.11
0.115
0.115
0.11
0.18
0.235
-0.45
-1.42
-0.78
0.3
0.345
0.22
0.085
0.08
0.07
0.07
0.09
0.065
0.065
0.07
0.07
0.06
0.045
0.05
0.04
0.025
0.015
0.0
-0.015
-0.04
-0.06
-0.105
-0.135
-0.16
-0.195
-0.27
-0.295
-0.335
-0.32
-0.26
-0.175
-0.11
-0.08
0.0
0.025
0.035
0.045
0.025
0.04
0.03
0.03
0.035
0.04
0.01
0.015
0.02
0.015
0.01
0.005
0.015
0.005
-0.005
0.025
0.015
0.025
0.025
0.015
0.025
0.025
0.025
0.02
0.005
0.035
0.075
0.035
0.035
0.02
0.03
0.045
0.04
0.04
0.05
0.04
0.035
0.04
0.06
0.03
0.035
0.045
0.09
0.07
0.035
0.06
0.07
0.06
0.04
0.08
0.075
0.07
0.06
0.08
0.075
0.065
0.07
0.065
0.095
0.095
0.075
0.085
0.055
0.135
0.115
0.03
-0.04
-0.085
-0.035
0.06
0.045
0.065
0.105
0.13
0.13
0.115
0.27
0.295
-0.515
-1.545
-0.815
0.16
0.375
0.33
0.155
0.08
0.065
0.08
0.085
0.05
0.055
0.07
0.05
0.03
0.05
0.04
0.0
0.005
-0.005
-0.015
-0.015
-0.055
-0.07
-0.105
-0.145
-0.18
-0.225
-0.245
-0.265
-0.305
-0.31
-0.26
-0.175
-0.12
-0.07
-0.015
0.0
0.04
0.03
0.02
0.015
0.01
0.015
0.005
0.0
-0.02
-0.01
0.0
-0.01
0.0
0.0
-0.015
-0.005
-0.01
-0.005
0.01
0.0
0.0
0.0
0.02
0.01
0.015
0.01
0.02
0.015
0.02
0.03
0.02
0.025
0.015
0.025
0.04
0.035
0.035
0.035
0.01
0.035
0.045
0.045
0.035
0.055
0.055
0.045
0.05
0.06
0.055
0.06
0.065
0.065
0.065
0.065
0.065
0.075
0.08
0.09
0.055
0.0
-0.065
-0.065
-0.03
0.01
0.025
0.055
0.105
0.105
0.115
0.11
0.22
0.16
-0.66
-1.49
-0.62
0.395
0.335
0.215
0.08
0.07
0.08
0.065
0.065
0.06
0.055
0.055
0.045
0.045
0.035
0.035
0.035
0.015
0.0
-0.01
-0.035
-0.055
-0.085
-0.12
-0.155
-0.2
-0.24
-0.28
-0.315
-0.33
-0.305
-0.24
-0.17
-0.09
-0.03
0.0
0.025
0.04
0.04
0.04
0.035
0.05
0.04
0.03
0.03
0.02
0.01
0.015
0.01
0.0
0.005
0.015
0.02
0.0
0.01
0.005
0.02
0.03
0.025
0.015
0.025
0.03
0.035
0.035
0.03
0.035
0.04
0.025
0.02
0.03
0.025
0.035
0.035
0.03
0.035
0.02
0.02
0.035
0.04
0.04
0.035
0.04
0.05
0.04
0.035
0.045
0.05
0.05
0.045
0.04
0.05
0.05
0.065
0.075
0.06
0.06
0.065
0.07
0.06
0.075
0.07
0.09
0.08
0.105
0.075
0.055
-0.04
-0.09
-0.02
0.015
0.04
0.05
0.085
0.105
0.125
0.12
0.15
0.25
-0.17
-1.17
-1.085
-0.105
0.385
0.305
0.15
0.09
0.08
0.085
0.085
0.07
0.04
0.065
0.075
0.055
0.055
0.04
0.025
0.005
0.01
0.015
-0.025
-0.035
-0.055
-0.085
-0.095
-0.145
-0.215
-0.24
-0.265
-0.32
-0.325
-0.29
-0.21
-0.135
-0.08
-0.005
0.01
0.03
0.055
0.04
0.035
0.055
0.025
0.03
0.05
0.03
0.005
-0.005
0.005
0.025
0.035
0.01
0.0
0.005
0.03
0.005
0.02
0.03
0.025
0.035
0.025
0.035
0.04
0.04
0.035
0.035
0.03
0.03
0.015
0.05
0.07
0.06
0.045
0.055
0.045
0.035
0.045
0.03
0.04
0.055
0.04
0.04
0.055
0.045
0.05
0.045
0.055
0.05
0.05
0.06
0.06
0.065
0.07
0.055
0.06
0.07
0.085
0.095
0.045
-0.01
-0.075
-0.06
-0.02
0.015
0.035
0.075
0.1
0.105
0.105
0.105
0.265
0.08
-0.86
-1.38
-0.465
0.375
0.32
0.215
0.075
0.07
0.075
0.05
0.06
0.065
0.05
0.04
0.06
0.04
0.035
0.015
0.015
0.005
0.0
-0.02
-0.045
-0.07
-0.085
-0.12
-0.15
-0.195
-0.225
-0.27
-0.3
-0.315
-0.3
-0.24
-0.15
-0.08
-0.035
0.0
0.025
0.03
0.035
0.03
0.03
0.02
0.02
0.02
0.01
0.015
0.0
-0.005
0.005
0.0
0.0
0.005
0.0
0.01
0.005
0.015
0.02
0.015
0.025
0.025
0.025
0.03
0.02
0.015
0.025
0.03
0.02
0.02
0.02
0.025
0.02
0.025
0.03
0.03
0.03
0.035
0.03
0.03
0.035
0.035
0.035
0.045
0.045
0.045
0.04
0.045
0.055
0.055
0.055
0.05
0.05
0.055
0.055
0.05
0.05
0.055
0.06
0.07
0.075
0.045
-0.01
-0.075
-0.07
-0.025
0.015
0.025
0.065
0.105
0.1
0.105
0.1
0.21
0.18
-0.61
-1.455
-0.68
0.375
0.33
0.185
0.075
0.075
0.07
0.065
0.08
0.055
0.045
0.055
0.07
0.035
0.045
0.035
0.01
0.005
0.0
-0.005
-0.025
-0.05
-0.09
-0.125
-0.135
-0.185
-0.22
-0.265
-0.335
-0.36
-0.31
-0.26
-0.195
-0.095
-0.03
0.0
0.015
0.035
0.04
0.055
0.055
0.05
0.035
0.025
0.025
0.015
0.04
0.03
0.025
0.015
0.01
0.04
0.035
0.015
0.02
0.04
0.015
0.05
0.06
0.0
0.02
0.05
0.02
0.05
0.065
0.05
0.025
0.05
0.045
0.05
0.045
0.05
0.06
0.035
0.065
0.08
0.06
0.035
0.06
0.045
0.05
0.065
0.065
0.06
0.08
0.055
0.07
0.085
0.09
0.065
0.09
0.085
0.08
0.085
0.095
0.095
0.09
0.1
0.09
0.095
0.08
0.135
0.105
0.115
0.035
-0.075
-0.05
0.005
0.045
0.065
0.1
0.125
0.135
0.135
0.17
0.27
0.23
-0.67
-1.55
-0.68
0.3
0.36
0.31
0.13
0.09
0.09
0.11
0.075
0.035
0.08
0.07
0.045
0.05
0.025
0.005
0.045
0.025
0.0
-0.01
-0.025
-0.065
-0.055
-0.11
-0.135
-0.155
-0.21
-0.23
-0.27
-0.32
-0.295
-0.24
-0.2
-0.085
-0.045
-0.02
0.02
0.035
0.015
0.02
0.02
0.02
0.01
0.015
0.015
0.0
0.02
0.01
0.045
0.03
0.015
0.02
0.035
0.035
0.03
0.04
0.025
0.03
0.04
0.035
0.03
0.04
0.03
0.045
0.045
0.04
0.05
0.05
0.04
0.045
0.06
0.07
0.05
0.04
0.06
0.05
0.07
0.085
0.06
0.05
0.06
0.075
0.075
0.075
0.075
0.07
0.065
0.07
0.065
0.075
0.08
0.06
0.11
0.085
0.04
-0.04
-0.07
-0.055
0.0
0.01
0.03
0.09
0.1
0.085
0.105
0.15
0.24
-0.25
-1.27
-1.095
-0.055
0.375
0.285
0.13
0.045
0.05
0.06
0.06
0.045
0.05
0.04
0.035
0.04
0.035
0.03
0.02
0.005
0.0
-0.01
-0.035
-0.05
-0.075
-0.1
-0.14
-0.195
-0.215
-0.265
-0.305
-0.34
-0.335
-0.29
-0.225
-0.135
-0.07
-0.015
0.005
0.025
0.035
0.03
0.035
0.04
0.03
0.025
0.02
0.015
0.015
0.01
0.005
0.01
0.005
0.01
0.01
0.0
0.01
0.01
0.01
0.015
0.015
0.01
0.02
0.02
0.03
0.025
0.02
0.025
0.025
0.02
0.02
0.02
0.015
0.03
0.04
0.035
0.035
0.045
0.045
0.03
0.025
0.05
0.05
0.045
0.05
0.055
0.06
0.05
0.06
0.05
0.055
0.07
0.06
0.05
0.055
0.085
0.07
0.07
0.075
0.07
0.06
0.08
0.08
0.07
0.1
0.08
0.045
-0.035
-0.08
-0.02
0.005
0.045
0.07
0.095
0.115
0.115
0.13
0.185
0.275
-0.28
-1.315
-1.02
0.055
0.4
0.3
0.12
0.065
0.09
0.085
0.05
0.06
0.085
0.06
0.06
0.06
0.055
0.055
0.045
0.025
0.01
0.01
-0.01
-0.055
-0.05
-0.07
-0.14
-0.135
-0.18
-0.245
-0.295
-0.34
-0.345
-0.315
-0.215
-0.105
-0.065
-0.005
0.015
0.015
0.055
0.045
0.035
0.06
0.045
0.045
0.05
0.025
0.02
0.015
0.01
0.02
0.045
0.02
0.025
0.015
0.015
0.01
0.045
0.035
0.03
0.05
0.015
0.015
0.055
0.03
0.035
0.03
0.04
0.08
0.055
0.045
0.08
0.075
0.04
0.075
0.04
0.065
0.07
0.07
0.075
0.07
0.08
0.08
0.07
0.08
0.075
0.085
0.055
0.115
0.08
0.105
0.1
0.07
0.12
0.11
0.09
0.09
0.125
0.075
0.105
-0.005
-0.045
-0.03
0.04
0.055
0.08
0.12
0.1
0.125
0.16
0.22
0.345
-0.32
-1.44
-1.005
0.0
0.405
0.34
0.19
0.095
0.095
0.075
0.04
0.105
0.07
0.07
0.045
0.07
0.04
0.04
0.06
0.0
0.035
0.005
-0.02
-0.04
-0.055
-0.055
-0.11
-0.16
-0.21
-0.22
-0.255
-0.3
-0.28
-0.29
-0.205
-0.11
-0.05
0.0
0.03
0.005
0.035
0.065
0.05
0.045
0.015
0.035
0.005
0.02
0.005
-0.02
0.025
-0.005
-0.005
0.03
0.015
0.01
-0.005
0.01
0.01
0.005
0.01
0.05
0.035
0.01
0.015
0.025
0.05
0.04
0.03
0.055
0.06
0.05
0.08
0.045
0.06
0.04
0.075
0.07
0.055
0.085
0.075
0.085
0.07
0.105
0.07
0.08
0.085
0.065
0.105
0.07
0.095
0.095
0.055
-0.01
-0.08
-0.025
0.005
0.025
0.07
0.09
0.135
0.11
0.1
0.14
0.245
-0.08
-1.05
-1.255
-0.27
0.385
0.32
0.19
0.065
0.06
0.065
0.06
0.05
0.05
0.04
0.035
0.045
0.05
0.045
0.01
0.005
0.005
0.0
-0.025
-0.055
-0.065
-0.11
-0.135
-0.16
-0.21
-0.26
-0.315
-0.33
-0.34
-0.305
-0.23
-0.15
-0.075
-0.03
0.01
0.025
0.03
0.045
0.035
0.03
0.025
0.02
0.0
0.015
0.015
0.0
0.0
0.01
0.0
-0.01
-0.005
0.0
0.0
0.0
0.0
0.01
0.015
0.005
0.015
0.025
0.025
0.03
0.015
0.02
0.025
0.02
0.03
0.025
0.025
0.02
0.025
0.025
0.025
0.025
0.035
0.04
0.04
0.03
0.05
0.045
0.045
0.05
0.05
0.06
0.04
0.045
0.045
0.055
0.045
0.045
0.06
0.075
0.08
0.07
0.095
0.1
0.08
0.055
-0.005
-0.07
-0.035
0.005
0.03
0.04
0.075
0.095
0.115
0.115
0.115
0.215
0.025
-0.87
-1.33
-0.4
0.415
0.31
0.15
0.07
0.075
0.065
0.065
0.07
0.05
0.06
0.05
0.04
0.04
0.04
0.025
0.03
0.005
-0.01
-0.025
-0.03
-0.04
-0.075
-0.12
-0.175
-0.2
-0.23
-0.305
-0.335
-0.325
-0.34
-0.265
-0.155
-0.1
-0.025
0.005
0.02
0.005
0.04
0.05
0.045
0.04
0.015
0.035
0.015
0.025
0.015
0.01
0.015
0.03
0.015
0.025
0.02
0.01
0.02
0.02
0.05
0.015
0.035
0.05
0.025
0.045
0.03
0.05
0.04
0.055
0.055
0.03
0.04
0.05
0.06
0.015
0.045
0.065
0.055
0.045
0.05
0.05
0.08
0.07
0.07
0.09
0.07
0.055
0.05
0.075
0.1
0.115
0.05
0.075
0.125
0.08
0.08
0.11
0.125
0.1
0.065
0.065
-0.03
-0.04
-0.01
0.07
0.045
0.11
0.145
0.105
0.09
0.155
0.3
0.245
-0.665
-1.61
-0.61
0.28
0.365
0.28
0.105
0.11
0.08
0.055
0.065
0.07
0.05
0.045
0.045
0.035
0.045
0.035
0.015
0.015
-0.02
0.0
-0.045
-0.045
-0.075
-0.09
-0.14
-0.185
-0.215
-0.265
-0.285
-0.315
-0.31
-0.255
-0.17
-0.09
-0.045
-0.01
0.02
0.025
0.04
0.05
0.05
0.025
0.035
0.04
0.01
0.005
0.005
0.015
0.015
0.0
0.0
0.015
0.02
0.025
0.015
0.005
0.01
0.015
0.035
0.05
0.035
0.025
0.04
0.03
0.035
0.045
0.035
0.04
0.035
0.04
0.05
0.06
0.045
0.04
0.05
0.055
0.045
0.04
0.065
0.065
0.055
0.06
0.06
0.08
0.065
0.075
0.065
0.075
0.075
0.075
0.07
0.09
0.075
0.02
-0.065
-0.085
-0.045
0.0
0.005
0.035
0.105
0.115
0.095
0.105
0.16
0.215
-0.37
-1.42
-0.915
0.13
0.355
0.27
0.115
0.065
0.07
0.05
0.06
0.06
0.045
0.05
0.045
0.04
0.04
0.04
0.01
0.01
0.0
-0.01
-0.035
-0.065
-0.075
-0.11
-0.155
-0.18
-0.24
-0.275
-0.32
-0.345
-0.34
-0.305
-0.22
-0.14
-0.07
-0.02
0.01
0.025
0.03
0.025
0.03
0.015
0.01
0.005
0.0
0.0
0.005
0.0
0.0
0.0
0.005
0.01
0.005
0.015
0.0
0.015
0.01
0.015
0.02
0.015
0.015
0.03
0.025
0.02
0.04
0.04
0.035
0.035
0.04
0.025
0.025
0.03
0.035
0.03
0.045
0.06
0.05
0.045
0.04
0.045
0.05
0.075
0.065
0.06
0.065
0.05
0.05
0.065
0.08
0.075
0.075
0.095
0.095
0.09
0.1
0.11
0.08
0.045
-0.01
-0.045
-0.045
0.005
0.04
0.05
0.095
0.135
0.095
0.14
0.135
0.25
-0.005
-0.98
-1.275
-0.37
0.42
0.335
0.185
0.07
0.09
0.07
0.08
0.085
0.07
0.065
0.06
0.06
0.055
0.065
0.01
0.02
0.015
0.0
-0.015
-0.025
-0.055
-0.095
-0.125
-0.155
-0.195
-0.22
-0.25
-0.325
-0.335
-0.285
-0.24
-0.165
-0.085
-0.03
-0.01
0.065
0.07
0.055
0.045
0.04
0.06
0.065
0.035
0.015
0.045
0.01
0.02
0.045
0.045
0.04
0.05
0.04
0.04
0.03
0.03
0.035
0.02
0.035
0.045
0.045
0.03
0.03
0.035
0.02
0.035
0.05
0.035
0.06
0.05
0.05
0.025
0.035
0.06
0.05
0.065
0.045
0.06
0.05
0.05
0.065
0.07
0.07
0.06
0.06
0.07
0.06
0.08
0.06
0.085
0.09
0.055
-0.03
-0.085
-0.06
-0.025
0.015
0.04
0.065
0.095
0.095
0.105
0.105
0.24
0.05
-0.885
-1.385
-0.435
0.385
0.315
0.205
0.05
0.06
0.065
0.055
0.045
0.05
0.045
0.045
0.025
0.035
0.04
0.02
0.0
-0.01
-0.015
-0.025
-0.04
-0.075
-0.095
-0.13
-0.165
-0.205
-0.245
-0.3
-0.335
-0.34
-0.32
-0.26
-0.165
-0.095
-0.04
-0.005
0.015
0.025
0.035
0.03
0.03
0.025
0.02
0.015
0.0
0.005
0.005
0.005
0.0
0.0
0.0
0.0
0.0
0.005
0.01
0.015
0.01
0.015
0.015
0.025
0.02
0.025
0.02
0.025
0.025
0.025
0.03
0.03
0.03
0.025
0.02
0.02
0.03
0.035
0.03
0.04
0.05
0.05
0.045
0.05
0.05
0.055
0.065
0.055
0.05
0.045
0.07
0.075
0.055
0.055
0.065
0.065
0.075
0.08
0.08
0.08
0.065
0.1
0.075
0.045
-0.045
-0.065
-0.035
0.01
0.045
0.045
0.11
0.115
0.115
0.14
0.175
0.265
-0.24
-1.285
-0.985
0.04
0.37
0.29
0.145
0.085
0.065
0.075
0.075
0.07
0.055
0.06
0.045
0.055
0.045
0.055
0.035
0.015
-0.005
0.0
0.0
-0.03
-0.065
-0.1
-0.105
-0.17
-0.22
-0.24
-0.285
-0.33
-0.33
-0.3
-0.24
-0.17
-0.08
-0.03
0.025
0.065
0.04
0.035
0.025
0.05
0.025
0.035
0.035
0.03
0.0
0.01
0.03
0.005
0.01
0.015
0.02
0.015
0.035
0.01
0.02
0.01
0.0
0.05
0.04
0.035
0.03
0.05
0.055
0.045
0.06
0.035
0.035
0.07
0.05
0.035
0.07
0.075
0.03
0.075
0.075
0.035
0.085
0.08
0.05
0.04
0.09
0.08
0.085
0.075
0.085
0.065
0.09
0.08
0.07
0.1
0.095
0.08
0.105
0.14
0.08
0.095
-0.03
-0.025
-0.035
0.045
0.045
0.075
0.125
0.13
0.12
0.13
0.21
0.31
-0.275
-1.37
-1.01
-0.06
0.395
0.345
0.21
0.105
0.05
0.095
0.06
0.06
0.05
0.045
0.065
0.03
0.04
0.03
0.02
0.01
0.005
0.0
-0.035
-0.035
-0.06
-0.095
-0.13
-0.15
-0.195
-0.215
-0.275
-0.315
-0.315
-0.28
-0.225
-0.15
-0.075
-0.025
0.0
0.025
0.04
0.03
0.035
0.03
0.02
0.025
0.01
0.02
0.0
-0.005
0.01
-0.015
0.01
0.03
0.005
0.015
0.01
0.015
0.03
0.025
0.025
0.025
0.035
0.03
0.045
0.025
0.035
0.03
0.045
0.045
0.04
0.045
0.055
0.055
0.045
0.05
0.035
0.065
0.06
0.05
0.05
0.065
0.06
0.06
0.055
0.06
0.06
0.06
0.08
0.06
0.05
0.08
0.085
0.06
0.01
-0.075
-0.065
-0.035
0.005
0.015
0.06
0.11
0.1
0.095
0.085
0.19
0.195
-0.585
-1.55
-0.705
0.33
0.325
0.235
0.075
0.065
0.065
0.065
0.055
0.05
0.045
0.05
0.055
0.045
0.04
0.03
0.015
0.0
-0.005
-0.02
-0.035
-0.06
-0.095
-0.12
-0.155
-0.19
-0.23
-0.28
-0.315
-0.34
-0.325
-0.275
-0.195
-0.115
-0.045
-0.005
0.02
0.03
0.03
0.03
0.035
0.035
0.03
0.025
0.02
0.01
0.0
0.0
0.0
0.0
0.0
0.005
0.01
0.0
0.01
0.015
0.015
0.015
0.02
0.015
0.015
0.015
0.015
0.01
0.02
0.025
0.035
0.03
0.03
0.025
0.04
0.035
0.02
0.03
0.04
0.035
0.04
0.045
0.035
0.035
0.04
0.055
0.055
0.055
0.04
0.045
0.05
0.055
0.055
0.06
0.075
0.07
0.075
0.07
0.065
0.07
0.08
0.075
0.08
0.08
0.095
0.08
0.025
-0.055
-0.08
-0.03
0.02
0.05
0.045
0.11
0.12
0.145
0.13
0.21
0.245
-0.5
-1.49
-0.78
0.32
0.345
0.245
0.115
0.08
0.075
0.085
0.065
0.09
0.08
0.045
0.055
0.055
0.06
0.05
0.04
0.035
0.02
-0.015
-0.03
-0.035
-0.045
-0.08
-0.1
-0.155
-0.215
-0.26
-0.275
-0.305
-0.31
-0.28
-0.2
-0.135
-0.045
0.005
0.03
0.06
0.06
0.065
0.045
0.04
0.06
0.055
0.035
0.02
0.0
0.015
0.01
0.015
0.01
0.01
0.02
0.015
0.01
0.02
0.015
0.02
0.02
0.025
0.03
0.03
0.035
0.03
0.03
0.04
0.035
0.035
0.035
0.025
0.03
0.04
0.045
0.04
0.035
0.045
0.04
0.045
0.04
0.03
0.045
0.04
0.055
0.04
0.04
0.05
0.055
0.055
0.06
0.05
0.065
0.06
0.065
0.065
0.065
0.065
0.07
0.07
0.085
0.075
0.045
-0.03
-0.08
-0.055
-0.015
0.02
0.03
0.08
0.11
0.1
0.115
0.115
0.235
0.0
-0.915
-1.22
-0.365
0.405
0.315
0.16
0.07
0.07
0.075
0.07
0.065
0.065
0.06
0.055
0.05
0.04
0.045
0.03
0.02
0.01
-0.005
-0.025
-0.035
-0.075
-0.095
-0.125
-0.16
-0.205
-0.245
-0.275
-0.31
-0.33
-0.305
-0.25
-0.17
-0.085
-0.03
0.005
0.035
0.025
0.035
0.035
0.03
0.035
0.03
0.025
0.01
0.02
0.01
0.01
0.005
0.015
0.015
0.025
0.03
0.005
0.02
0.025
0.02
0.035
0.04
0.025
0.035
0.04
0.04
0.03
0.04
0.035
0.015
0.045
0.055
0.035
0.03
0.06
0.055
0.025
0.045
0.04
0.055
0.05
0.055
0.05
0.035
0.06
0.06
0.055
0.065
0.07
0.06
0.075
0.065
0.065
0.075
0.08
0.075
0.08
0.09
0.075
0.095
0.105
0.12
0.085
0.035
-0.05
-0.05
-0.035
0.02
0.025
0.06
0.105
0.105
0.105
0.12
0.225
0.295
-0.44
-1.52
-0.885
0.14
0.385
0.295
0.125
0.06
0.06
0.065
0.055
0.055
0.04
0.05
0.045
0.035
0.02
0.025
0.015
0.015
0.0
-0.015
-0.03
-0.05
-0.075
-0.1
-0.135
-0.175
-0.205
-0.245
-0.285
-0.31
-0.315
-0.275
-0.205
-0.13
-0.065
-0.025
0.02
0.025
0.04
0.045
0.035
0.04
0.03
0.03
0.015
0.01
0.01
0.015
0.015
0.015
0.02
0.015
0.02
0.02
0.03
0.03
0.025
0.03
0.025
0.03
0.025
0.035
0.04
0.03
0.035
0.04
0.035
0.035
0.035
0.05
0.04
0.03
0.03
0.035
0.04
0.05
0.045
0.055
0.05
0.06
0.065
0.07
0.08
0.065
0.07
0.07
0.065
0.065
0.07
0.075
0.07
0.08
0.075
0.08
0.08
0.12
0.065
0.0
-0.055
-0.07
-0.015
0.03
0.045
0.07
0.125
0.125
0.12
0.13
0.22
0.27
-0.42
-1.45
-0.81
0.25
0.39
0.28
0.1
0.095
0.09
0.085
0.08
0.075
0.085
0.09
0.06
0.07
0.075
0.055
0.04
0.03
0.02
0.005
0.0
-0.025
-0.04
-0.085
-0.125
-0.165
-0.18
-0.245
-0.28
-0.32
-0.33
-0.245
-0.2
-0.115
-0.05
0.02
0.04
0.05
0.05
0.045
0.085
0.05
0.055
0.055
0.055
0.06
0.04
0.025
0.035
0.03
0.02
0.04
0.05
0.055
0.065
0.08
0.055
0.05
0.045
0.06
0.08
0.075
0.07
0.08
0.08
0.07
0.075
0.07
0.065
0.075
0.085
0.075
0.095
0.09
0.105
0.1
0.095
0.09
0.095
0.085
0.105
0.125
0.115
0.135
0.135
0.155
0.13
0.175
0.125
0.185
0.14
0.215
0.14
0.24
0.135
0.28
0.12
0.22
-0.02
0.13
-0.03
0.225
0.0
0.245
-0.005
0.24
-0.135
0.13
-0.235
0.095
-1.055
-1.88
-2.015
-0.775
-1.28
-1.225
-2.35
-2.285
-3.425
-3.42
-4.355
-4.19
-5.42
-5.485
-6.93
-7.155
-8.98
-9.435
8.85
8.515
6.78
6.07
4.01
3.015
0.605
-9.895
9.9
-9.905
9.915
-9.92
9.93
-9.935
9.945
-9.95
9.955
-9.965
9.97
-9.975
9.98
-9.985
9.995
-9.995
10.0
-10.005
10.01
-10.01
10.015
-10.015
10.015
-10.015
10.02
-10.02
10.02
-10.015
10.02
-10.015
10.015
-10.015
10.015
-10.015
10.015
-10.015
10.015
-10.015
10.015
-10.015
10.015
-10.02
10.02
-10.025
10.025
-10.03
10.035
-10.04
10.045
-10.05
10.05
-10.055
10.06
-10.065
10.065
-10.065
10.07
-10.07
10.065
-10.065
10.06
-10.055
10.045
-10.04
10.025
-10.015
9.995
-9.98
9.96
-9.935
9.91
-9.885
9.855
-9.825
9.79
-9.755
9.715
-9.675
9.635
-9.595
9.55
-9.505
9.46
-9.415
9.37
-9.325
9.28
-9.24
9.195
-9.155
9.115
-9.08
9.045
-9.01
8.98
-8.955
8.93
-8.91
8.89
-8.88
8.865
-8.86
8.855
-8.855
8.86
-8.87
8.88
-8.895
8.91
-8.935
8.955
-8.985
9.01
-9.045
9.075
-9.11
9.145
-9.185
9.225
-9.265
9.3
-9.34
9.38
-9.42
9.46
-9.5
9.535
-9.57
9.605
-9.635
9.67
-9.7
9.725
-9.75
9.775
-9.795
9.815
-9.83
9.845
-9.86
9.87
-9.88
9.89
-9.9
9.905
-9.91
9.91
-9.915
9.915
-9.92
9.92
-9.92
9.92
0.29
-2.285
-3.465
-5.775
-6.705
-8.765
-9.47
9.175
8.665
7.055
6.715
5.305
5.11
3.88
3.805
2.75
2.77
1.875
1.97
1.215
1.36
0.735
0.915
0.4
0.605
0.185
0.39
0.055
0.25
-0.015
0.16
-0.045
0.105
-0.055
0.075
-0.05
0.05
-0.04
0.035
-0.03
0.025
-0.02
0.015
-0.01
0.01
-0.005
0.005
0.0
0.0
0.0
0.0
0.0
0.0
0.0
0.0
0.0
0.0
0.0
0.0
0.0
0.0
0.0
0.0
0.0
0.0
0.0
0.0
0.0
0.0
0.0
0.0
0.0
0.0
0.0
0.0
0.0
0.0
0.0
0.0
0.0
0.0
0.0
0.0
0.0
0.0
0.0
0.0
0.0
0.0
0.0
0.0
0.0
0.0
0.0
0.0
0.0
0.0
0.0
0.0
0.0
0.0
0.0
0.0
0.0
0.0
0.0
0.0
0.0
0.0
0.0
0.0
0.0
0.0
0.0
0.0
0.0
0.0
0.0
0.0
0.0
0.0
0.0
0.0
0.0
0.0
0.0
0.0
0.0
0.0
0.0
0.0
0.0
0.0
0.0
0.0
0.0
0.0
0.0
0.0
0.0
0.0
0.0
0.0
0.0
0.0
0.0
0.0
0.0
0.0
0.0
0.0
0.0
0.0
0.0
0.0
0.0
0.0
0.0
0.0
0.0
0.0
0.0
0.0
0.0
0.0
0.0
0.0
0.0
0.0
0.0
0.0
0.0
0.0
0.0
0.0
0.0
0.0
0.0
0.0
0.0
0.0
0.0
0.0
0.0
0.0
0.0
0.0
0.0
0.0
0.0
0.0
0.0
0.0
0.0
0.0
0.0
0.0
0.0
0.0
0.0
0.0
0.0
0.0
0.0
0.0
0.0
0.0
0.0
0.0
0.0
0.0
0.0
0.0
0.0
0.0
0.0
0.0
0.0
0.0
0.0
0.0
0.0
0.0
0.0
0.0
0.0
0.0
0.0
0.0
0.0
0.0
0.0
0.0
0.0
0.0
0.0
0.0
0.0
0.0
0.0
0.0
0.0
0.0
0.0
0.0
0.0
0.0
0.0
0.0
0.0
0.0
0.0
0.0
0.0
0.0
0.0
0.0
0.0
0.0
0.0
0.0
0.0
0.0
0.0
0.0
0.0
0.0
0.0
0.0
0.0
0.0
0.0
0.0
0.0
0.0
0.0
0.0
0.0
0.0
0.0
0.0
0.0
0.0
0.0
0.0
0.0
0.0
0.0
0.0
0.0
0.0
0.0
0.0
0.0
0.0
0.0
0.0
0.0
0.0
0.0
0.0
0.0
0.0
0.0
0.0
0.0
0.0
0.0
0.0
0.0
0.0
0.0
0.0
0.0
0.0
0.0
0.0
0.0
0.0
0.0
0.0
0.0
0.0
0.0
0.0
0.0
0.0
0.0
0.0
0.0
0.0
0.0
0.0
0.0
0.0
0.0
0.0
0.0
0.0
0.0
0.0
0.0
0.0
0.0
0.0
0.0
0.0
0.0
0.0
0.0
0.0
0.0
0.0
0.0
0.0
0.0
0.0
0.0
0.0
0.0
0.0
0.0
0.0
0.0
0.0
0.0
0.0
0.0
0.0
0.0
0.0
0.0
0.0
0.0
0.0
0.0
0.0
0.0
0.0
0.0
0.0
0.0
0.0
0.0
0.0
0.0
0.0
0.0
0.0
0.0
0.0
0.0
0.0
-0.005
0.01
-0.01
0.015
-0.02
0.025
-0.03
0.035
-0.04
0.045
-0.05
0.06
-0.065
0.08
-0.075
0.11
-0.08
0.15
-0.075
0.205
-0.05
0.295
0.01
0.425
0.12
0.61
0.3
0.88
0.57
1.25
0.955
1.745
1.48
2.385
2.17
3.205
3.05
4.22
4.155
5.47
5.51
6.975
7.145
8.775
9.1
-9.575
-9.07
-7.085
-6.375
-4.195
-3.255
-0.87
9.915
-9.925
9.935
-9.945
9.955
-9.965
9.975
-9.99
10.0
-10.015
10.025
-10.04
10.055
-10.07
10.085
-10.105
10.12
-10.135
10.15
-10.17
10.185
-10.2
10.215
-10.23
-10.23
10.215
-10.2
10.185
-10.175
10.16
-10.15
10.14
-10.13
10.12
-10.11
10.1
-10.095
10.09
-10.085
10.085
-10.08
10.08
-10.08
10.08
-10.085
10.085
-10.09
10.095
-10.105
10.11
-10.12
10.125
-10.135
10.15
-10.16
10.17
-10.185
10.2
-10.21
10.225
10.235
-10.22
10.21
-10.195
10.18
-10.165
10.155
-10.14
10.13
-10.12
10.11
-10.1
10.09
-10.08
-0.125
2.305
3.325
5.595
6.34
8.285
8.91
-9.81
-9.245
-7.68
-7.33
-5.98
-5.71
-4.52
-4.4
-3.42
-3.35
-2.49
-2.495
-1.755
-1.81
-1.21
-1.275
-0.825
-0.905
-0.525
-0.625
-0.35
-0.405
-0.21
-0.235
-0.19
-0.175
-0.12
-0.19
-0.045
-0.105
0.0
-0.11
-0.035
-0.055
-0.025
-0.12
-0.03
-0.115
-0.005
-0.11
-0.03
-0.1
-0.03
-0.115
-0.03
-0.055
0.065
0.06
0.05
-0.03
0.005
-0.03
-0.095
-0.125
-0.115
-0.115
-0.15
-0.235
0.29
1.29
0.99
-0.085
-0.365
-0.275
-0.1
-0.055
-0.07
-0.06
-0.055
-0.065
-0.07
-0.06
-0.075
-0.065
-0.05
-0.035
-0.03
-0.005
0.0
0.0
0.02
0.06
0.08
0.115
0.135
0.175
0.23
0.255
0.305
0.33
0.345
0.31
0.235
0.175
0.07
0.02
0.0
-0.02
-0.05
-0.02
-0.025
-0.02
-0.005
-0.005
-0.015
-0.025
-0.01
0.0
0.01
-0.015
-0.02
-0.01
-0.005
-0.01
-0.01
-0.005
-0.02
-0.025
-0.015
-0.02
-0.035
-0.02
-0.01
0.0
-0.025
-0.05
-0.05
-0.035
-0.04
-0.045
-0.065
-0.045
-0.035
-0.07
-0.045
-0.06
-0.04
-0.08
-0.07
-0.055
-0.06
-0.075
-0.05
-0.08
-0.07
-0.075
-0.095
-0.085
-0.075
-0.06
-0.1
-0.085
-0.085
-0.085
-0.125
-0.085
-0.06
0.0
0.035
0.04
-0.03
-0.04
-0.055
-0.115
-0.12
-0.11
-0.145
-0.17
-0.305
0.13
1.16
1.15
0.21
-0.395
-0.39
-0.23
-0.095
-0.105
-0.095
-0.095
-0.09
-0.075
-0.065
-0.045
-0.045
-0.045
-0.02
-0.015
-0.035
0.0
0.0
0.01
0.05
0.055
0.1
0.125
0.12
0.185
0.24
0.29
0.31
0.335
0.29
0.215
0.14
0.085
0.015
-0.015
-0.045
-0.04
-0.035
-0.035
-0.045
-0.045
-0.03
-0.03
-0.025
-0.025
0.005
-0.015
-0.005
-0.005
0.0
-0.03
-0.03
-0.025
-0.015
-0.04
-0.005
-0.03
-0.045
-0.04
-0.025
-0.055
-0.045
-0.045
-0.025
-0.07
-0.05
-0.065
-0.04
-0.055
-0.05
-0.07
-0.03
-0.075
-0.075
-0.06
-0.06
-0.055
-0.075
-0.06
-0.07
-0.08
-0.075
-0.085
-0.065
-0.08
-0.08
-0.105
-0.105
-0.05
0.0
0.065
0.035
0.02
-0.05
-0.045
-0.095
-0.145
-0.13
-0.07
-0.095
-0.245
-0.195
0.65
1.49
0.565
-0.425
-0.355
-0.235
-0.07
-0.085
-0.095
-0.06
-0.065
-0.07
-0.07
-0.06
-0.045
-0.055
-0.035
-0.035
-0.015
0.0
0.02
0.035
0.075
0.09
0.085
0.1
0.13
0.18
0.215
0.28
0.32
0.335
0.31
0.29
0.19
0.11
0.03
-0.005
-0.065
-0.03
-0.045
-0.04
-0.07
-0.06
-0.025
-0.035
-0.025
-0.02
-0.045
-0.02
-0.035
-0.015
-0.015
-0.065
-0.03
-0.045
-0.03
-0.1
-0.02
-0.055
-0.07
-0.075
-0.075
-0.075
-0.06
-0.08
-0.065
-0.075
-0.065
-0.07
-0.085
-0.04
-0.045
-0.07
-0.07
-0.07
-0.06
-0.1
-0.075
-0.045
-0.095
-0.08
-0.06
-0.055
-0.09
-0.1
-0.085
0.01
0.055
0.05
0.005
-0.025
-0.065
-0.095
-0.11
-0.17
-0.13
-0.115
-0.305
-0.17
0.76
1.495
0.545
-0.355
-0.395
-0.285
-0.065
-0.1
-0.105
-0.1
-0.085
-0.035
-0.075
-0.07
-0.045
-0.08
-0.065
-0.03
-0.04
-0.01
0.02
-0.025
0.02
0.05
0.095
0.115
0.175
0.19
0.195
0.285
0.315
0.345
0.335
0.265
0.17
0.045
-0.01
-0.025
-0.01
-0.03
-0.045
-0.09
-0.08
-0.05
-0.055
-0.055
-0.065
-0.06
-0.065
0.0
-0.04
-0.03
-0.065
-0.05
-0.06
-0.025
-0.07
-0.115
-0.07
-0.07
-0.02
-0.105
-0.08
-0.095
-0.075
-0.08
-0.075
-0.085
-0.135
-0.065
-0.1
-0.12
-0.09
-0.14
-0.11
-0.075
-0.105
0.03
0.065
-0.015
-0.025
-0.03
-0.08
-0.125
-0.105
-0.15
-0.1
-0.13
-0.285
0.035
0.97
1.31
0.345
-0.4
-0.345
-0.235
-0.08
-0.05
-0.095
-0.065
-0.07
-0.07
-0.045
-0.06
-0.05
-0.045
-0.04
-0.015
0.0
-0.01
0.02
0.04
0.055
0.075
0.08
0.125
0.175
0.225
0.275
0.29
0.305
0.31
0.26
0.2
0.115
0.055
0.025
0.0
-0.055
-0.06
-0.05
-0.04
-0.025
-0.055
-0.06
-0.02
-0.045
-0.01
-0.015
-0.04
-0.03
-0.03
-0.035
-0.04
-0.045
-0.055
-0.035
-0.05
-0.045
-0.05
-0.05
-0.085
-0.085
-0.07
-0.07
-0.07
-0.075
-0.085
-0.065
-0.05
-0.085
-0.08
-0.09
-0.085
-0.065
-0.12
-0.11
-0.03
0.005
0.07
0.05
0.01
-0.02
-0.045
-0.08
-0.095
-0.1
-0.115
-0.11
-0.215
-0.205
0.61
1.56
0.67
-0.335
-0.33
-0.23
-0.07
-0.06
-0.055
-0.045
-0.07
-0.055
-0.04
-0.06
-0.045
-0.03
-0.02
-0.015
0.0
0.0
0.03
0.04
0.055
0.055
0.105
0.135
0.17
0.2
0.235
0.295
0.33
0.33
0.32
0.25
0.16
0.09
0.04
0.005
-0.02
-0.025
-0.025
-0.015
-0.01
-0.015
-0.03
-0.015
0.0
0.005
0.0
0.0
-0.005
-0.01
-0.005
-0.01
-0.015
-0.02
-0.01
-0.015
-0.02
-0.025
-0.015
-0.025
-0.03
-0.035
-0.025
-0.035
-0.03
-0.025
-0.03
-0.045
-0.045
-0.045
-0.045
-0.06
-0.07
-0.065
-0.06
-0.065
-0.065
-0.075
-0.065
-0.06
-0.08
-0.09
-0.07
-0.09
-0.08
-0.085
-0.095
-0.095
-0.105
-0.075
0.0
0.045
0.03
0.005
-0.03
-0.04
-0.065
-0.11
-0.145
-0.125
-0.13
-0.2
-0.24
0.37
1.42
0.86
-0.255
-0.395
-0.295
-0.135
-0.09
-0.09
-0.09
-0.08
-0.07
-0.085
-0.05
-0.04
-0.075
-0.07
-0.07
-0.065
-0.03
-0.015
-0.02
0.0
0.04
0.05
0.08
0.095
0.16
0.215
0.26
0.265
0.305
0.325
0.255
0.195
0.1
0.06
0.02
-0.015
-0.035
-0.045
-0.035
-0.05
-0.025
-0.015
-0.035
-0.01
-0.025
-0.03
0.01
-0.015
-0.04
-0.04
0.0
-0.025
-0.02
-0.025
-0.035
-0.045
-0.01
-0.07
-0.075
-0.035
-0.04
-0.07
-0.05
-0.045
-0.04
-0.06
-0.07
-0.04
-0.055
-0.07
-0.085
-0.115
-0.075
-0.1
-0.07
-0.12
-0.115
-0.095
-0.105
-0.08
-0.075
-0.115
-0.08
-0.1
-0.085
-0.145
-0.115
-0.115
-0.045
-0.105
-0.15
-0.09
-0.065
0.0
0.005
-0.005
0.0
-0.05
-0.05
-0.045
-0.12
-0.07
-0.15
-0.135
-0.34
0.185
1.21
1.165
0.165
-0.36
-0.35
-0.175
-0.105
-0.045
-0.105
-0.05
-0.065
-0.045
-0.055
-0.05
-0.035
-0.03
-0.045
-0.035
0.0
-0.015
0.0
0.0
0.05
0.035
0.08
0.1
0.135
0.165
0.225
0.265
0.305
0.305
0.295
0.215
0.165
0.08
0.02
-0.015
-0.005
-0.025
-0.045
-0.05
-0.04
-0.02
0.01
0.02
-0.005
0.02
-0.035
0.01
-0.02
-0.005
-0.005
0.0
-0.01
-0.005
-0.03
-0.025
-0.025
-0.02
-0.03
-0.015
-0.07
-0.025
-0.045
0.005
-0.05
-0.015
-0.015
-0.01
0.005
0.05
-0.08
-0.135
-0.115
-0.065
-0.035
-0.04
-0.045
-0.085
-0.08
-0.085
-0.06
-0.07
-0.055
-0.075
-0.055
-0.1
-0.065
-0.07
-0.08
-0.07
-0.02
0.02
0.085
0.04
-0.005
-0.04
-0.05
-0.1
-0.095
-0.12
-0.11
-0.14
-0.225
0.18
1.16
1.045
0.05
-0.395
-0.29
-0.12
-0.08
-0.07
-0.075
-0.07
-0.085
-0.07
-0.06
-0.055
-0.045
-0.025
-0.03
-0.005
-0.015
0.01
0.005
0.03
0.065
0.055
0.055
0.085
0.15
0.2
0.235
0.275
0.285
0.3
0.28
0.215
0.125
0.06
0.0
-0.005
-0.025
-0.03
-0.055
-0.06
-0.06
-0.01
-0.04
-0.025
-0.01
0.0
-0.03
0.0
-0.025
0.0
-0.025
0.0
-0.045
0.0
-0.03
0.0
-0.04
-0.03
-0.04
-0.035
-0.07
-0.03
-0.025
-0.045
-0.05
-0.035
-0.05
-0.01
-0.08
-0.035
-0.07
-0.04
-0.07
-0.055
-0.075
-0.075
-0.055
-0.07
-0.07
-0.085
-0.075
-0.085
-0.075
-0.095
-0.07
-0.115
-0.075
-0.085
-0.085
-0.075
-0.11
-0.105
-0.095
-0.115
-0.095
0.0
0.065
0.04
-0.01
-0.025
-0.07
-0.08
-0.125
-0.115
-0.12
-0.155
-0.275
-0.185
0.74
1.455
0.59
-0.38
-0.325
-0.265
-0.08
-0.13
-0.1
-0.085
-0.09
-0.04
-0.085
-0.07
-0.06
-0.055
-0.065
-0.06
-0.01
0.005
-0.01
-0.015
0.025
0.055
0.025
0.095
0.12
0.165
0.185
0.23
0.265
0.31
0.285
0.265
0.175
0.065
0.05
0.0
-0.005
-0.085
-0.075
-0.04
-0.04
-0.075
-0.02
0.0
-0.035
-0.025
-0.015
-0.01
-0.045
-0.005
-0.03
-0.035
-0.035
-0.04
-0.04
-0.05
0.0
-0.035
-0.035
-0.05
-0.025
-0.055
-0.04
-0.05
-0.04
-0.04
-0.04
-0.035
-0.07
-0.06
-0.06
-0.065
-0.055
-0.07
-0.05
-0.06
-0.065
-0.075
-0.11
-0.06
-0.08
-0.07
-0.095
-0.1
-0.075
-0.1
-0.1
-0.11
-0.055
0.04
0.07
0.04
0.0
-0.03
-0.055
-0.09
-0.12
-0.1
-0.14
-0.145
-0.26
0.15
1.13
1.165
0.165
-0.36
-0.325
-0.185
-0.07
-0.045
-0.08
-0.025
-0.07
-0.045
-0.04
-0.02
-0.055
-0.02
-0.045
0.005
-0.02
0.025
0.005
0.055
0.02
0.09
0.09
0.13
0.16
0.18
0.245
0.255
0.335
0.305
0.3
0.2
0.17
0.065
0.065
-0.025
-0.01
-0.055
0.0
-0.04
0.005
-0.045
0.01
-0.01
0.005
0.005
0.0
-0.01
0.015
-0.015
0.005
-0.015
0.0
-0.025
-0.005
-0.025
-0.01
-0.015
-0.03
-0.045
-0.01
-0.055
-0.02
-0.05
-0.035
-0.06
-0.035
-0.05
-0.06
-0.03
-0.06
-0.04
-0.065
-0.045
-0.065
-0.045
-0.075
-0.045
-0.07
-0.045
-0.06
-0.05
-0.08
-0.055
-0.07
-0.06
-0.07
-0.065
-0.075
-0.065
-0.085
-0.07
-0.085
-0.08
-0.09
-0.075
-0.06
0.015
0.065
0.05
0.015
-0.03
-0.04
-0.075
-0.11
-0.115
-0.105
-0.1
-0.2
-0.18
0.6
1.465
0.685
-0.425
-0.34
-0.185
-0.075
-0.085
-0.07
-0.07
-0.07
-0.05
-0.085
-0.05
-0.06
-0.065
-0.055
-0.035
-0.035
-0.02
-0.005
0.01
0.02
0.04
0.06
0.09
0.15
0.155
0.23
0.26
0.3
0.33
0.34
0.27
0.205
0.115
0.035
0.0
-0.01
-0.03
-0.035
-0.04
-0.02
-0.015
-0.045
-0.025
-0.025
0.0
-0.025
-0.01
-0.025
-0.015
-0.025
-0.01
-0.03
-0.025
-0.015
-0.005
-0.04
-0.01
-0.055
-0.015
-0.035
-0.02
-0.055
-0.015
-0.07
-0.04
-0.065
-0.025
-0.06
-0.03
-0.045
-0.025
-0.045
-0.025
-0.045
-0.035
-0.035
-0.045
-0.035
-0.04
-0.02
-0.04
-0.035
-0.07
-0.035
-0.055
-0.05
-0.055
-0.04
-0.055
-0.04
-0.06
-0.075
-0.055
-0.09
-0.14
-0.09
-0.045
0.005
0.065
0.045
-0.01
-0.02
-0.065
-0.1
-0.125
-0.09
-0.12
-0.13
-0.27
0.125
1.13
1.09
0.17
-0.425
-0.305
-0.17
-0.065
-0.085
-0.08
-0.075
-0.065
-0.065
-0.05
-0.05
-0.035
-0.04
-0.025
-0.02
-0.04
-0.005
0.0
0.01
0.01
0.065
0.085
0.13
0.14
0.2
0.235
0.27
0.3
0.335
0.28
0.23
0.13
0.08
0.025
-0.005
-0.015
-0.035
-0.03
-0.035
-0.025
-0.06
-0.04
-0.02
-0.015
-0.015
-0.02
0.0
-0.03
-0.01
-0.03
-0.04
-0.025
-0.03
-0.035
-0.03
-0.03
-0.015
-0.055
-0.025
-0.065
-0.01
-0.035
-0.02
-0.05
-0.045
-0.065
-0.035
-0.04
-0.045
-0.06
-0.055
-0.065
-0.015
-0.06
-0.05
-0.065
-0.08
-0.06
-0.055
-0.08
-0.09
-0.06
-0.065
-0.065
-0.105
-0.085
-0.1
-0.095
-0.13
-0.065
-0.04
0.075
0.06
0.025
-0.015
-0.01
-0.085
-0.095
-0.14
-0.095
-0.125
-0.245
-0.25
0.55
1.56
0.745
-0.2
-0.375
-0.33
-0.11
-0.09
-0.075
-0.075
-0.045
-0.06
-0.06
-0.035
-0.045
-0.06
-0.015
-0.005
0.005
-0.01
0.025
0.025
0.035
0.095
0.115
0.095
0.145
0.17
0.22
0.255
0.3
0.345
0.3
0.265
0.205
0.105
0.06
0.015
0.0
-0.015
-0.025
-0.045
-0.02
-0.02
-0.02
0.0
-0.01
-0.005
0.005
0.0
-0.015
0.01
-0.015
0.0
-0.005
0.0
-0.025
-0.015
-0.025
-0.025
-0.045
-0.025
-0.05
-0.025
-0.035
-0.025
-0.05
-0.04
-0.045
-0.03
-0.065
-0.05
-0.055
-0.04
-0.07
-0.035
-0.08
-0.045
-0.075
-0.05
-0.095
-0.07
-0.075
-0.065
-0.07
-0.085
-0.06
-0.095
-0.05
-0.05
0.04
0.07
0.04
-0.015
-0.01
-0.055
-0.085
-0.11
-0.09
-0.115
-0.15
-0.27
0.14
1.125
1.165
0.135
-0.4
-0.305
-0.14
-0.07
-0.06
-0.07
-0.085
-0.05
-0.045
-0.055
-0.055
-0.05
-0.06
-0.03
-0.025
-0.01
0.0
0.015
0.015
0.035
0.04
0.08
0.135
0.205
0.2
0.245
0.28
0.33
0.32
0.31
0.215
0.135
0.08
0.01
-0.01
-0.02
-0.04
-0.025
-0.04
-0.05
-0.03
-0.035
-0.005
0.0
0.015
0.02
-0.03
-0.005
-0.005
-0.035
-0.015
0.0
-0.02
-0.06
-0.005
-0.03
-0.04
-0.045
-0.04
-0.015
-0.045
-0.05
-0.035
-0.065
-0.045
-0.035
-0.03
-0.055
-0.05
-0.05
-0.04
-0.05
-0.05
-0.06
-0.04
-0.04
-0.055
-0.05
-0.06
-0.06
-0.06
-0.045
-0.075
-0.03
-0.05
-0.06
-0.055
-0.06
-0.07
-0.06
-0.065
-0.05
-0.09
-0.085
-0.025
0.03
0.085
0.025
0.015
-0.04
-0.015
-0.1
-0.09
-0.135
-0.095
-0.15
-0.21
0.12
1.145
1.14
0.205
-0.415
-0.285
-0.16
-0.05
-0.065
-0.08
-0.07
-0.055
-0.04
-0.09
-0.07
-0.075
-0.045
-0.05
-0.015
-0.035
-0.01
0.0
0.03
0.035
0.09
0.09
0.14
0.17
0.22
0.245
0.315
0.33
0.335
0.305
0.25
0.16
0.095
0.02
0.0
-0.055
-0.04
-0.065
-0.045
-0.05
-0.025
-0.03
-0.015
-0.025
0.0
-0.02
-0.03
-0.005
-0.02
-0.01
-0.02
0.0
0.005
-0.005
0.01
-0.01
-0.015
-0.02
-0.015
0.0
-0.005
0.005
-0.02
-0.03
-0.055
-0.095
-0.1
-0.095
-0.085
-0.075
-0.075
-0.075
-0.07
-0.08
-0.065
-0.065
-0.01
0.0
-0.035
-0.045
-0.035
-0.065
-0.085
-0.07
-0.065
-0.095
-0.115
-0.095
-0.095
-0.1
-0.125
-0.1
-0.02
0.055
0.06
0.005
-0.04
-0.075
-0.07
-0.1
-0.105
-0.135
-0.125
-0.225
-0.32
0.355
1.49
0.89
-0.15
-0.37
-0.305
-0.125
-0.115
-0.13
-0.075
-0.065
-0.095
-0.085
-0.005
-0.095
-0.12
-0.085
-0.065
-0.085
-0.07
-0.06
-0.045
-0.005
0.02
0.045
0.05
0.11
0.155
0.205
0.24
0.29
0.31
0.31
0.265
0.21
0.105
0.055
0.01
-0.025
-0.045
-0.04
-0.06
-0.06
-0.04
-0.035
-0.02
-0.005
0.02
0.0
-0.035
-0.02
-0.04
-0.03
-0.015
-0.005
-0.035
-0.045
-0.035
-0.015
-0.025
-0.03
-0.03
-0.05
-0.05
-0.055
-0.07
-0.06
-0.065
-0.06
-0.065
-0.06
-0.06
-0.06
-0.07
-0.075
-0.06
-0.055
-0.07
-0.07
-0.065
-0.085
-0.075
-0.095
-0.095
-0.08
-0.065
-0.085
-0.085
-0.06
-0.045
-0.095
-0.09
-0.07
-0.025
0.05
0.03
0.0
-0.035
-0.04
-0.085
-0.11
-0.115
-0.11
-0.125
-0.24
-0.095
0.795
1.425
0.5
-0.43
-0.32
-0.2
-0.075
-0.075
-0.065
-0.06
-0.065
-0.055
-0.055
-0.04
-0.055
-0.04
-0.045
-0.03
-0.01
-0.015
0.0
0.015
0.045
0.06
0.095
0.12
0.165
0.21
0.25
0.295
0.32
0.35
0.32
0.25
0.165
0.1
0.03
-0.01
-0.03
-0.035
-0.045
-0.04
-0.045
-0.035
-0.04
-0.025
-0.015
-0.02
-0.02
-0.015
-0.005
-0.01
0.0
-0.005
-0.015
-0.02
-0.01
-0.025
-0.03
-0.03
-0.045
-0.04
-0.04
-0.03
-0.03
-0.025
-0.045
-0.04
-0.035
-0.04
-0.04
-0.02
-0.035
-0.06
-0.05
-0.04
-0.055
-0.065
-0.065
-0.055
-0.04
-0.02
-0.055
-0.05
-0.04
-0.055
-0.055
-0.09
-0.1
-0.07
-0.05
-0.09
-0.06
-0.08
-0.085
-0.055
-0.09
-0.13
-0.1
-0.05
0.05
0.06
0.01
-0.055
-0.05
-0.06
-0.125
-0.13
-0.14
-0.15
-0.21
-0.33
0.26
1.41
0.975
-0.02
-0.405
-0.33
-0.135
-0.13
-0.095
-0.055
-0.06
-0.085
-0.085
-0.065
-0.065
-0.06
-0.02
-0.065
-0.07
-0.02
-0.03
-0.01
0.035
0.04
0.035
0.08
0.12
0.165
0.165
0.23
0.27
0.305
0.325
0.295
0.245
0.12
0.045
0.025
-0.005
-0.02
-0.045
-0.055
-0.04
-0.065
0.0
-0.04
-0.025
-0.025
-0.045
0.0
-0.05
-0.035
-0.04
-0.02
-0.02
-0.07
-0.035
-0.055
-0.035
-0.05
-0.05
-0.065
-0.06
-0.045
-0.03
-0.035
-0.08
-0.075
-0.055
-0.08
-0.075
-0.045
-0.06
-0.06
-0.075
-0.095
-0.08
-0.045
-0.09
-0.04
-0.08
-0.06
-0.095
-0.05
-0.08
-0.075
-0.095
-0.1
-0.12
-0.015
0.025
0.125
-0.07
0.02
-0.125
-0.065
-0.2
-0.13
-0.195
-0.09
-0.33
-0.255
0.36
1.6
0.8
-0.085
-0.265
-0.265
-0.035
-0.085
-0.07
-0.105
-0.075
-0.035
-0.045
-0.065
-0.035
-0.01
-0.14
-0.07
-0.03
0.005
-0.015
0.045
0.02
0.075
0.055
0.14
0.135
0.225
0.255
0.28
0.355
0.32
0.355
0.25
0.265
0.08
0.065
-0.02
-0.01
-0.115
-0.03
-0.08
-0.05
-0.08
-0.01
-0.06
-0.05
-0.06
-0.035
-0.04
-0.01
-0.03
-0.01
-0.025
0.01
0.02
0.07
0.045
0.095
0.09
0.125
0.02
-0.03
-0.045
-0.01
0.005
-0.01
-0.13
-0.19
-0.17
-0.155
-0.15
-0.12
-0.125
-0.12
-0.11
-0.135
-0.125
-0.12
-0.08
-0.115
-0.12
-0.16
-0.135
-0.185
-0.105
-0.185
-0.115
-0.14
-0.045
-0.065
0.0
-0.1
0.0
-0.085
-0.11
-0.08
-0.075
-0.185
-0.04
0.0
0.155
0.585
0.58
0.445
0.3
0.195
0.025
-0.03
-0.045
-0.03
-0.135
-0.18
0.44
1.525
0.935
-0.125
-0.36
-0.265
-0.155
-0.085
-0.095
-0.075
-0.065
-0.06
-0.08
-0.065
-0.145
-0.095
-0.125
-0.14
-0.165
-0.145
-0.2
-0.275
-0.3
-0.38
-0.21
-0.055
0.045
0.13
0.22
0.205
0.26
0.285
0.32
0.22
0.2
0.09
0.06
-0.03
-0.03
-0.02
0.0
0.015
0.01
0.015
0.025
0.0
-0.005
0.0
-0.035
0.01
-0.05
-0.01
-0.02
-0.05
-0.06
-0.025
-0.06
-0.07
-0.04
-0.02
-0.07
-0.06
-0.035
-0.025
-0.06
-0.04
-0.05
-0.01
-0.05
-0.065
-0.055
-0.055
-0.05
-0.05
-0.03
-0.075
-0.06
-0.05
-0.065
-0.07
-0.05
-0.08
-0.065
-0.08
-0.075
-0.095
-0.12
-0.125
-0.125
-0.125
-0.115
-0.12
-0.125
-0.155
-0.165
-0.19
-0.17
-0.195
-0.15
-0.125
-0.05
-0.015
-0.035
-0.115
-0.075
-0.11
-0.165
-0.195
-0.175
-0.195
-0.26
-0.325
0.37
1.455
0.84
-0.165
-0.42
-0.395
-0.225
-0.12
-0.045
-0.03
0.02
0.05
0.195
0.625
0.975
0.735
0.435
0.29
0.16
0.135
0.07
0.09
0.06
0.055
0.07
0.075
0.105
0.14
0.175
0.23
0.22
0.27
0.27
0.235
0.185
0.08
0.005
-0.015
-0.055
-0.08
-0.105
-0.105
-0.115
-0.16
-0.16
-0.19
-0.22
-0.205
-0.16
-0.165
-0.255
-0.2
-0.145
-0.06
0.085
0.115
0.13
0.09
0.065
0.06
0.045
0.02
0.035
0.03
0.015
0.005
0.01
0.005
0.0
0.005
-0.025
-0.035
-0.06
-0.055
-0.045
-0.07
-0.08
-0.045
-0.085
-0.095
-0.095
-0.075
-0.09
-0.095
-0.075
-0.08
-0.105
-0.1
-0.095
-0.11
-0.105
-0.11
-0.105
-0.12
-0.11
-0.12
-0.11
-0.115
-0.08
-0.025
0.03
0.045
0.01
-0.035
-0.07
-0.09
-0.14
-0.13
-0.15
-0.15
-0.235
-0.26
0.44
1.455
0.75
-0.33
-0.385
-0.265
-0.1
-0.09
-0.095
-0.09
-0.08
-0.06
-0.02
-0.03
-0.025
-0.02
-0.015
0.01
0.015
0.015
0.055
0.12
0.66
0.285
0.055
0.075
0.125
0.245
0.33
0.44
0.49
0.56
0.48
0.345
0.255
0.265
0.115
0.105
0.03
0.005
-0.025
0.0
-0.025
-0.005
-0.015
-0.015
-0.025
-0.01
0.0
-0.005
-0.005
0.0
0.0
-0.02
0.0
-0.025
-0.035
-0.04
-0.1
-0.15
-0.185
-0.28
-0.385
-0.21
-0.195
-0.16
-0.105
-0.11
-0.08
-0.055
-0.025
-0.035
-0.025
-0.065
-0.055
-0.04
-0.03
-0.04
-0.015
-0.03
-0.07
-0.07
-0.03
-0.055
-0.06
-0.06
-0.055
-0.055
-0.11
-0.1
-0.06
-0.085
-0.105
-0.105
-0.09
-0.08
-0.11
-0.115
-0.075
-0.11
-0.14
-0.095
-0.055
0.03
0.035
-0.01
-0.075
-0.06
-0.1
-0.13
-0.145
-0.125
-0.165
-0.33
-0.285
0.555
1.565
0.71
-0.285
-0.39
-0.31
-0.12
-0.05
-0.01
-0.005
0.0
-0.055
-0.04
-0.035
-0.025
0.055
0.13
0.18
0.165
0.12
0.115
0.16
0.08
0.115
0.035
0.15
0.11
0.185
0.2
0.205
0.235
0.26
0.3
0.275
0.215
0.1
0.09
0.04
0.035
-0.04
0.015
-0.01
-0.005
-0.015
-0.015
-0.025
0.01
0.0
0.005
-0.005
-0.02
-0.005
-0.015
-0.01
-0.02
-0.025
-0.005
-0.025
-0.005
-0.035
-0.05
-0.05
-0.065
-0.065
-0.105
-0.215
-0.18
-0.13
-0.1
-0.13
-0.125
-0.195
-0.155
-0.11
-0.07
-0.07
-0.08
-0.055
-0.075
-0.06
-0.1
-0.08
-0.055
-0.075
-0.095
-0.06
-0.085
-0.065
-0.075
-0.06
-0.105
-0.085
-0.045
0.045
0.08
0.055
0.0
-0.005
-0.04
-0.105
-0.135
-0.095
-0.145
-0.205
-0.25
0.31
1.37
0.96
-0.015
-0.375
-0.315
-0.145
-0.07
-0.065
-0.065
-0.05
-0.05
-0.045
-0.045
-0.03
-0.025
-0.035
-0.015
0.02
-0.01
0.025
0.05
0.08
0.1
0.11
0.14
0.14
0.17
0.2
0.255
0.285
0.32
0.32
0.29
0.215
0.145
0.07
0.03
0.005
-0.01
-0.025
-0.01
-0.015
-0.005
-0.01
-0.005
0.0
-0.005
-0.015
0.005
0.005
0.005
-0.005
-0.005
-0.015
-0.04
-0.045
-0.05
-0.045
-0.065
-0.06
-0.08
-0.055
-0.055
-0.015
0.0
-0.01
-0.005
0.0
-0.005
-0.015
-0.025
-0.025
-0.045
-0.045
-0.05
-0.045
-0.065
-0.065
-0.085
-0.065
-0.095
-0.06
-0.07
-0.04
-0.04
-0.03
-0.035
-0.045
-0.035
-0.045
-0.035
-0.065
-0.025
-0.035
-0.015
-0.02
-0.035
-0.06
-0.06
0.0
0.07
0.09
0.055
0.0
-0.015
-0.04
-0.11
-0.09
-0.095
-0.12
-0.195
-0.24
0.48
1.49
0.76
-0.355
-0.37
-0.27
-0.11
-0.09
-0.11
-0.095
-0.095
-0.11
-0.085
-0.065
-0.09
-0.06
-0.07
-0.05
-0.03
-0.03
-0.035
-0.015
0.005
0.04
0.06
0.08
0.12
0.15
0.195
0.255
0.3
0.325
0.32
0.26
0.225
0.15
0.05
0.0
-0.02
-0.02
-0.025
-0.08
-0.045
-0.03
-0.06
-0.03
-0.05
-0.035
-0.02
-0.02
-0.04
-0.035
-0.025
-0.025
-0.045
-0.025
-0.025
-0.015
-0.03
-0.055
-0.04
-0.03
-0.06
-0.05
-0.07
-0.08
-0.065
-0.055
-0.06
-0.06
-0.08
-0.055
-0.07
-0.075
-0.075
-0.06
-0.085
-0.055
-0.075
-0.075
-0.095
-0.11
-0.085
-0.1
-0.1
-0.12
-0.105
-0.115
-0.105
-0.1
-0.045
-0.11
-0.08
-0.1
-0.035
-0.03
0.005
-0.02
0.075
0.015
0.08
-0.04
0.04
-0.025
-0.04
-0.115
-0.05
-0.03
-0.19
-0.23
0.595
1.67
0.775
-0.14
-0.395
-0.315
-0.15
-0.055
-0.065
-0.04
-0.01
0.0
0.01
-0.03
-0.04
-0.04
-0.055
-0.055
-0.095
-0.105
-0.075
-0.035
0.01
0.01
0.065
0.1
0.155
0.16
0.205
0.24
0.285
0.33
0.325
0.295
0.175
0.12
0.06
0.035
-0.005
-0.03
-0.015
-0.025
-0.025
-0.03
-0.03
-0.02
-0.015
-0.005
-0.025
-0.015
-0.015
-0.005
0.0
-0.005
-0.02
-0.01
-0.035
-0.025
-0.02
-0.04
-0.035
-0.03
-0.015
-0.045
-0.055
-0.06
-0.04
-0.04
-0.045
-0.03
-0.055
-0.04
-0.06
-0.07
-0.05
-0.05
-0.06
-0.075
-0.05
-0.085
-0.06
-0.055
-0.08
-0.075
-0.08
-0.065
-0.085
-0.075
-0.075
-0.09
-0.09
-0.09
-0.105
-0.09
-0.03
0.055
0.075
0.04
-0.005
-0.035
-0.065
-0.105
-0.11
-0.12
-0.115
-0.17
-0.24
0.4
1.445
0.91
-0.15
-0.36
-0.28
-0.12
-0.085
-0.06
-0.05
-0.045
-0.065
-0.05
-0.035
-0.04
-0.035
-0.04
-0.015
-0.01
0.0
0.0
0.025
0.035
0.06
0.085
0.115
0.135
0.175
0.22
0.26
0.31
0.335
0.345
0.29
0.21
0.13
0.065
0.015
-0.025
-0.035
-0.03
-0.04
-0.035
-0.03
-0.025
-0.02
-0.015
-0.01
-0.005
0.0
0.0
0.0
-0.005
-0.01
0.0
-0.005
-0.01
0.0
-0.01
-0.02
-0.02
-0.02
-0.02
-0.025
-0.03
-0.045
-0.04
-0.03
-0.04
-0.04
-0.05
-0.05
-0.03
-0.05
-0.04
-0.045
-0.05
-0.06
-0.055
-0.04
-0.045
-0.065
-0.06
-0.045
-0.065
-0.05
-0.06
-0.06
-0.07
-0.085
-0.08
-0.065
-0.085
-0.085
-0.075
-0.085
-0.085
-0.095
-0.065
-0.105
-0.085
-0.07
-0.03
0.085
0.055
0.0
-0.045
-0.055
-0.055
-0.11
-0.145
-0.125
-0.115
-0.25
-0.055
0.875
1.36
0.415
-0.405
-0.33
-0.175
-0.105
-0.07
-0.075
-0.085
-0.04
-0.075
-0.075
-0.03
-0.04
-0.045
-0.02
-0.02
-0.035
-0.025
0.015
0.02
0.02
0.05
0.085
0.12
0.145
0.205
0.24
0.28
0.325
0.37
0.305
0.25
0.175
0.1
0.055
0.0
-0.02
-0.075
-0.025
-0.03
-0.05
-0.055
-0.035
-0.045
-0.02
-0.03
0.0
-0.015
-0.035
-0.005
-0.03
-0.04
-0.015
-0.035
-0.03
-0.055
-0.05
-0.04
-0.03
0.005
-0.065
-0.045
-0.06
-0.03
-0.035
-0.055
-0.04
-0.05
-0.05
-0.06
-0.04
-0.045
-0.06
-0.065
-0.05
-0.05
-0.07
-0.055
-0.065
-0.06
-0.065
-0.07
-0.085
-0.08
-0.055
-0.075
-0.065
-0.065
-0.08
-0.095
-0.09
-0.1
-0.075
-0.015
0.045
0.07
0.045
-0.025
-0.025
-0.085
-0.095
-0.11
-0.115
-0.115
-0.24
-0.215
0.615
1.58
0.68
-0.29
-0.345
-0.275
-0.095
-0.04
-0.05
-0.065
-0.045
-0.045
-0.025
-0.035
-0.035
-0.025
-0.015
-0.015
-0.02
-0.005
0.035
0.03
0.045
0.065
0.1
0.135
0.16
0.185
0.23
0.28
0.32
0.345
0.33
0.27
0.2
0.12
0.05
0.01
0.0
-0.015
-0.025
-0.04
-0.03
-0.005
-0.02
-0.015
-0.005
-0.005
-0.005
0.0
0.0
0.0
0.01
0.0
0.0
-0.01
-0.01
0.0
0.0
-0.005
-0.015
0.0
-0.01
-0.015
-0.02
-0.02
-0.025
-0.015
-0.025
-0.03
-0.015
-0.02
-0.025
-0.02
-0.03
-0.035
-0.035
-0.035
-0.035
-0.04
-0.045
-0.04
-0.04
-0.05
-0.05
-0.055
-0.05
-0.05
-0.055
-0.04
-0.045
-0.055
-0.05
-0.065
-0.075
-0.085
-0.075
-0.075
-0.075
-0.09
-0.06
-0.085
-0.07
-0.015
0.045
0.06
0.03
-0.015
-0.05
-0.05
-0.115
-0.125
-0.11
-0.105
-0.185
-0.24
0.34
1.36
0.9
-0.19
-0.355
-0.245
-0.11
-0.09
-0.07
-0.07
-0.095
-0.075
-0.06
-0.065
-0.055
-0.06
-0.065
-0.045
-0.04
-0.03
-0.025
-0.005
0.02
0.05
0.065
0.095
0.105
0.15
0.2
0.26
0.315
0.325
0.335
0.315
0.225
0.16
0.09
0.015
-0.01
-0.04
-0.05
-0.05
-0.06
-0.05
-0.03
-0.03
-0.005
-0.015
-0.02
-0.01
-0.005
0.0
-0.035
-0.015
-0.005
0.005
0.005
-0.01
-0.03
-0.005
-0.005
-0.03
-0.015
-0.015
-0.035
-0.045
-0.015
-0.035
-0.035
-0.035
-0.025
-0.05
-0.035
-0.045
-0.05
-0.045
-0.04
-0.03
-0.05
-0.045
-0.07
-0.06
-0.05
-0.08
-0.065
-0.05
-0.07
-0.07
-0.05
-0.045
-0.055
-0.045
-0.05
-0.07
-0.06
-0.065
-0.07
-0.06
-0.075
-0.07
-0.055
-0.065
-0.095
-0.07
-0.04
0.045
0.095
0.06
0.01
-0.005
-0.05
-0.065
-0.11
-0.115
-0.11
-0.16
-0.275
0.295
1.39
1.05
0.035
-0.37
-0.3
-0.165
-0.065
-0.065
-0.05
-0.045
-0.05
-0.04
-0.04
-0.04
-0.04
-0.025
-0.025
-0.015
0.0
0.01
0.01
0.025
0.06
0.075
0.095
0.14
0.165
0.21
0.245
0.285
0.32
0.33
0.3
0.225
0.155
0.09
0.02
0.0
-0.025
-0.035
-0.04
-0.04
-0.025
-0.025
-0.02
-0.01
-0.015
-0.02
0.0
-0.01
-0.005
-0.01
-0.005
-0.01
-0.01
-0.015
-0.01
-0.02
-0.02
-0.02
-0.03
-0.015
-0.035
-0.025
-0.03
-0.04
-0.03
-0.03
-0.035
-0.04
-0.04
-0.035
-0.05
-0.035
-0.045
-0.055
-0.06
-0.05
-0.045
-0.045
-0.05
-0.05
-0.04
-0.05
-0.055
-0.05
-0.06
-0.06
-0.055
-0.045
-0.075
-0.08
-0.07
-0.08
-0.085
-0.07
-0.085
-0.085
-0.045
0.0
0.06
0.045
0.015
-0.035
-0.04
-0.06
-0.12
-0.11
-0.125
-0.13
-0.23
-0.135
0.695
1.425
0.56
-0.43
-0.325
-0.17
-0.08
-0.07
-0.075
-0.095
-0.075
-0.055
-0.045
-0.06
-0.065
-0.035
-0.055
-0.05
-0.02
-0.02
-0.005
0.02
0.025
0.045
0.095
0.115
0.135
0.18
0.23
0.285
0.31
0.35
0.35
0.27
0.185
0.115
0.05
0.0
-0.035
-0.025
-0.045
-0.065
-0.045
-0.03
-0.035
-0.045
-0.02
-0.035
-0.035
-0.015
-0.03
-0.03
-0.025
-0.035
-0.03
-0.04
-0.025
-0.03
-0.03
-0.025
-0.03
-0.03
-0.02
-0.015
-0.025
-0.03
-0.02
-0.02
-0.025
-0.015
-0.03
-0.035
-0.025
-0.025
-0.03
-0.03
-0.035
-0.035
-0.03
-0.035
-0.045
-0.045
-0.02
-0.05
-0.055
-0.035
-0.04
-0.07
-0.055
-0.055
-0.06
-0.055
-0.06
-0.06
-0.065
-0.065
-0.06
-0.075
-0.08
-0.07
-0.065
-0.09
-0.075
-0.055
0.025
0.095
0.06
0.02
-0.01
-0.025
-0.07
-0.105
-0.1
-0.115
-0.115
-0.245
-0.025
0.89
1.29
0.41
-0.42
-0.325
-0.175
-0.07
-0.065
-0.06
-0.065
-0.06
-0.06
-0.06
-0.045
-0.05
-0.04
-0.04
-0.03
-0.015
-0.005
0.005
0.04
0.05
0.075
0.09
0.125
0.155
0.205
0.245
0.285
0.31
0.335
0.315
0.265
0.18
0.1
0.04
0.0
-0.02
-0.015
-0.025
-0.04
-0.035
-0.035
-0.025
-0.025
-0.01
0.0
-0.01
-0.015
0.0
-0.01
-0.01
-0.025
-0.005
-0.02
-0.03
-0.025
-0.025
-0.025
-0.03
-0.035
-0.025
-0.03
-0.04
-0.035
-0.02
-0.045
-0.05
-0.03
-0.04
-0.05
-0.055
-0.05
-0.065
-0.04
-0.055
-0.06
-0.06
-0.04
-0.06
-0.055
-0.055
-0.07
-0.08
-0.065
-0.065
-0.055
-0.08
-0.08
-0.06
-0.105
-0.085
-0.075
-0.08
-0.1
-0.09
-0.085
-0.07
-0.125
-0.105
-0.02
0.06
0.045
0.045
-0.04
-0.06
-0.075
-0.105
-0.125
-0.125
-0.135
-0.255
-0.31
0.49
1.555
0.795
-0.235
-0.365
-0.335
-0.155
-0.055
-0.1
-0.105
-0.095
-0.07
-0.07
-0.03
-0.07
-0.065
-0.05
-0.055
-0.01
-0.005
-0.025
-0.01
0.02
0.045
0.06
0.08
0.135
0.155
0.215
0.25
0.265
0.31
0.315
0.3
0.2
0.11
0.095
0.0
0.0
-0.005
-0.06
-0.075
-0.055
-0.05
0.0
-0.01
-0.03
-0.005
-0.03
-0.015
-0.015
0.0
-0.005
-0.02
-0.02
-0.01
-0.02
-0.02
-0.04
-0.03
-0.025
-0.055
-0.03
-0.03
-0.04
-0.04
-0.05
-0.06
-0.065
-0.06
-0.035
-0.05
-0.035
-0.075
-0.055
-0.055
-0.055
-0.065
-0.07
-0.055
-0.095
-0.075
-0.08
-0.065
-0.085
-0.12
-0.075
-0.095
-0.08
-0.07
-0.11
-0.125
-0.075
-0.035
0.05
0.02
0.03
-0.055
-0.025
-0.055
-0.13
-0.125
-0.13
-0.135
-0.25
-0.31
0.48
1.59
0.825
-0.125
-0.37
-0.33
-0.135
-0.08
-0.09
-0.06
-0.055
-0.055
-0.05
-0.055
-0.03
-0.025
-0.025
-0.025
-0.01
-0.015
0.015
-0.005
0.05
0.055
0.07
0.1
0.135
0.175
0.235
0.25
0.28
0.325
0.315
0.275
0.205
0.13
0.045
0.005
-0.03
-0.04
-0.045
-0.04
-0.05
-0.025
-0.035
-0.055
-0.025
-0.015
-0.025
-0.005
-0.005
-0.015
-0.015
-0.01
-0.005
-0.03
-0.025
-0.025
-0.03
-0.04
-0.02
-0.035
-0.04
-0.04
-0.035
-0.04
-0.04
-0.035
-0.04
-0.045
-0.045
-0.045
-0.055
-0.045
-0.055
-0.045
-0.065
-0.07
-0.065
-0.055
-0.05
-0.055
-0.06
-0.065
-0.07
-0.075
-0.075
-0.07
-0.075
-0.075
-0.085
-0.09
-0.08
-0.08
-0.095
-0.115
-0.09
-0.05
0.0
0.055
0.04
0.0
-0.03
-0.04
-0.08
-0.11
-0.125
-0.125
-0.12
-0.235
-0.1
0.785
1.47
0.475
-0.435
-0.34
-0.2
-0.075
-0.07
-0.075
-0.08
-0.07
-0.075
-0.06
-0.06
-0.065
-0.05
-0.055
-0.04
-0.025
-0.01
-0.005
0.015
0.03
0.055
0.085
0.12
0.16
0.21
0.245
0.3
0.325
0.36
0.335
0.285
0.21
0.115
0.05
0.01
-0.01
-0.02
-0.03
-0.035
-0.025
-0.035
-0.01
-0.02
-0.015
0.0
0.0
-0.005
-0.005
0.0
0.005
0.005
-0.005
0.0
-0.005
-0.01
-0.005
-0.02
-0.015
-0.02
-0.02
-0.02
-0.03
-0.02
-0.03
-0.02
-0.035
-0.035
-0.025
-0.04
-0.035
-0.035
-0.04
-0.03
-0.025
-0.03
-0.03
-0.03
-0.035
-0.045
-0.035
-0.04
-0.04
-0.045
-0.04
-0.045
-0.04
-0.04
-0.055
-0.06
-0.055
-0.06
-0.065
-0.055
-0.065
-0.075
-0.075
-0.065
-0.07
-0.075
-0.07
-0.06
-0.085
-0.075
-0.085
-0.08
-0.055
0.02
0.07
0.03
-0.015
-0.035
-0.045
-0.09
-0.13
-0.15
-0.15
-0.17
-0.24
0.09
1.035
1.14
0.145
-0.43
-0.32
-0.145
-0.105
-0.09
-0.075
-0.085
-0.09
-0.085
-0.085
-0.075
-0.07
-0.085
-0.05
-0.05
-0.03
-0.025
-0.015
0.025
0.015
0.055
0.085
0.13
0.15
0.205
0.265
0.28
0.335
0.37
0.335
0.265
0.22
0.135
0.065
0.01
-0.015
-0.005
-0.025
-0.015
-0.025
0.005
0.005
0.0
0.025
0.0
-0.015
-0.02
-0.005
0.0
0.0
0.025
-0.025
-0.045
-0.03
0.0
-0.02
-0.03
0.0
-0.055
-0.04
-0.05
-0.04
-0.045
-0.095
-0.045
-0.02
-0.04
-0.005
-0.025
-0.01
-0.035
-0.05
-0.04
0.01
-0.07
-0.07
-0.015
0.015
-0.06
-0.08
-0.065
0.025
-0.115
-0.03
-0.135
-0.01
-0.09
-0.035
-0.105
-0.035
-0.14
0.015
-0.065
-0.06
-0.14
-0.105
-0.02
0.0
-0.04
0.0
-0.015
-0.085
-0.085
-0.195
-0.12
-0.155
-0.175
-0.2
-0.355
0.21
1.445
0.95
0.03
-0.52
-0.43
-0.24
-0.14
-0.12
-0.065
-0.12
-0.13
-0.1
-0.065
-0.145
-0.045
-0.15
-0.105
0.03
0.03
-0.03
-0.04
0.005
-0.005
0.05
0.085
0.095
0.105
0.175
0.19
0.225
0.305
0.27
0.28
0.19
0.14
0.055
-0.015
0.04
-0.05
0.0
-0.1
0.0
0.0
-0.06
-0.085
-0.05
0.0
-0.005
-0.045
-0.02
-0.035
-0.065
-0.035
-0.085
-0.04
-0.055
-0.075
-0.075
-0.065
0.005
-0.075
-0.07
0.01
-0.1
-0.065
-0.09
-0.12
-0.075
-0.04
-0.095
-0.075
-0.105
-0.12
-0.075
-0.055
-0.12
-0.09
-0.08
-0.085
-0.105
-0.14
0.0
0.105
0.04
0.025
-0.04
-0.045
-0.08
-0.135
-0.145
-0.075
-0.095
-0.195
-0.29
0.395
1.52
0.935
-0.185
-0.385
-0.215
-0.06
-0.08
-0.065
-0.085
-0.125
-0.085
-0.055
-0.04
-0.075
-0.095
-0.075
-0.08
-0.065
-0.04
-0.045
-0.035
-0.02
0.04
0.09
0.11
0.195
0.215
0.225
0.31
0.295
0.23
0.335
0.315
0.165
0.015
0.0
0.025
-0.035
-0.005
-0.055
-0.06
-0.055
-0.055
-0.04
-0.06
-0.085
-0.045
0.0
-0.085
-0.045
0.035
0.0
-0.025
-0.025
-0.025
0.0
-0.075
-0.145
-0.03
-0.09
-0.085
-0.06
-0.11
-0.115
-0.08
-0.1
-0.09
-0.14
-0.045
-0.175
-0.11
-0.105
-0.095
-0.12
-0.185
-0.135
-0.09
-0.005
-0.01
0.0
-0.07
-0.02
-0.055
-0.01
-0.075
-0.175
-0.21
-0.17
-0.335
-0.275
0.62
1.5
0.655
-0.405
-0.365
-0.225
-0.065
-0.045
-0.07
-0.095
-0.075
-0.1
-0.05
-0.055
-0.08
-0.005
-0.085
0.015
0.0
-0.04
0.03
0.02
0.015
0.095
0.01
0.13
0.13
0.18
0.28
0.265
0.32
0.29
0.335
0.245
0.17
0.04
0.005
-0.075
-0.04
-0.095
-0.065
-0.055
-0.035
-0.13
-0.025
-0.065
-0.06
-0.035
-0.035
-0.025
-0.1
-0.03
-0.075
-0.1
-0.085
-0.075
-0.085
-0.07
-0.055
-0.11
-0.1
-0.17
-0.17
-0.14
-0.105
-0.14
-0.07
-0.13
-0.11
-0.125
-0.12
-0.105
-0.135
-0.075
-0.085
-0.065
-0.065
0.01
0.015
0.04
-0.04
0.015
0.005
-0.1
-0.135
-0.135
-0.18
-0.15
-0.355
-0.17
0.84
1.665
0.625
-0.395
-0.355
-0.295
-0.09
-0.085
-0.095
-0.075
-0.05
-0.015
0.025
-0.085
-0.06
-0.095
-0.01
0.03
-0.04
-0.005
0.065
0.08
-0.025
0.04
0.12
0.045
0.16
0.18
0.165
0.25
0.3
0.31
0.205
0.125
0.095
0.065
-0.065
-0.045
-0.02
-0.095
-0.125
-0.05
-0.135
-0.14
-0.105
-0.04
0.0
-0.035
-0.05
-0.03
-0.015
-0.05
0.01
-0.055
-0.02
-0.01
-0.02
0.02
-0.035
-0.035
0.0
-0.025
-0.1
-0.045
-0.08
-0.13
-0.12
-0.08
-0.08
-0.07
-0.07
-0.05
-0.075
-0.105
-0.085
-0.035
0.06
0.07
0.0
-0.045
-0.06
-0.075
-0.075
-0.13
-0.105
-0.065
-0.165
-0.215
0.43
1.485
0.9
-0.215
-0.405
-0.34
-0.16
-0.09
-0.065
-0.115
-0.025
-0.015
-0.065
-0.04
-0.03
-0.025
-0.04
0.03
0.055
-0.01
-0.025
0.0
0.08
0.105
0.105
0.125
0.13
0.195
0.295
0.275
0.325
0.375
0.31
0.315
0.215
0.11
0.065
0.01
0.035
-0.035
0.0
0.0
-0.1
-0.035
-0.025
0.015
0.005
0.01
0.04
-0.03
-0.06
-0.085
-0.07
0.015
-0.04
-0.03
-0.035
-0.055
-0.115
-0.1
-0.11
-0.095
-0.01
-0.02
-0.06
-0.075
-0.04
-0.075
-0.035
-0.05
-0.085
-0.135
-0.125
-0.16
-0.035
0.065
0.075
0.155
0.11
-0.05
0.0
-0.06
-0.145
-0.165
-0.155
-0.135
-0.17
-0.19
-0.045
0.755
1.38
0.41
-0.61
-0.44
-0.17
-0.05
-0.025
-0.115
0.005
-0.04
-0.14
-0.19
-0.065
0.0
-0.055
-0.07
0.01
0.0
-0.065
0.01
0.005
0.03
0.065
0.075
0.14
0.22
0.18
0.27
0.32
0.305
0.275
0.28
0.16
0.115
0.035
0.025
0.025
-0.02
0.0
-0.04
0.0
-0.025
-0.075
-0.01
-0.02
-0.065
-0.135
-0.125
-0.11
-0.025
-0.07
-0.1
-0.095
-0.045
-0.1
-0.05
-0.03
-0.12
-0.16
-0.095
-0.095
-0.115
-0.04
-0.04
-0.015
-0.135
-0.085
-0.095
-0.045
-0.1
-0.055
-0.01
-0.025
0.08
0.12
0.02
-0.005
-0.045
-0.1
-0.04
-0.11
-0.03
-0.1
-0.145
-0.18
0.16
1.11
1.055
0.155
-0.445
-0.42
-0.095
-0.065
-0.125
-0.04
-0.085
-0.005
0.095
-0.08
-0.06
-0.19
-0.145
-0.005
-0.01
-0.01
-0.025
-0.025
0.02
0.045
-0.06
0.055
0.155
0.15
0.15
0.16
0.18
0.29
0.295
0.36
0.105
0.07
0.12
-0.045
-0.115
-0.07
-0.04
0.0
-0.05
-0.1
-0.07
-0.075
-0.07
-0.075
-0.03
-0.045
-0.06
-0.015
0.215
-0.05
-0.03
-0.115
-0.085
0.0
0.09
-0.06
-0.305
-0.26
-0.07
-0.1
-0.165
-0.215
-0.1
-0.135
-0.03
0.445
-0.1
-0.06
0.045
-0.025
0.065
-0.115
-0.085
-0.11
-0.19
-0.165
-0.07
0.16
-0.41
-0.49
0.19
1.255
0.91
-0.03
-0.305
-0.43
-0.26
-0.105
-0.06
-0.125
-0.06
-0.015
0.05
0.24
0.265
0.015
0.0
0.1
-0.005
0.055
0.125
0.07
0.175
0.13
0.09
0.105
0.195
0.19
0.235
0.295
0.345
0.35
0.265
0.34
0.275
0.07
-0.01
-0.005
-0.015
-0.045
-0.08
0.015
0.03
0.01
-0.065
-0.115
0.0
-0.005
-0.045
0.0
-0.025
-0.095
-0.045
-0.045
-0.055
-0.085
-0.15
-0.045
-0.13
-0.095
-0.165
-0.11
-0.14
-0.135
-0.195
-0.285
-0.185
-0.175
-0.18
-0.025
-0.215
-0.26
-0.145
-0.095
0.05
0.0
-0.005
0.005
-0.01
-0.04
-0.04
-0.015
0.055
-0.17
-0.015
-0.205
-0.19
0.415
1.45
0.795
-0.245
-0.43
-0.305
-0.05
0.02
0.105
-0.1
-0.17
-0.08
-0.125
-0.08
-0.08
-0.02
0.2
-0.02
0.0
-0.01
-0.065
-0.085
0.06
0.065
0.06
0.095
0.3
0.19
0.255
0.125
0.2
0.195
0.215
0.215
0.18
0.02
-0.08
0.505
0.0
-0.265
-0.165
-0.145
-0.12
-0.025
-0.06
-0.05
-0.04
-0.165
0.015
-0.15
0.05
-0.035
-0.07
0.16
-0.255
-0.09
-0.085
-0.115
-0.115
-0.15
0.04
-0.165
-0.115
-0.27
0.11
0.025
-0.205
0.06
-0.045
0.01
-0.195
-0.085
-0.045
0.0
0.31
-0.31
-0.315
-0.275
-0.265
-0.34
0.545
1.515
0.54
-0.14
-0.425
-0.32
-0.205
-0.105
-0.05
-0.04
-0.085
-0.195
-0.035
-0.125
-0.06
-0.175
-0.01
-0.1
0.085
-0.055
-0.03
0.03
0.165
0.29
-0.08
0.04
0.15
0.18
0.245
0.22
0.335
0.255
0.305
0.24
0.21
-0.09
-0.005
-0.12
0.0
-0.08
0.005
-0.055
-0.155
-0.14
-0.035
-0.25
-0.14
0.03
-0.16
0.04
-0.215
0.08
-0.11
-0.06
0.04
0.01
-0.18
0.085
-0.11
-0.195
-0.19
-0.08
-0.105
0.21
0.55
0.05
0.19
-0.02
-0.16
-0.045
-0.195
-0.265
-0.11
0.1
-0.015
-0.385
0.14
-0.315
0.405
1.64
0.87
-0.25
-0.245
-0.22
-0.39
0.005
-0.015
-0.04
-0.165
-0.25
-0.125
-0.285
-0.22
-0.035
0.155
0.015
-0.17
-0.265
-0.095
0.08
0.06
0.0
0.0
0.105
0.045
0.165
0.16
0.22
0.17
0.215
0.085
0.12
0.09
0.105
-0.01
0.015
0.01
0.02
-0.04
-0.015
-0.055
0.015
0.03
0.1
0.11
0.13
-0.005
-0.075
-0.15
-0.085
-0.175
-0.155
-0.1
-0.165
-0.15
-0.135
-0.045
-0.035
0.01
0.035
0.1
0.16
0.235
0.075
0.07
0.055
0.01
-0.06
-0.065
-0.13
-0.09
-0.145
-0.31
0.025
0.975
1.225
0.255
-0.45
-0.37
-0.275
-0.095
-0.1
-0.04
0.04
-0.09
-0.18
-0.1
-0.17
-0.12
-0.055
-0.055
-0.03
-0.075
-0.01
-0.065
-0.02
0.03
0.015
0.12
0.195
0.15
0.235
0.225
0.36
0.295
0.28
0.185
0.13
0.025
0.03
-0.07
-0.01
-0.005
-0.055
-0.06
-0.08
-0.065
0.015
-0.08
-0.01
-0.06
-0.03
-0.04
-0.1
-0.15
-0.095
-0.12
-0.1
-0.14
-0.125
-0.18
-0.12
-0.12
-0.105
0.0
-0.115
-0.05
-0.05
0.045
0.04
0.155
0.085
0.025
-0.03
-0.035
-0.12
-0.075
-0.155
-0.105
-0.07
-0.16
-0.28
0.345
1.485
0.945
-0.13
-0.35
-0.275
-0.145
-0.085
-0.07
-0.065
-0.09
-0.08
-0.045
-0.045
-0.05
-0.035
-0.035
-0.02
-0.01
-0.025
0.005
0.01
0.05
0.08
0.1
0.1
0.145
0.195
0.205
0.245
0.315
0.285
0.23
0.13
0.085
0.03
-0.035
-0.06
-0.08
-0.085
-0.08
-0.075
-0.06
-0.04
-0.09
-0.075
-0.095
-0.09
-0.055
-0.08
-0.055
-0.045
-0.115
-0.095
-0.105
-0.095
-0.105
-0.1
-0.065
-0.1
-0.085
-0.15
-0.095
-0.07
-0.04
0.03
0.115
0.15
0.045
-0.08
-0.105
-0.095
-0.165
-0.15
-0.135
-0.18
-0.245
-0.38
0.32
1.48
0.885
-0.07
-0.45
-0.355
-0.14
-0.08
-0.06
-0.085
-0.145
-0.115
-0.045
-0.04
-0.055
-0.055
-0.03
-0.035
-0.035
0.0
0.005
0.01
0.01
0.0
0.035
0.13
0.135
0.13
0.185
0.2
0.295
0.23
0.185
0.19
0.105
0.015
-0.04
-0.04
-0.05
-0.075
-0.055
-0.05
-0.075
-0.05
-0.085
-0.025
-0.005
-0.085
-0.03
-0.065
-0.095
-0.055
-0.07
-0.08
-0.08
-0.07
-0.05
-0.105
-0.115
-0.095
-0.08
-0.125
-0.075
-0.07
-0.095
-0.115
-0.14
-0.065
-0.035
0.04
0.05
0.155
0.1
0.065
0.01
-0.045
-0.045
-0.125
-0.15
-0.14
-0.11
-0.27
-0.215
0.685
1.585
0.635
-0.31
-0.335
-0.285
-0.125
-0.095
-0.07
-0.05
-0.055
-0.07
-0.08
-0.05
-0.04
-0.05
-0.03
-0.01
-0.03
-0.01
0.035
0.0
0.02
0.06
0.08
0.07
0.13
0.185
0.2
0.23
0.255
0.26
0.225
0.15
0.085
0.035
-0.01
-0.025
0.0
-0.05
-0.065
-0.04
-0.025
-0.02
-0.055
-0.02
0.005
-0.04
-0.025
-0.02
-0.065
-0.03
-0.03
-0.025
-0.06
-0.065
-0.05
-0.06
-0.07
-0.06
-0.065
-0.065
-0.075
-0.085
-0.08
-0.09
-0.095
-0.08
-0.06
-0.09
-0.025
0.0
0.03
0.12
0.17
0.09
0.025
0.015
-0.035
-0.12
-0.13
-0.115
-0.135
-0.165
-0.265
0.175
1.19
1.155
0.095
-0.4
-0.3
-0.165
-0.075
-0.075
-0.08
-0.07
-0.075
-0.075
-0.07
-0.07
-0.07
-0.06
-0.045
-0.04
-0.025
0.0
0.01
0.035
0.06
0.07
0.105
0.15
0.18
0.19
0.24
0.275
0.295
0.28
0.23
0.15
0.095
0.04
0.0
0.0
-0.01
-0.02
-0.035
-0.015
-0.005
0.0
0.005
0.0
0.005
0.005
0.0
0.0
0.0
0.0
0.0
-0.005
0.0
-0.005
-0.01
-0.02
-0.03
-0.02
-0.02
-0.025
-0.02
-0.025
-0.03
-0.025
-0.03
-0.03
-0.025
-0.025
-0.03
-0.03
-0.035
-0.03
-0.03
-0.045
-0.045
-0.04
-0.04
-0.04
-0.04
-0.05
-0.045
-0.045
-0.05
-0.055
-0.055
-0.055
-0.06
-0.06
-0.06
-0.07
-0.065
-0.075
-0.075
-0.07
-0.075
-0.075
-0.03
0.03
0.035
0.13
0.15
0.02
0.01
-0.015
-0.08
-0.115
-0.115
-0.13
-0.125
-0.23
-0.145
0.725
1.425
0.53
-0.465
-0.33
-0.15
-0.09
-0.09
-0.08
-0.08
-0.08
-0.085
-0.075
-0.065
-0.075
-0.065
-0.055
-0.045
-0.045
-0.025
-0.01
0.02
0.035
0.04
0.065
0.085
0.12
0.165
0.195
0.235
0.265
0.295
0.285
0.235
0.16
0.105
0.055
0.015
0.005
-0.015
-0.04
-0.025
-0.02
-0.015
-0.03
-0.005
0.0
-0.015
0.0
-0.01
-0.035
-0.035
-0.03
-0.04
-0.04
-0.035
-0.025
-0.025
-0.04
-0.045
-0.045
-0.02
-0.05
-0.025
-0.045
-0.045
-0.02
-0.045
-0.045
-0.05
-0.035
-0.05
-0.07
-0.08
-0.055
-0.03
-0.055
-0.06
-0.06
-0.075
-0.065
-0.055
-0.065
-0.07
-0.055
-0.065
-0.07
-0.105
-0.085
-0.06
-0.085
-0.105
-0.095
-0.065
-0.06
0.0
0.01
0.13
0.155
0.06
0.02
-0.005
-0.095
-0.13
-0.12
-0.12
-0.16
-0.285
-0.29
0.55
1.575
0.83
-0.27
-0.405
-0.32
-0.11
-0.105
-0.1
-0.025
-0.055
-0.08
-0.065
-0.045
-0.035
-0.045
-0.02
-0.025
-0.025
-0.02
-0.015
0.02
0.075
0.07
0.045
0.065
0.13
0.16
0.195
0.22
0.275
0.255
0.275
0.235
0.2
0.095
0.03
0.04
-0.05
0.0
-0.025
-0.035
-0.01
0.005
-0.045
0.02
0.0
0.0
-0.03
-0.005
-0.015
-0.055
0.0
0.0
-0.04
-0.02
-0.025
-0.04
-0.03
-0.05
-0.01
-0.085
-0.02
-0.055
-0.04
-0.055
-0.05
0.0
-0.08
-0.065
-0.075
-0.065
-0.06
-0.065
-0.05
-0.05
-0.06
-0.08
-0.06
-0.06
-0.08
-0.045
-0.085
-0.05
-0.1
-0.08
-0.07
-0.095
-0.105
-0.065
-0.01
0.01
0.065
0.075
0.005
-0.035
-0.05
-0.125
-0.1
-0.115
-0.12
-0.16
-0.3
0.19
1.275
1.145
0.14
-0.405
-0.325
-0.165
-0.08
-0.065
-0.065
-0.045
-0.05
-0.04
-0.06
-0.04
-0.04
-0.01
-0.03
-0.02
0.02
0.0
0.025
0.035
0.04
0.085
0.105
0.1
0.155
0.19
0.23
0.275
0.285
0.285
0.245
0.19
0.105
0.065
0.01
0.02
-0.035
-0.04
-0.035
-0.025
-0.02
-0.035
0.005
0.025
0.0
-0.015
-0.005
0.01
-0.005
-0.015
0.0
-0.005
0.0
-0.015
-0.005
-0.03
-0.015
-0.025
-0.035
-0.035
-0.035
-0.02
-0.03
-0.045
-0.035
-0.03
-0.045
-0.04
-0.04
-0.04
-0.045
-0.05
-0.04
-0.04
-0.045
-0.055
-0.065
-0.055
-0.05
-0.06
-0.06
-0.06
-0.05
-0.06
-0.075
-0.08
-0.07
-0.08
-0.07
-0.02
0.04
0.085
0.08
0.03
0.0
-0.02
-0.06
-0.1
-0.1
-0.1
-0.1
-0.22
-0.17
0.67
1.56
0.67
-0.415
-0.335
-0.205
-0.065
-0.06
-0.06
-0.055
-0.065
-0.05
-0.05
-0.05
-0.045
-0.04
-0.035
-0.015
-0.02
0.0
0.0
0.025
0.05
0.075
0.1
0.13
0.165
0.205
0.245
0.285
0.315
0.335
0.305
0.24
0.16
0.085
0.03
-0.005
-0.02
-0.03
-0.04
-0.035
-0.035
-0.025
-0.025
-0.02
-0.02
-0.02
-0.015
-0.015
-0.015
-0.02
-0.025
-0.015
-0.02
-0.02
-0.03
-0.025
-0.035
-0.03
-0.035
-0.035
-0.03
-0.035
-0.04
-0.04
-0.035
-0.04
-0.04
-0.04
-0.045
-0.04
-0.055
-0.055
-0.055
-0.055
-0.055
-0.055
-0.06
-0.06
-0.06
-0.055
-0.06
-0.06
-0.065
-0.07
-0.07
-0.08
-0.08
-0.07
-0.08
-0.09
-0.085
-0.085
-0.11
-0.085
-0.045
0.02
0.06
0.02
-0.015
-0.03
-0.05
-0.1
-0.125
-0.115
-0.13
-0.14
-0.245
0.06
1.01
1.175
0.19
-0.425
-0.305
-0.135
-0.085
-0.075
-0.09
-0.085
-0.095
-0.07
-0.04
-0.08
-0.07
-0.045
-0.065
-0.05
-0.03
-0.03
0.005
0.04
0.04
0.05
0.075
0.11
0.16
0.22
0.25
0.29
0.35
0.33
0.28
0.245
0.15
0.065
0.025
-0.005
-0.025
-0.04
-0.05
-0.03
-0.045
-0.025
-0.04
-0.02
0.005
-0.035
-0.035
-0.05
-0.025
-0.005
-0.025
-0.04
-0.03
-0.015
-0.04
-0.05
-0.06
-0.04
-0.06
-0.025
-0.045
-0.05
-0.055
-0.045
-0.045
-0.065
-0.055
-0.065
-0.06
-0.075
-0.075
-0.07
-0.065
-0.065
-0.085
-0.075
-0.085
-0.06
-0.09
-0.085
-0.105
-0.085
-0.08
-0.075
-0.1
-0.105
-0.11
-0.14
-0.07
-0.07
0.035
0.035
0.035
-0.04
-0.05
-0.06
-0.115
-0.145
-0.115
-0.155
-0.27
-0.3
0.49
1.58
0.765
-0.16
-0.395
-0.34
-0.13
-0.09
-0.065
-0.06
-0.07
-0.095
-0.02
-0.07
-0.02
-0.06
-0.03
-0.025
-0.045
-0.015
0.005
0.045
-0.01
0.05
0.095
0.09
0.13
0.185
0.17
0.245
0.275
0.295
0.295
0.255
0.2
0.075
0.045
-0.01
-0.01
-0.05
-0.03
-0.04
-0.035
0.0
-0.03
-0.06
-0.02
-0.01
-0.03
0.0
-0.01
-0.03
-0.065
-0.04
-0.03
-0.025
-0.045
-0.07
-0.045
-0.01
-0.06
-0.085
-0.05
-0.06
-0.035
-0.065
-0.09
-0.065
-0.07
-0.06
-0.085
-0.07
-0.095
-0.095
-0.075
-0.09
-0.085
-0.075
-0.11
-0.085
-0.14
-0.1
-0.015
0.03
0.055
0.045
-0.015
-0.035
-0.075
-0.125
-0.13
-0.115
-0.115
-0.23
-0.29
0.535
1.605
0.735
-0.19
-0.385
-0.33
-0.125
-0.095
-0.055
-0.055
-0.05
-0.06
-0.045
-0.05
-0.055
-0.05
-0.015
-0.025
-0.01
0.0
0.025
0.035
0.045
0.065
0.1
0.095
0.155
0.2
0.23
0.28
0.305
0.32
0.275
0.215
0.13
0.065
0.015
-0.03
-0.035
-0.055
-0.035
-0.05
-0.055
-0.05
-0.025
-0.02
-0.025
-0.025
-0.015
-0.015
-0.005
0.0
-0.04
-0.03
-0.03
-0.02
-0.02
-0.025
-0.025
-0.02
-0.04
-0.04
-0.045
-0.04
-0.045
-0.04
-0.04
-0.045
-0.035
-0.03
-0.05
-0.05
-0.04
-0.045
-0.035
-0.045
-0.045
-0.045
-0.06
-0.05
-0.035
-0.06
-0.055
-0.05
-0.045
-0.05
-0.055
-0.045
-0.055
-0.07
-0.06
-0.085
-0.06
-0.04
0.015
0.075
0.055
0.015
-0.015
-0.03
-0.08
-0.11
-0.1
-0.11
-0.12
-0.23
-0.06
0.84
1.405
0.43
-0.45
-0.33
-0.175
-0.065
-0.075
-0.075
-0.065
-0.065
-0.07
-0.065
-0.055
-0.055
-0.05
-0.055
-0.03
-0.025
0.0
0.0
0.025
0.05
0.075
0.1
0.13
0.175
0.205
0.25
0.305
0.33
0.34
0.305
0.23
0.14
0.07
0.015
-0.015
-0.035
-0.04
-0.04
-0.04
-0.03
-0.025
-0.015
-0.015
-0.015
-0.01
-0.005
-0.005
-0.005
0.0
-0.005
-0.01
-0.01
-0.01
-0.02
-0.015
-0.02
-0.015
-0.02
-0.02
-0.035
-0.035
-0.035
-0.035
-0.04
-0.03
-0.04
-0.045
-0.04
-0.05
-0.055
-0.04
-0.04
-0.05
-0.04
-0.045
-0.065
-0.045
-0.065
-0.055
-0.05
-0.045
-0.07
-0.06
-0.06
-0.085
-0.07
-0.06
-0.09
-0.095
-0.1
-0.085
-0.09
-0.07
-0.095
-0.11
-0.13
-0.105
-0.07
0.035
0.05
0.015
-0.02
-0.05
-0.07
-0.12
-0.12
-0.13
-0.125
-0.25
-0.285
0.375
1.465
0.915
-0.175
-0.425
-0.335
-0.12
-0.1
-0.085
-0.065
-0.08
-0.07
-0.065
-0.095
-0.05
-0.065
-0.025
-0.055
-0.045
-0.025
-0.005
0.0
-0.005
0.05
0.045
0.13
0.125
0.145
0.205
0.26
0.315
0.285
0.285
0.265
0.155
0.11
0.03
0.0
-0.025
-0.06
-0.025
-0.08
-0.06
-0.01
-0.055
-0.03
-0.03
-0.07
-0.01
-0.025
-0.03
-0.03
-0.03
-0.035
-0.025
-0.025
-0.025
-0.04
-0.03
-0.055
-0.02
-0.065
-0.045
-0.05
-0.08
-0.035
-0.03
-0.08
-0.08
-0.065
-0.065
-0.025
-0.05
-0.075
-0.09
-0.06
-0.035
-0.075
-0.095
-0.065
-0.08
-0.085
-0.05
-0.125
-0.08
-0.08
-0.11
-0.07
-0.12
-0.09
-0.095
-0.025
0.06
0.055
0.0
-0.05
-0.045
-0.15
-0.105
-0.115
-0.15
-0.13
-0.295
-0.055
0.95
1.38
0.37
-0.36
-0.34
-0.28
-0.055
-0.105
-0.07
-0.04
-0.095
-0.055
-0.08
-0.03
-0.065
-0.05
-0.015
-0.02
-0.015
-0.015
0.025
0.0
0.075
0.06
0.09
0.165
0.12
0.235
0.23
0.27
0.33
0.295
0.27
0.205
0.12
0.07
0.035
-0.02
-0.045
-0.035
-0.055
-0.04
0.0
-0.02
-0.045
-0.01
-0.035
-0.01
0.015
0.0
0.005
0.0
-0.02
-0.015
-0.02
-0.025
-0.01
-0.02
-0.02
-0.035
-0.05
-0.03
-0.045
-0.035
-0.05
-0.045
-0.025
-0.075
-0.05
-0.05
-0.04
-0.07
-0.06
-0.075
-0.075
-0.065
-0.075
-0.08
-0.065
-0.06
-0.095
-0.08
-0.08
-0.095
-0.09
-0.09
-0.085
-0.1
-0.125
-0.075
-0.01
0.07
0.035
-0.015
-0.04
-0.055
-0.07
-0.12
-0.115
-0.13
-0.12
-0.28
-0.09
0.85
1.44
0.45
-0.395
-0.31
-0.225
-0.07
-0.085
-0.07
-0.06
-0.04
-0.035
-0.065
-0.045
-0.035
-0.02
-0.01
-0.035
-0.015
0.0
0.015
0.045
0.065
0.095
0.12
0.15
0.175
0.25
0.285
0.3
0.335
0.345
0.305
0.23
0.15
0.075
0.03
0.01
-0.015
-0.015
-0.025
-0.035
-0.01
-0.015
-0.03
0.0
0.0
0.005
0.025
0.02
0.015
0.02
0.015
0.005
0.0
0.015
0.01
0.0
0.0
0.0
-0.005
0.0
0.005
0.0
-0.005
-0.015
-0.015
-0.02
-0.01
-0.005
-0.01
-0.02
-0.02
-0.015
-0.02
-0.03
-0.03
-0.02
-0.03
-0.03
-0.035
-0.03
-0.03
-0.03
-0.04
-0.04
-0.035
-0.04
-0.05
-0.05
-0.055
-0.045
-0.05
-0.055
-0.055
-0.055
-0.055
-0.06
-0.055
-0.06
-0.07
-0.07
-0.07
-0.07
-0.09
-0.07
-0.025
0.035
0.08
0.03
-0.015
-0.03
-0.04
-0.085
-0.11
-0.11
-0.105
-0.15
-0.225
0.27
1.25
0.99
-0.065
-0.37
-0.255
-0.095
-0.065
-0.075
-0.06
-0.065
-0.06
-0.06
-0.06
-0.055
-0.04
-0.04
-0.025
-0.025
-0.015
0.0
0.025
0.035
0.055
0.085
0.115
0.155
0.185
0.23
0.275
0.315
0.34
0.34
0.3
0.22
0.12
0.065
0.01
-0.02
-0.025
-0.035
-0.035
-0.035
-0.03
-0.025
-0.025
-0.01
-0.01
0.0
0.0
-0.005
-0.005
-0.005
-0.015
-0.02
-0.035
-0.005
-0.005
-0.01
-0.03
-0.045
-0.03
-0.015
-0.025
0.0
-0.02
-0.055
-0.035
-0.035
-0.035
-0.05
-0.03
-0.05
-0.04
-0.045
-0.04
-0.035
-0.04
-0.045
-0.055
-0.045
-0.03
-0.045
-0.075
-0.055
-0.045
-0.075
-0.055
-0.05
-0.04
-0.055
-0.105
-0.07
-0.08
-0.05
-0.08
-0.075
-0.075
-0.085
-0.08
-0.1
-0.105
-0.065
-0.045
0.03
0.055
0.02
-0.005
-0.02
-0.09
-0.12
-0.13
-0.095
-0.14
-0.235
-0.285
0.47
1.56
0.795
-0.18
-0.38
-0.325
-0.135
-0.09
-0.09
-0.05
-0.055
-0.07
-0.045
-0.045
-0.06
-0.045
0.0
-0.03
-0.055
-0.025
0.03
0.0
0.03
0.055
0.095
0.12
0.125
0.16
0.245
0.245
0.28
0.305
0.33
0.265
0.145
0.105
0.03
-0.005
-0.01
-0.055
-0.06
-0.07
-0.045
-0.05
-0.055
-0.015
-0.02
-0.025
-0.025
-0.015
0.005
-0.01
-0.015
-0.005
-0.03
-0.035
0.0
-0.025
-0.045
-0.04
-0.02
-0.035
-0.03
-0.02
-0.065
-0.045
-0.055
-0.045
-0.03
-0.055
-0.06
-0.04
-0.06
-0.075
-0.03
-0.085
-0.075
-0.055
-0.055
-0.06
-0.095
-0.045
-0.065
-0.075
-0.08
-0.085
-0.075
-0.08
-0.08
-0.08
-0.115
-0.105
-0.07
0.02
0.06
0.025
0.015
-0.02
-0.07
-0.09
-0.1
-0.12
-0.115
-0.145
-0.28
0.005
0.99
1.36
0.365
-0.38
-0.355
-0.235
-0.06
-0.04
-0.07
-0.07
-0.055
-0.04
-0.055
-0.03
-0.03
-0.03
-0.005
-0.035
0.005
0.0
0.005
0.05
0.045
0.075
0.115
0.125
0.175
0.225
0.255
0.29
0.31
0.31
0.29
0.205
0.13
0.045
0.01
-0.03
-0.04
-0.05
-0.05
-0.045
-0.06
-0.035
-0.035
-0.04
-0.035
-0.02
-0.005
-0.01
-0.01
-0.03
0.0
-0.005
-0.025
-0.015
-0.015
-0.035
-0.03
-0.01
-0.035
-0.035
-0.045
-0.03
-0.035
-0.045
-0.035
-0.04
-0.06
-0.05
-0.035
-0.05
-0.04
-0.055
-0.05
-0.035
-0.045
-0.07
-0.06
-0.045
-0.05
-0.08
-0.055
-0.07
-0.075
-0.06
-0.065
-0.07
-0.065
-0.075
-0.08
-0.08
-0.1
-0.09
-0.065
0.015
0.065
0.05
0.01
-0.015
-0.03
-0.08
-0.1
-0.105
-0.12
-0.115
-0.215
-0.1
0.78
1.47
0.515
-0.415
-0.32
-0.205
-0.06
-0.055
-0.07
-0.06
-0.055
-0.05
-0.05
-0.04
-0.035
-0.03
-0.04
-0.03
-0.02
0.005
0.02
0.02
0.045
0.08
0.11
0.135
0.165
0.22
0.255
0.3
0.335
0.345
0.305
0.23
0.145
0.075
0.02
-0.01
-0.03
-0.05
-0.05
-0.04
-0.04
-0.04
-0.035
-0.025
-0.02
-0.01
-0.01
-0.005
-0.005
-0.01
-0.005
-0.01
0.0
-0.015
-0.01
-0.015
-0.015
-0.015
-0.03
-0.03
-0.02
-0.025
-0.025
-0.02
-0.03
-0.035
-0.035
-0.04
-0.03
-0.03
-0.035
-0.04
-0.05
-0.035
-0.035
-0.04
-0.045
-0.04
-0.045
-0.05
-0.045
-0.045
-0.05
-0.045
-0.05
-0.05
-0.06
-0.055
-0.05
-0.065
-0.065
-0.07
-0.08
-0.07
-0.075
-0.095
-0.08
-0.075
-0.095
-0.085
-0.045
0.025
0.065
0.015
-0.02
-0.025
-0.05
-0.105
-0.13
-0.13
-0.13
-0.15
-0.245
0.11
1.05
1.135
0.185
-0.445
-0.3
-0.105
-0.07
-0.09
-0.09
-0.08
-0.09
-0.05
-0.055
-0.055
-0.06
-0.05
-0.06
-0.05
-0.015
-0.01
-0.005
0.015
0.03
0.065
0.095
0.11
0.16
0.215
0.235
0.28
0.34
0.355
0.29
0.22
0.14
0.05
0.01
-0.035
-0.015
-0.05
-0.09
-0.06
-0.03
-0.045
-0.05
-0.045
-0.04
-0.02
-0.05
0.0
-0.01
-0.015
-0.02
-0.03
-0.025
-0.045
-0.01
-0.04
-0.045
-0.01
-0.04
-0.05
-0.035
-0.06
-0.055
-0.055
-0.035
-0.08
-0.06
-0.055
-0.06
-0.045
-0.06
-0.06
-0.06
-0.07
-0.04
-0.075
-0.08
-0.08
-0.07
-0.09
-0.07
-0.065
-0.095
-0.125
-0.065
-0.095
-0.125
-0.07
-0.08
-0.11
-0.14
-0.135
-0.05
-0.035
0.015
0.03
0.03
-0.04
-0.075
-0.105
-0.12
-0.125
-0.155
-0.135
-0.305
-0.195
0.735
1.53
0.575
-0.275
-0.375
-0.3
-0.09
-0.065
-0.085
-0.08
-0.05
-0.04
-0.055
-0.05
-0.005
-0.03
-0.03
-0.03
0.0
-0.04
0.0
0.05
0.05
0.065
0.11
0.125
0.14
0.18
0.25
0.27
0.305
0.365
0.27
0.215
0.155
0.06
0.015
0.0
-0.035
-0.065
-0.05
-0.04
-0.035
-0.04
-0.06
-0.01
-0.01
-0.06
-0.025
0.0
-0.01
-0.03
0.0
-0.045
-0.01
-0.025
-0.035
-0.025
-0.03
-0.025
-0.05
-0.035
-0.015
-0.06
-0.045
-0.04
-0.07
-0.045
-0.045
-0.045
-0.08
-0.055
-0.055
-0.055
-0.07
-0.075
-0.06
-0.075
-0.06
-0.08
-0.08
-0.1
-0.07
-0.075
-0.105
-0.105
-0.05
0.02
0.045
0.03
0.005
-0.015
-0.055
-0.12
-0.115
-0.13
-0.12
-0.12
-0.28
0.01
0.98
1.365
0.335
-0.395
-0.33
-0.215
-0.07
-0.08
-0.065
-0.04
-0.075
-0.05
-0.045
-0.06
-0.04
-0.04
-0.025
-0.02
-0.025
-0.015
0.01
0.03
0.055
0.085
0.12
0.135
0.17
0.235
0.285
0.315
0.325
0.345
0.3
0.205
0.14
0.07
0.005
-0.01
-0.015
-0.04
-0.03
-0.02
-0.025
-0.015
-0.015
-0.025
-0.005
0.01
0.01
-0.005
0.005
-0.005
0.0
0.01
0.0
0.005
0.0
0.01
0.0
0.005
-0.005
0.0
-0.015
-0.02
-0.015
-0.01
-0.015
-0.025
-0.02
-0.02
0.0
-0.02
-0.02
-0.025
-0.02
-0.02
-0.035
-0.045
-0.04
-0.035
-0.035
-0.045
-0.045
-0.05
-0.055
-0.05
-0.045
-0.06
-0.065
-0.07
-0.065
-0.07
-0.065
-0.07
-0.09
-0.065
-0.02
0.045
0.08
0.025
-0.015
-0.02
-0.04
-0.095
-0.11
-0.105
-0.11
-0.155
-0.23
0.295
1.31
1.015
-0.07
-0.375
-0.255
-0.1
-0.07
-0.07
-0.06
-0.065
-0.05
-0.05
-0.06
-0.055
-0.05
-0.04
-0.03
-0.025
-0.01
0.0
0.02
0.025
0.055
0.085
0.115
0.15
0.195
0.24
0.285
0.32
0.35
0.335
0.285
0.21
0.115
0.05
0.01
-0.015
-0.03
-0.04
-0.04
-0.03
-0.025
-0.025
-0.01
-0.01
-0.01
-0.005
0.0
-0.01
-0.005
-0.01
-0.01
-0.005
-0.005
-0.015
-0.015
-0.005
-0.01
-0.02
-0.02
-0.02
-0.01
-0.02
-0.02
-0.025
-0.01
-0.015
-0.025
-0.025
-0.025
-0.03
-0.015
-0.035
-0.035
-0.03
-0.035
-0.04
-0.035
-0.035
-0.05
-0.04
-0.04
-0.055
-0.045
-0.035
-0.035
-0.06
-0.065
-0.065
-0.065
-0.075
-0.07
-0.065
-0.075
-0.065
-0.055
-0.085
-0.085
-0.095
-0.09
-0.06
0.0
0.07
0.04
0.0
-0.02
-0.045
-0.1
-0.125
-0.1
-0.12
-0.14
-0.265
-0.095
0.815
1.39
0.505
-0.415
-0.325
-0.195
-0.095
-0.085
-0.1
-0.075
-0.065
-0.055
-0.04
-0.055
-0.065
-0.055
-0.06
-0.045
-0.06
0.0
0.025
0.01
0.005
0.045
0.075
0.12
0.145
0.185
0.25
0.26
0.305
0.335
0.29
0.23
0.135
0.06
0.0
-0.02
-0.05
-0.05
-0.075
-0.045
-0.065
-0.06
-0.055
-0.045
-0.04
-0.015
-0.04
-0.045
-0.015
-0.02
-0.05
-0.03
-0.065
-0.06
-0.04
-0.02
-0.045
-0.055
-0.04
-0.08
-0.075
-0.075
-0.025
-0.09
-0.05
-0.09
-0.07
-0.075
-0.07
-0.08
-0.065
-0.09
-0.1
-0.07
-0.075
-0.085
-0.075
-0.095
-0.075
-0.08
-0.11
-0.075
-0.105
-0.09
-0.11
-0.115
-0.11
-0.03
0.04
0.05
0.01
-0.02
-0.065
-0.075
-0.115
-0.12
-0.12
-0.16
-0.25
-0.295
0.49
1.6
0.825
-0.165
-0.365
-0.31
-0.125
-0.115
-0.05
-0.085
-0.045
-0.08
-0.08
-0.015
-0.025
-0.03
-0.05
-0.04
-0.045
0.0
0.045
0.015
0.045
0.02
0.09
0.105
0.165
0.195
0.225
0.28
0.295
0.32
0.29
0.24
0.185
0.095
0.025
-0.02
-0.045
-0.04
-0.03
-0.045
-0.01
-0.03
-0.055
0.0
-0.035
0.0
-0.005
0.0
-0.02
0.0
-0.03
-0.02
-0.01
-0.03
-0.025
-0.005
-0.015
-0.03
-0.035
-0.01
-0.065
-0.055
-0.05
-0.06
-0.05
-0.055
-0.04
-0.06
-0.055
-0.06
-0.06
-0.07
-0.06
-0.08
-0.045
-0.085
-0.085
-0.075
-0.09
-0.085
-0.1
-0.105
-0.07
-0.03
0.07
0.05
0.035
-0.025
-0.025
-0.055
-0.115
-0.12
-0.12
-0.115
-0.22
-0.25
0.495
1.59
0.84
-0.22
-0.365
-0.305
-0.11
-0.05
-0.065
-0.065
-0.05
-0.06
-0.06
-0.045
-0.03
-0.04
-0.03
-0.01
-0.01
0.01
0.015
0.025
0.04
0.06
0.09
0.125
0.17
0.215
0.24
0.28
0.325
0.345
0.315
0.25
0.16
0.085
0.025
-0.005
-0.02
-0.05
-0.045
-0.045
-0.05
-0.04
-0.035
-0.035
-0.03
-0.015
-0.015
-0.01
-0.01
-0.005
-0.01
0.0
-0.015
-0.02
-0.01
-0.01
-0.015
-0.015
-0.02
-0.015
-0.025
-0.025
-0.03
-0.04
-0.03
-0.03
-0.025
-0.03
-0.03
-0.03
-0.035
-0.03
-0.035
-0.035
-0.035
-0.045
-0.045
-0.045
-0.05
-0.05
-0.055
-0.05
-0.06
-0.055
-0.045
-0.065
-0.065
-0.075
-0.065
-0.07
-0.075
-0.075
-0.075
-0.08
-0.09
-0.09
-0.095
-0.1
-0.07
-0.01
0.04
0.04
-0.01
-0.04
-0.05
-0.085
-0.125
-0.125
-0.135
-0.135
-0.225
-0.185
0.63
1.49
0.635
-0.445
-0.345
-0.175
-0.095
-0.09
-0.085
-0.08
-0.09
-0.085
-0.07
-0.065
-0.065
-0.055
-0.06
-0.035
-0.035
-0.03
-0.005
0.01
0.025
0.05
0.085
0.12
0.165
0.21
0.25
0.28
0.33
0.355
0.325
0.27
0.17
0.11
0.04
0.0
-0.015
-0.025
-0.04
-0.035
-0.025
-0.03
-0.025
-0.015
-0.005
-0.005
-0.005
0.0
-0.005
-0.01
-0.015
-0.015
-0.01
-0.02
-0.02
-0.015
-0.01
-0.025
-0.035
-0.03
-0.03
-0.045
-0.035
-0.04
-0.025
-0.03
-0.045
-0.035
-0.045
-0.035
-0.035
-0.055
-0.06
-0.05
-0.06
-0.055
-0.06
-0.065
-0.07
-0.065
-0.06
-0.075
-0.055
-0.07
-0.07
-0.085
-0.09
-0.085
-0.095
-0.09
-0.085
-0.085
-0.085
-0.105
-0.095
-0.105
-0.1
-0.08
-0.105
-0.085
-0.025
0.055
0.025
0.005
-0.04
-0.06
-0.085
-0.12
-0.12
-0.11
-0.12
-0.27
-0.19
0.675
1.535
0.635
-0.375
-0.34
-0.255
-0.085
-0.065
-0.07
-0.08
-0.065
