signal
-0.09
-0.125
-0.14
-0.125
-0.14
-0.2
-0.32
0.24
1.43
1.455
0.18
-0.43
-0.365
-0.22
-0.1
-0.095
-0.095
-0.095
-0.1
-0.085
-0.085
-0.075
-0.075
-0.035
-0.05
-0.04
-0.04
-0.005
0.005
0.04
0.085
0.095
0.13
0.17
0.22
0.265
0.32
0.36
0.385
0.375
0.31
0.24
0.14
0.075
0.01
-0.02
-0.05
-0.05
-0.055
-0.04
-0.065
-0.055
-0.05
-0.03
-0.01
0.0
-0.015
-0.02
-0.01
-0.01
-0.02
-0.01
-0.015
-0.01
-0.025
-0.02
-0.025
-0.025
-0.04
-0.03
-0.04
-0.035
-0.045
-0.04
-0.04
-0.045
-0.06
-0.055
-0.055
-0.055
-0.06
-0.045
-0.06
-0.06
-0.08
-0.07
-0.065
-0.075
-0.07
-0.065
-0.08
-0.075
-0.08
-0.08
-0.08
-0.085
-0.09
-0.09
-0.095
-0.075
-0.095
-0.1
-0.11
-0.085
-0.015
0.05
0.07
0.04
-0.005
-0.03
-0.06
-0.12
-0.125
-0.13
-0.13
-0.19
-0.255
0.36
1.495
1.31
0.01
-0.39
-0.3
-0.14
-0.1
-0.095
-0.09
-0.08
-0.09
-0.085
-0.075
-0.075
-0.08
-0.07
-0.06
-0.04
-0.025
-0.005
0.015
0.04
0.055
0.095
0.115
0.165
0.21
0.27
0.315
0.36
0.38
0.375
0.32
0.235
0.15
0.075
0.005
-0.02
-0.05
-0.05
-0.045
-0.05
-0.055
-0.04
-0.04
-0.03
-0.03
-0.025
-0.025
-0.01
-0.02
-0.03
-0.02
-0.015
-0.035
-0.025
-0.03
-0.02
-0.025
-0.04
-0.04
-0.035
-0.05
-0.045
-0.05
-0.05
-0.055
-0.045
-0.055
-0.045
-0.065
-0.06
-0.075
-0.075
-0.075
-0.075
-0.07
-0.08
-0.085
-0.08
-0.095
-0.09
-0.095
-0.095
-0.1
-0.1
-0.115
-0.105
-0.11
-0.1
-0.115
-0.11
-0.12
-0.105
-0.12
-0.12
-0.135
-0.1
-0.06
0.0
0.055
0.025
-0.035
-0.05
-0.07
-0.125
-0.16
-0.145
-0.175
-0.165
-0.285
-0.125
0.84
1.695
0.71
-0.435
-0.375
-0.235
-0.11
-0.1
-0.115
-0.09
-0.085
-0.105
-0.115
-0.08
-0.085
-0.075
-0.075
-0.065
-0.045
-0.02
-0.005
0.005
0.035
0.08
0.085
0.145
0.175
0.235
0.285
0.35
0.375
0.39
0.36
0.28
0.21
0.115
0.05
0.0
-0.035
-0.035
-0.045
-0.045
-0.045
-0.03
-0.055
-0.02
-0.03
-0.025
-0.03
-0.03
-0.025
-0.025
-0.035
-0.02
-0.04
-0.02
-0.045
-0.035
-0.025
-0.035
-0.035
-0.055
-0.04
-0.04
-0.025
-0.035
-0.06
-0.055
-0.07
-0.065
-0.09
-0.07
-0.06
-0.065
-0.065
-0.05
-0.075
-0.08
-0.08
-0.09
-0.09
-0.09
-0.1
-0.095
-0.1
-0.1
-0.09
-0.085
-0.1
-0.11
-0.1
-0.1
-0.08
0.035
0.055
0.03
-0.025
-0.04
-0.095
-0.145
-0.13
-0.12
-0.155
-0.2
-0.335
0.115
1.315
1.495
0.25
-0.44
-0.385
-0.275
-0.105
-0.105
-0.125
-0.11
-0.08
-0.095
-0.085
-0.085
-0.08
-0.065
-0.06
-0.05
-0.05
0.0
0.005
0.025
0.04
0.08
0.12
0.175
0.225
0.26
0.305
0.37
0.38
0.375
0.32
0.25
0.185
0.07
0.025
0.0
-0.015
-0.045
-0.04
-0.045
-0.05
-0.02
-0.035
-0.01
-0.015
-0.025
-0.02
-0.02
-0.03
-0.01
-0.01
-0.015
-0.04
-0.04
-0.04
-0.03
-0.01
-0.045
-0.055
-0.045
-0.05
-0.06
-0.055
-0.055
-0.07
-0.06
-0.065
-0.06
-0.09
-0.08
-0.09
-0.08
-0.07
-0.085
-0.095
-0.09
-0.11
-0.095
-0.09
-0.095
-0.11
-0.105
-0.11
-0.055
0.005
0.055
0.05
0.0
-0.045
-0.055
-0.12
-0.14
-0.145
-0.135
-0.145
-0.305
-0.17
0.825
1.845
0.795
-0.365
-0.375
-0.29
-0.125
-0.115
-0.1
-0.1
-0.09
-0.08
-0.09
-0.09
-0.075
-0.07
-0.07
-0.06
-0.025
-0.02
-0.005
0.01
0.05
0.06
0.1
0.15
0.2
0.25
0.305
0.345
0.385
0.385
0.35
0.28
0.185
0.095
0.035
0.0
-0.03
-0.035
-0.045
-0.035
-0.025
-0.035
-0.025
-0.02
-0.03
-0.02
-0.015
-0.01
-0.005
-0.015
-0.015
-0.025
-0.02
-0.025
-0.025
-0.04
-0.035
-0.025
-0.04
-0.04
-0.05
-0.06
-0.05
-0.05
-0.05
-0.055
-0.06
-0.06
-0.06
-0.08
-0.055
-0.075
-0.08
-0.08
-0.075
-0.075
-0.075
-0.085
-0.08
-0.085
-0.085
-0.09
-0.09
-0.085
-0.095
-0.095
-0.1
-0.095
-0.095
-0.105
-0.1
-0.08
-0.02
0.055
0.065
0.02
-0.025
-0.04
-0.07
-0.14
-0.135
-0.135
-0.135
-0.215
-0.26
0.365
1.495
1.225
-0.05
-0.38
-0.275
-0.13
-0.1
-0.11
-0.09
-0.1
-0.1
-0.1
-0.09
-0.09
-0.085
-0.07
-0.055
-0.045
-0.035
-0.015
0.005
0.03
0.055
0.09
0.12
0.16
0.215
0.265
0.315
0.355
0.4
0.375
0.325
0.24
0.15
0.075
0.015
-0.02
-0.035
-0.035
-0.035
-0.03
-0.03
-0.03
-0.02
-0.02
-0.025
-0.02
-0.03
-0.01
-0.025
-0.015
-0.02
-0.02
-0.02
-0.02
-0.035
-0.03
-0.03
-0.03
-0.035
-0.04
-0.03
-0.04
-0.03
-0.035
-0.04
-0.05
-0.045
-0.05
-0.06
-0.05
-0.05
-0.055
-0.06
-0.065
-0.055
-0.055
-0.07
-0.07
-0.065
-0.06
-0.07
-0.08
-0.085
-0.075
-0.085
-0.08
-0.085
-0.08
-0.1
-0.09
-0.095
-0.085
-0.09
-0.1
-0.13
-0.11
-0.075
-0.015
0.06
0.055
0.025
-0.025
-0.05
-0.09
-0.15
-0.145
-0.15
-0.15
-0.285
-0.275
0.605
1.76
0.985
-0.31
-0.385
-0.28
-0.125
-0.115
-0.11
-0.095
-0.11
-0.105
-0.095
-0.08
-0.08
-0.07
-0.08
-0.065
-0.055
-0.035
-0.025
0.015
0.03
0.05
0.09
0.135
0.175
0.215
0.27
0.315
0.365
0.385
0.365
0.325
0.235
0.13
0.055
0.02
-0.025
-0.02
-0.035
-0.05
-0.05
-0.05
-0.045
-0.04
-0.03
-0.005
-0.025
-0.02
-0.025
-0.025
-0.015
-0.025
-0.03
-0.035
-0.03
-0.04
-0.05
-0.025
-0.045
-0.055
-0.07
-0.045
-0.055
-0.05
-0.065
-0.065
-0.075
-0.07
-0.085
-0.09
-0.09
-0.065
-0.085
-0.11
-0.09
-0.125
-0.1
-0.115
-0.09
-0.07
-0.095
-0.085
-0.13
-0.115
-0.11
-0.12
-0.125
-0.05
0.005
0.055
0.01
-0.02
-0.035
-0.045
-0.135
-0.16
-0.155
-0.14
-0.19
-0.355
-0.135
0.95
1.735
0.625
-0.37
-0.405
-0.305
-0.12
-0.15
-0.115
-0.105
-0.09
-0.1
-0.105
-0.075
-0.07
-0.085
-0.045
-0.045
-0.05
-0.025
-0.015
0.015
0.04
0.08
0.09
0.14
0.185
0.225
0.285
0.325
0.37
0.375
0.345
0.27
0.165
0.065
0.02
-0.04
-0.03
-0.06
-0.065
-0.075
-0.045
-0.07
-0.05
-0.05
-0.04
-0.04
-0.03
-0.04
-0.04
-0.065
-0.04
-0.05
-0.05
-0.05
-0.055
-0.05
-0.065
-0.07
-0.07
-0.07
-0.07
-0.075
-0.08
-0.08
-0.095
-0.08
-0.08
-0.08
-0.09
-0.095
-0.085
-0.1
-0.105
-0.095
-0.095
-0.1
-0.095
-0.12
-0.11
-0.115
-0.115
-0.13
-0.085
-0.035
0.035
0.065
0.025
-0.025
-0.03
-0.07
-0.12
-0.155
-0.14
-0.16
-0.18
-0.285
0.13
1.25
1.485
0.295
-0.425
-0.355
-0.215
-0.1
-0.1
-0.1
-0.08
-0.095
-0.085
-0.09
-0.075
-0.08
-0.065
-0.055
-0.045
-0.025
-0.005
0.0
0.03
0.07
0.095
0.115
0.18
0.225
0.275
0.31
0.365
0.385
0.38
0.305
0.24
0.145
0.08
0.01
-0.01
-0.04
-0.045
-0.055
-0.05
-0.035
-0.035
-0.025
-0.015
-0.02
-0.01
-0.015
-0.005
-0.015
-0.005
-0.01
-0.01
-0.02
-0.015
-0.03
-0.03
-0.03
-0.035
-0.04
-0.035
-0.04
-0.04
-0.045
-0.035
-0.045
-0.04
-0.05
-0.05
-0.06
-0.06
-0.055
-0.06
-0.075
-0.065
-0.075
-0.075
-0.09
-0.08
-0.08
-0.09
-0.1
-0.09
-0.095
-0.085
-0.105
-0.1
-0.1
-0.095
-0.11
-0.11
-0.1
-0.065
0.0
0.07
0.03
0.0
-0.04
-0.045
-0.095
-0.125
-0.13
-0.13
-0.145
-0.24
-0.235
0.595
1.715
0.985
-0.34
-0.36
-0.225
-0.1
-0.1
-0.1
-0.09
-0.09
-0.08
-0.095
-0.095
-0.085
-0.075
-0.065
-0.055
-0.045
-0.045
-0.01
0.005
0.025
0.045
0.085
0.13
0.17
0.215
0.285
0.335
0.37
0.385
0.37
0.295
0.215
0.115
0.045
0.005
-0.015
-0.04
-0.035
-0.045
-0.035
-0.05
-0.03
-0.035
-0.03
-0.02
-0.02
-0.025
-0.035
-0.035
-0.035
-0.045
-0.035
-0.045
-0.03
-0.04
-0.03
-0.045
-0.04
-0.045
-0.035
-0.05
-0.05
-0.055
-0.05
-0.05
-0.04
-0.075
-0.065
-0.055
-0.07
-0.07
-0.07
-0.085
-0.065
-0.075
-0.07
-0.09
-0.08
-0.085
-0.085
-0.085
-0.085
-0.1
-0.11
-0.115
-0.105
-0.105
-0.09
-0.105
-0.095
-0.105
-0.12
-0.11
-0.055
0.005
0.065
0.03
-0.01
-0.03
-0.06
-0.135
-0.125
-0.15
-0.145
-0.17
-0.31
0.04
1.135
1.535
0.415
-0.43
-0.355
-0.28
-0.105
-0.105
-0.105
-0.105
-0.095
-0.09
-0.09
-0.075
-0.085
-0.08
-0.06
-0.05
-0.03
-0.015
0.005
0.005
0.03
0.08
0.105
0.135
0.2
0.245
0.29
0.33
0.385
0.355
0.35
0.275
0.19
0.07
0.055
0.02
-0.03
-0.045
-0.035
-0.05
-0.03
-0.03
-0.035
-0.01
-0.015
-0.02
0.0
-0.01
-0.02
-0.02
-0.035
-0.035
-0.025
-0.035
-0.015
-0.05
-0.035
-0.045
-0.055
-0.07
-0.05
-0.035
-0.06
-0.08
-0.05
-0.08
-0.07
-0.075
-0.06
-0.07
-0.06
-0.1
-0.1
-0.08
-0.065
-0.095
-0.13
-0.085
-0.1
-0.105
-0.08
-0.105
-0.12
-0.125
-0.065
-0.035
0.08
0.055
0.025
-0.04
-0.035
-0.085
-0.13
-0.135
-0.135
-0.145
-0.28
-0.29
0.625
1.83
1.065
-0.2
-0.415
-0.35
-0.175
-0.085
-0.095
-0.115
-0.07
-0.105
-0.08
-0.07
-0.07
-0.075
-0.045
-0.06
-0.035
-0.01
-0.005
0.005
0.04
0.075
0.09
0.13
0.18
0.225
0.26
0.325
0.36
0.375
0.35
0.27
0.18
0.1
0.035
-0.01
-0.035
-0.07
-0.04
-0.055
-0.065
-0.07
-0.05
-0.04
-0.025
-0.04
-0.025
-0.04
-0.03
-0.03
-0.015
-0.045
-0.035
-0.05
-0.06
-0.05
-0.045
-0.055
-0.06
-0.075
-0.065
-0.08
-0.065
-0.075
-0.065
-0.085
-0.075
-0.085
-0.09
-0.085
-0.085
-0.095
-0.085
-0.095
-0.095
-0.105
-0.1
-0.115
-0.11
-0.105
-0.115
-0.095
-0.055
0.015
0.065
0.02
-0.005
-0.045
-0.05
-0.115
-0.135
-0.15
-0.14
-0.16
-0.28
-0.16
0.825
1.79
0.79
-0.39
-0.365
-0.265
-0.115
-0.1
-0.095
-0.09
-0.09
-0.1
-0.085
-0.08
-0.06
-0.055
-0.055
-0.035
-0.035
-0.02
0.0
0.03
0.05
0.08
0.12
0.155
0.215
0.245
0.32
0.355
0.405
0.39
0.335
0.255
0.165
0.09
0.04
-0.02
-0.035
-0.05
-0.04
-0.045
-0.035
-0.045
-0.04
-0.03
-0.03
-0.035
-0.025
-0.03
-0.03
-0.025
-0.015
-0.025
-0.025
-0.03
-0.035
-0.04
-0.04
-0.035
-0.04
-0.05
-0.045
-0.06
-0.055
-0.06
-0.065
-0.06
-0.055
-0.065
-0.06
-0.065
-0.07
-0.07
-0.075
-0.075
-0.07
-0.09
-0.085
-0.09
-0.085
-0.095
-0.095
-0.095
-0.09
-0.085
-0.105
-0.09
-0.025
0.035
0.085
0.03
-0.01
-0.035
-0.055
-0.115
-0.13
-0.13
-0.14
-0.14
-0.255
-0.11
0.845
1.65
0.7
-0.41
-0.345
-0.195
-0.085
-0.095
-0.08
-0.09
-0.11
-0.1
-0.1
-0.095
-0.075
-0.07
-0.07
-0.05
-0.04
-0.025
-0.005
0.025
0.04
0.045
0.095
0.145
0.195
0.24
0.29
0.325
0.38
0.38
0.335
0.265
0.175
0.095
0.02
-0.03
-0.06
-0.055
-0.045
-0.07
-0.055
-0.055
-0.045
-0.04
-0.035
-0.04
-0.035
-0.045
-0.06
-0.06
-0.055
-0.05
-0.065
-0.06
-0.06
-0.045
-0.055
-0.07
-0.07
-0.085
-0.08
-0.065
-0.07
-0.085
-0.055
-0.06
-0.095
-0.09
-0.09
-0.09
-0.095
-0.08
-0.095
-0.115
-0.09
-0.105
-0.1
-0.13
-0.095
-0.035
0.04
0.085
0.065
-0.02
-0.04
-0.075
-0.125
-0.125
-0.155
-0.145
-0.14
-0.3
-0.125
0.91
1.72
0.65
-0.385
-0.355
-0.28
-0.115
-0.1
-0.105
-0.105
-0.08
-0.09
-0.08
-0.08
-0.08
-0.085
-0.07
-0.035
-0.03
-0.025
0.0
0.025
0.04
0.08
0.105
0.15
0.2
0.25
0.3
0.35
0.375
0.36
0.3
0.225
0.14
0.065
0.0
-0.03
-0.06
-0.07
-0.07
-0.07
-0.06
-0.07
-0.055
-0.06
-0.045
-0.04
-0.05
-0.04
-0.035
-0.035
-0.055
-0.05
-0.06
-0.06
-0.07
-0.06
-0.07
-0.09
-0.08
-0.075
-0.08
-0.085
-0.095
-0.09
-0.085
-0.085
-0.085
-0.105
-0.095
-0.1
-0.095
-0.095
-0.12
-0.09
-0.03
0.035
0.08
0.04
-0.01
-0.035
-0.06
-0.11
-0.125
-0.145
-0.145
-0.145
-0.275
-0.195
0.74
1.76
0.835
-0.365
-0.37
-0.245
-0.095
-0.1
-0.09
-0.09
-0.085
-0.09
-0.085
-0.085
-0.075
-0.065
-0.06
-0.04
-0.025
-0.01
0.0
0.025
0.04
0.075
0.115
0.16
0.205
0.26
0.31
0.355
0.385
0.38
0.325
0.225
0.14
0.065
0.01
-0.03
-0.04
-0.05
-0.04
-0.05
-0.045
-0.04
-0.045
-0.03
-0.03
-0.03
-0.03
-0.035
-0.02
-0.025
-0.03
-0.035
-0.03
-0.03
-0.03
-0.03
-0.03
-0.035
-0.04
-0.04
-0.05
-0.05
-0.055
-0.055
-0.055
-0.06
-0.06
-0.05
-0.05
-0.065
-0.065
-0.075
-0.065
-0.08
-0.075
-0.08
-0.08
-0.08
-0.07
-0.085
-0.08
-0.08
-0.09
-0.09
-0.095
-0.1
-0.09
-0.09
-0.11
-0.075
-0.03
0.045
0.08
0.025
-0.01
-0.03
-0.055
-0.125
-0.13
-0.145
-0.14
-0.145
-0.26
-0.04
0.915
1.575
0.595
-0.415
-0.33
-0.21
-0.105
-0.115
-0.105
-0.095
-0.105
-0.105
-0.1
-0.08
-0.085
-0.075
-0.065
-0.06
-0.05
-0.05
-0.01
0.005
0.05
0.06
0.09
0.13
0.165
0.225
0.28
0.34
0.37
0.38
0.34
0.24
0.17
0.095
0.03
-0.01
-0.045
-0.05
-0.045
-0.05
-0.04
-0.04
-0.035
-0.04
-0.035
-0.04
-0.02
-0.03
-0.025
-0.035
-0.02
-0.03
-0.02
-0.035
-0.035
-0.035
-0.025
-0.035
-0.035
-0.045
-0.045
-0.05
-0.045
-0.055
-0.035
-0.04
-0.065
-0.06
-0.05
-0.05
-0.06
-0.05
-0.05
-0.045
-0.045
-0.08
-0.07
-0.06
-0.06
-0.075
-0.08
-0.075
-0.085
-0.085
-0.09
-0.09
-0.075
-0.12
-0.1
-0.105
-0.09
-0.115
-0.06
-0.005
0.055
0.035
0.015
-0.045
-0.06
-0.11
-0.115
-0.14
-0.145
-0.17
-0.3
-0.295
0.58
1.8
1.01
-0.23
-0.445
-0.37
-0.165
-0.115
-0.12
-0.115
-0.11
-0.095
-0.08
-0.085
-0.06
-0.07
-0.05
-0.055
-0.055
-0.03
-0.025
0.005
0.045
0.08
0.11
0.11
0.16
0.205
0.28
0.295
0.355
0.37
0.355
0.275
0.195
0.11
0.05
-0.01
-0.01
-0.045
-0.045
-0.03
-0.055
-0.05
-0.015
-0.055
-0.025
-0.04
-0.015
-0.015
-0.01
-0.025
-0.05
-0.045
-0.025
-0.025
-0.04
-0.015
-0.07
-0.055
-0.05
-0.06
-0.075
-0.06
-0.065
-0.075
-0.06
-0.085
-0.075
-0.095
-0.06
-0.105
-0.09
-0.1
-0.09
-0.1
-0.1
-0.095
-0.08
-0.115
-0.1
-0.105
-0.085
-0.12
-0.13
-0.11
-0.075
0.015
0.055
0.03
-0.005
-0.055
-0.04
-0.105
-0.135
-0.155
-0.145
-0.135
-0.305
-0.27
0.7
1.885
1.0
-0.25
-0.39
-0.365
-0.135
-0.12
-0.09
-0.09
-0.075
-0.095
-0.065
-0.085
-0.055
-0.07
-0.045
-0.05
-0.035
-0.01
0.01
0.035
0.055
0.06
0.115
0.15
0.195
0.255
0.3
0.345
0.385
0.395
0.32
0.265
0.185
0.09
0.055
-0.025
-0.045
-0.035
-0.03
-0.055
-0.06
-0.065
-0.025
-0.04
-0.03
-0.02
-0.02
-0.02
-0.02
-0.03
-0.02
-0.05
-0.03
-0.035
-0.035
-0.05
-0.045
-0.065
-0.055
-0.06
-0.065
-0.06
-0.06
-0.065
-0.06
-0.085
-0.08
-0.075
-0.075
-0.095
-0.085
-0.085
-0.085
-0.09
-0.105
-0.11
-0.09
-0.1
-0.115
-0.105
-0.045
0.01
0.07
0.035
0.0
-0.02
-0.055
-0.12
-0.13
-0.135
-0.135
-0.15
-0.28
-0.205
0.755
1.825
0.875
-0.36
-0.365
-0.28
-0.1
-0.095
-0.08
-0.095
-0.09
-0.095
-0.095
-0.085
-0.075
-0.075
-0.055
-0.055
-0.035
-0.035
-0.005
0.02
0.05
0.07
0.11
0.14
0.195
0.24
0.315
0.335
0.385
0.375
0.335
0.235
0.15
0.075
0.015
-0.025
-0.045
-0.05
-0.055
-0.055
-0.045
-0.055
-0.055
-0.05
-0.035
-0.035
-0.03
-0.035
-0.035
-0.035
-0.03
-0.045
-0.04
-0.045
-0.03
-0.055
-0.05
-0.05
-0.06
-0.07
-0.06
-0.07
-0.06
-0.085
-0.07
-0.075
-0.065
-0.085
-0.065
-0.09
-0.085
-0.095
-0.075
-0.095
-0.09
-0.09
-0.095
-0.105
-0.1
-0.105
-0.09
-0.115
-0.08
-0.055
0.01
0.07
0.055
0.0
-0.015
-0.045
-0.09
-0.14
-0.13
-0.14
-0.135
-0.24
-0.265
0.48
1.625
1.095
-0.21
-0.375
-0.24
-0.11
-0.085
-0.095
-0.095
-0.09
-0.08
-0.105
-0.085
-0.08
-0.05
-0.065
-0.05
-0.045
-0.015
-0.025
0.02
0.03
0.06
0.085
0.135
0.175
0.235
0.285
0.35
0.385
0.385
0.35
0.3
0.2
0.105
0.04
0.01
-0.035
-0.035
-0.045
-0.03
-0.045
-0.045
-0.045
-0.025
-0.025
-0.015
-0.01
-0.03
-0.04
-0.015
-0.01
-0.025
-0.03
-0.01
-0.02
-0.02
-0.035
-0.035
-0.045
-0.02
-0.035
-0.04
-0.05
-0.03
-0.035
-0.035
-0.05
-0.055
-0.055
-0.045
-0.035
-0.035
-0.065
-0.065
-0.075
-0.055
-0.065
-0.065
-0.085
-0.07
-0.075
-0.075
-0.09
-0.095
-0.08
-0.095
-0.09
-0.09
-0.11
-0.085
-0.105
-0.09
-0.1
-0.115
-0.135
-0.095
-0.06
0.015
0.06
0.05
0.0
-0.01
-0.05
-0.115
-0.145
-0.13
-0.145
-0.15
-0.32
-0.14
0.93
1.765
0.675
-0.38
-0.39
-0.29
-0.14
-0.11
-0.105
-0.1
-0.1
-0.08
-0.08
-0.08
-0.075
-0.07
-0.055
-0.05
-0.03
-0.015
0.0
0.035
0.05
0.07
0.09
0.14
0.195
0.23
0.275
0.325
0.345
0.375
0.32
0.26
0.18
0.11
0.035
0.0
-0.04
-0.025
-0.04
-0.025
-0.035
-0.04
-0.035
-0.015
-0.01
-0.01
-0.015
-0.005
-0.015
0.0
-0.02
-0.015
-0.015
-0.02
-0.03
-0.035
-0.025
-0.03
-0.03
-0.035
-0.045
-0.04
-0.045
-0.04
-0.04
-0.045
-0.05
-0.055
-0.07
-0.065
-0.07
-0.07
-0.075
-0.055
-0.07
-0.07
-0.09
-0.09
-0.09
-0.085
-0.095
-0.09
-0.095
-0.105
-0.11
-0.105
-0.105
-0.09
-0.115
-0.085
-0.045
0.025
0.065
0.04
-0.005
-0.03
-0.06
-0.115
-0.135
-0.13
-0.14
-0.15
-0.27
-0.06
0.935
1.665
0.62
-0.42
-0.345
-0.19
-0.105
-0.085
-0.09
-0.095
-0.085
-0.075
-0.08
-0.075
-0.075
-0.07
-0.06
-0.035
-0.035
-0.005
0.0
0.015
0.04
0.075
0.105
0.155
0.205
0.265
0.305
0.365
0.39
0.39
0.34
0.26
0.17
0.09
0.03
-0.01
-0.035
-0.04
-0.05
-0.045
-0.05
-0.035
-0.04
-0.03
-0.035
-0.015
-0.01
-0.02
-0.02
-0.015
-0.035
-0.015
-0.025
-0.025
-0.02
-0.035
-0.025
-0.04
-0.05
-0.035
-0.045
-0.04
-0.045
-0.055
-0.05
-0.045
-0.045
-0.06
-0.065
-0.065
-0.08
-0.075
-0.08
-0.07
-0.075
-0.07
-0.07
-0.075
-0.075
-0.075
-0.075
-0.08
-0.095
-0.08
-0.09
-0.1
-0.09
-0.09
-0.115
-0.115
-0.135
-0.09
-0.045
0.025
0.06
0.04
-0.005
-0.02
-0.06
-0.14
-0.135
-0.14
-0.15
-0.16
-0.31
-0.085
0.955
1.67
0.59
-0.415
-0.355
-0.24
-0.105
-0.11
-0.11
-0.09
-0.1
-0.105
-0.095
-0.06
-0.085
-0.095
-0.08
-0.05
-0.05
-0.025
-0.015
-0.01
0.04
0.065
0.1
0.13
0.17
0.235
0.295
0.325
0.36
0.365
0.345
0.255
0.15
0.08
0.015
-0.02
-0.055
-0.05
-0.065
-0.055
-0.065
-0.055
-0.075
-0.045
-0.04
-0.04
-0.035
-0.045
-0.04
-0.05
-0.04
-0.035
-0.05
-0.075
-0.045
-0.05
-0.06
-0.055
-0.075
-0.06
-0.08
-0.06
-0.08
-0.065
-0.075
-0.08
-0.085
-0.1
-0.085
-0.085
-0.09
-0.115
-0.105
-0.095
-0.11
-0.105
-0.1
-0.105
-0.11
-0.115
-0.12
-0.04
0.02
0.06
0.03
0.005
-0.025
-0.07
-0.125
-0.135
-0.145
-0.135
-0.17
-0.33
-0.175
0.86
1.845
0.755
-0.37
-0.405
-0.325
-0.125
-0.085
-0.115
-0.085
-0.1
-0.095
-0.075
-0.07
-0.065
-0.065
-0.06
-0.03
-0.03
-0.025
0.0
0.02
0.065
0.07
0.125
0.16
0.2
0.26
0.31
0.34
0.39
0.37
0.32
0.245
0.15
0.05
0.01
-0.02
-0.065
-0.05
-0.07
-0.085
-0.055
-0.06
-0.045
-0.055
-0.08
-0.065
-0.045
-0.04
-0.045
-0.035
-0.07
-0.06
-0.06
-0.065
-0.06
-0.05
-0.06
-0.08
-0.075
-0.09
-0.1
-0.075
-0.09
-0.08
-0.105
-0.09
-0.095
-0.1
-0.105
-0.095
-0.11
-0.09
-0.155
-0.12
-0.07
0.005
0.08
0.035
0.02
-0.03
-0.05
-0.12
-0.15
-0.135
-0.125
-0.135
-0.25
-0.305
0.48
1.705
1.23
-0.09
-0.415
-0.355
-0.17
-0.09
-0.105
-0.085
-0.08
-0.075
-0.1
-0.075
-0.085
-0.05
-0.06
-0.03
-0.025
-0.015
-0.005
0.03
0.03
0.085
0.105
0.155
0.21
0.25
0.3
0.35
0.38
0.39
0.32
0.24
0.15
0.08
0.015
-0.04
-0.06
-0.07
-0.05
-0.07
-0.09
-0.08
-0.07
-0.065
-0.045
-0.045
-0.05
-0.045
-0.05
-0.045
-0.045
-0.045
-0.035
-0.04
-0.055
-0.065
-0.07
-0.06
-0.09
-0.065
-0.075
-0.08
-0.085
-0.065
-0.085
-0.09
-0.095
-0.09
-0.095
-0.09
-0.11
-0.115
-0.12
-0.1
-0.115
-0.115
-0.11
-0.11
-0.08
-0.03
0.025
0.065
0.01
-0.02
-0.05
-0.075
-0.13
-0.145
-0.15
-0.15
-0.16
-0.285
-0.07
0.96
1.655
0.57
-0.435
-0.36
-0.225
-0.11
-0.115
-0.1
-0.11
-0.105
-0.11
-0.095
-0.095
-0.085
-0.085
-0.075
-0.06
-0.04
-0.015
0.005
0.015
0.045
0.065
0.12
0.145
0.205
0.26
0.315
0.355
0.38
0.36
0.31
0.215
0.125
0.05
0.005
-0.03
-0.04
-0.05
-0.04
-0.055
-0.05
-0.045
-0.035
-0.045
-0.035
-0.03
-0.025
-0.03
-0.025
-0.03
-0.03
-0.03
-0.03
-0.035
-0.025
-0.04
-0.035
-0.05
-0.04
-0.045
-0.045
-0.055
-0.035
-0.04
-0.05
-0.055
-0.06
-0.045
-0.04
-0.06
-0.055
-0.065
-0.06
-0.075
-0.065
-0.075
-0.06
-0.07
-0.07
-0.07
-0.065
-0.075
-0.07
-0.08
-0.08
-0.08
-0.08
-0.09
-0.09
-0.1
-0.1
-0.1
-0.1
-0.11
-0.135
-0.1
-0.045
0.025
0.06
0.01
-0.02
-0.05
-0.06
-0.135
-0.13
-0.15
-0.15
-0.19
-0.285
0.105
1.16
1.46
0.345
-0.435
-0.32
-0.175
-0.095
-0.125
-0.085
-0.095
-0.1
-0.095
-0.075
-0.09
-0.08
-0.075
-0.055
-0.055
-0.005
-0.025
0.0
0.02
0.04
0.085
0.105
0.16
0.205
0.255
0.31
0.335
0.4
0.375
0.335
0.25
0.165
0.085
0.03
-0.01
-0.035
-0.03
-0.035
-0.04
-0.025
-0.055
-0.025
-0.04
-0.015
-0.04
-0.035
-0.02
-0.025
-0.015
-0.03
-0.025
-0.02
-0.035
-0.04
-0.05
-0.035
-0.06
-0.04
-0.055
-0.065
-0.055
-0.05
-0.065
-0.05
-0.065
-0.055
-0.065
-0.075
-0.095
-0.07
-0.065
-0.085
-0.085
-0.085
-0.075
-0.075
-0.105
-0.09
-0.075
-0.1
-0.095
-0.11
-0.125
-0.11
-0.12
-0.095
-0.06
-0.03
0.035
0.045
0.02
-0.035
-0.05
-0.085
-0.11
-0.14
-0.17
-0.12
-0.26
-0.305
0.445
1.705
1.2
-0.035
-0.44
-0.355
-0.205
-0.095
-0.095
-0.1
-0.085
-0.095
-0.085
-0.07
-0.075
-0.05
-0.065
-0.035
-0.035
-0.03
0.01
0.02
0.035
0.07
0.105
0.135
0.16
0.235
0.27
0.32
0.38
0.375
0.32
0.29
0.195
0.115
0.04
0.01
-0.03
-0.055
-0.055
-0.04
-0.06
-0.045
-0.03
-0.03
-0.025
-0.02
-0.045
-0.03
-0.025
-0.03
-0.035
-0.05
-0.045
-0.01
-0.045
-0.045
-0.06
-0.05
-0.07
-0.045
-0.055
-0.06
-0.06
-0.06
-0.065
-0.07
-0.085
-0.085
-0.09
-0.085
-0.09
-0.085
-0.1
-0.095
-0.095
-0.075
-0.11
-0.095
-0.12
-0.1
-0.085
-0.02
0.055
0.055
0.02
-0.02
-0.04
-0.08
-0.155
-0.13
-0.145
-0.14
-0.2
-0.285
0.315
1.455
1.32
0.08
-0.43
-0.33
-0.195
-0.1
-0.12
-0.095
-0.1
-0.09
-0.095
-0.085
-0.095
-0.07
-0.06
-0.05
-0.04
-0.02
-0.01
0.005
0.03
0.07
0.095
0.135
0.175
0.23
0.275
0.32
0.37
0.4
0.355
0.29
0.2
0.12
0.045
0.0
-0.035
-0.04
-0.06
-0.04
-0.03
-0.025
-0.045
-0.025
-0.025
-0.01
-0.025
-0.015
-0.005
0.0
-0.01
-0.01
-0.02
-0.015
-0.025
-0.02
-0.02
-0.015
-0.03
-0.02
-0.03
-0.035
-0.025
-0.03
-0.035
-0.03
-0.04
-0.03
-0.045
-0.045
-0.05
-0.04
-0.055
-0.045
-0.065
-0.05
-0.065
-0.06
-0.08
-0.065
-0.085
-0.075
-0.075
-0.07
-0.08
-0.085
-0.09
-0.085
-0.09
-0.085
-0.095
-0.095
-0.105
-0.08
-0.095
-0.105
-0.12
-0.11
-0.09
-0.05
0.01
0.075
0.015
-0.02
-0.055
-0.055
-0.12
-0.14
-0.145
-0.14
-0.155
-0.26
-0.025
0.95
1.58
0.555
-0.42
-0.335
-0.175
-0.095
-0.105
-0.095
-0.09
-0.095
-0.105
-0.085
-0.09
-0.065
-0.08
-0.06
-0.045
-0.04
-0.02
0.0
0.01
0.04
0.055
0.1
0.145
0.18
0.215
0.285
0.34
0.365
0.385
0.34
0.25
0.18
0.09
0.03
0.0
-0.015
-0.045
-0.035
-0.045
-0.035
-0.035
-0.02
-0.035
-0.015
-0.035
-0.025
-0.02
-0.045
-0.035
-0.03
-0.045
-0.03
-0.045
-0.04
-0.04
-0.03
-0.045
-0.04
-0.055
-0.055
-0.045
-0.05
-0.045
-0.065
-0.075
-0.085
-0.06
-0.055
-0.08
-0.055
-0.09
-0.09
-0.065
-0.07
-0.085
-0.09
-0.065
-0.065
-0.11
-0.08
-0.095
-0.085
-0.105
-0.09
-0.11
-0.085
-0.115
-0.115
-0.13
-0.06
-0.015
0.075
0.03
0.015
-0.02
-0.04
-0.095
-0.15
-0.13
-0.135
-0.155
-0.27
-0.295
0.545
1.78
1.085
-0.155
-0.435
-0.34
-0.17
-0.11
-0.07
-0.085
-0.075
-0.09
-0.08
-0.07
-0.07
-0.05
-0.045
-0.065
-0.005
-0.02
0.005
0.025
0.045
0.075
0.1
0.135
0.19
0.21
0.285
0.31
0.355
0.38
0.34
0.295
0.21
0.11
0.03
-0.005
-0.045
-0.035
-0.025
-0.08
-0.05
-0.06
-0.05
-0.04
-0.055
-0.05
-0.03
-0.045
-0.05
-0.045
-0.05
-0.05
-0.07
-0.075
-0.06
-0.065
-0.065
-0.09
-0.065
-0.07
-0.095
-0.075
-0.085
-0.08
-0.075
-0.105
-0.1
-0.11
-0.115
-0.115
-0.105
-0.115
-0.11
-0.11
-0.135
-0.13
-0.075
-0.005
0.055
0.035
0.015
-0.025
-0.04
-0.1
-0.135
-0.155
-0.155
-0.16
-0.225
-0.305
0.385
1.565
1.28
0.025
-0.435
-0.35
-0.195
-0.105
-0.095
-0.095
-0.085
-0.09
-0.08
-0.07
-0.06
-0.055
-0.06
-0.045
-0.025
-0.015
0.0
0.035
0.05
0.075
0.125
0.155
0.205
0.235
0.29
0.345
0.39
0.405
0.35
0.275
0.19
0.1
0.04
-0.015
-0.03
-0.05
-0.045
-0.05
-0.035
-0.04
-0.04
-0.035
-0.035
-0.025
-0.01
-0.02
-0.02
-0.025
-0.03
-0.025
-0.035
-0.035
-0.03
-0.04
-0.05
-0.06
-0.065
-0.065
-0.065
-0.065
-0.075
-0.075
-0.075
-0.07
-0.065
-0.075
-0.075
-0.085
-0.08
-0.08
-0.09
-0.08
-0.085
-0.08
-0.09
-0.095
-0.095
-0.095
-0.095
-0.07
-0.015
0.04
0.085
0.03
-0.015
-0.035
-0.05
-0.115
-0.12
-0.13
-0.13
-0.145
-0.25
-0.125
0.83
1.695
0.725
-0.415
-0.355
-0.205
-0.09
-0.105
-0.085
-0.085
-0.09
-0.08
-0.085
-0.075
-0.075
-0.06
-0.06
-0.05
-0.025
-0.01
0.0
0.02
0.055
0.08
0.115
0.16
0.2
0.25
0.3
0.33
0.38
0.38
0.315
0.24
0.15
0.065
0.01
-0.02
-0.04
-0.05
-0.06
-0.045
-0.05
-0.035
-0.03
-0.045
-0.035
-0.02
-0.025
-0.02
-0.025
-0.015
-0.015
-0.035
-0.035
-0.04
-0.03
-0.025
-0.04
-0.04
-0.04
-0.045
-0.045
-0.055
-0.045
-0.04
-0.035
-0.07
-0.06
-0.055
-0.05
-0.075
-0.065
-0.065
-0.07
-0.065
-0.065
-0.075
-0.085
-0.07
-0.09
-0.07
-0.075
-0.09
-0.095
-0.09
-0.085
-0.095
-0.105
-0.085
-0.09
-0.11
-0.1
-0.065
-0.01
0.06
0.055
0.015
-0.03
-0.035
-0.095
-0.12
-0.135
-0.15
-0.145
-0.25
-0.295
0.47
1.695
1.165
-0.105
-0.425
-0.335
-0.16
-0.11
-0.12
-0.085
-0.085
-0.11
-0.085
-0.08
-0.09
-0.065
-0.07
-0.055
-0.04
-0.04
-0.015
-0.005
0.03
0.05
0.065
0.125
0.17
0.18
0.26
0.31
0.34
0.335
0.345
0.27
0.195
0.12
0.04
-0.015
-0.035
-0.035
-0.05
-0.07
-0.07
-0.04
-0.055
-0.045
-0.035
-0.025
-0.06
-0.035
-0.03
-0.04
-0.035
-0.045
-0.055
-0.035
-0.04
-0.07
-0.04
-0.06
-0.065
-0.065
-0.065
-0.09
-0.07
-0.08
-0.085
-0.085
-0.065
-0.08
-0.11
-0.085
-0.075
-0.1
-0.105
-0.085
-0.125
-0.115
-0.115
-0.085
-0.09
-0.11
-0.125
-0.115
-0.09
-0.03
0.055
0.04
0.035
-0.02
-0.035
-0.075
-0.13
-0.125
-0.13
-0.15
-0.19
-0.295
0.22
1.41
1.495
0.235
-0.415
-0.35
-0.215
-0.09
-0.085
-0.075
-0.075
-0.07
-0.06
-0.06
-0.045
-0.045
-0.03
-0.035
-0.02
-0.015
0.005
0.015
0.04
0.065
0.1
0.125
0.175
0.215
0.26
0.32
0.355
0.365
0.335
0.27
0.185
0.125
0.045
0.0
-0.035
-0.06
-0.05
-0.065
-0.055
-0.065
-0.04
-0.045
-0.03
-0.025
-0.03
-0.025
-0.025
-0.025
-0.02
-0.04
-0.03
-0.03
-0.04
-0.05
-0.05
-0.05
-0.045
-0.05
-0.055
-0.065
-0.065
-0.06
-0.08
-0.08
-0.075
-0.075
-0.075
-0.075
-0.07
-0.08
-0.085
-0.075
-0.08
-0.09
-0.095
-0.1
-0.1
-0.09
-0.105
-0.1
-0.065
-0.005
0.07
0.055
0.02
-0.025
-0.045
-0.08
-0.125
-0.14
-0.135
-0.145
-0.21
-0.27
0.31
1.43
1.32
0.06
-0.4
-0.315
-0.16
-0.095
-0.1
-0.09
-0.09
-0.09
-0.09
-0.085
-0.08
-0.08
-0.055
-0.055
-0.045
-0.025
-0.005
0.01
0.03
0.06
0.1
0.13
0.17
0.23
0.28
0.32
0.355
0.37
0.355
0.275
0.195
0.11
0.04
-0.005
-0.025
-0.05
-0.04
-0.04
-0.04
-0.045
-0.04
-0.03
-0.025
-0.025
-0.03
-0.025
-0.015
-0.015
-0.015
-0.03
-0.025
-0.035
-0.035
-0.04
-0.04
-0.03
-0.035
-0.06
-0.05
-0.045
-0.045
-0.045
-0.045
-0.055
-0.045
-0.065
-0.05
-0.05
-0.06
-0.075
-0.05
-0.06
-0.08
-0.09
-0.065
-0.065
-0.075
-0.085
-0.085
-0.09
-0.085
-0.09
-0.095
-0.115
-0.1
-0.09
-0.11
-0.08
-0.045
0.0
0.065
0.01
-0.005
-0.035
-0.045
-0.095
-0.13
-0.16
-0.14
-0.145
-0.275
-0.24
0.695
1.805
0.94
-0.33
-0.385
-0.29
-0.12
-0.11
-0.1
-0.095
-0.085
-0.08
-0.075
-0.09
-0.085
-0.055
-0.065
-0.045
-0.03
-0.025
0.0
0.025
0.045
0.075
0.1
0.125
0.18
0.245
0.28
0.32
0.365
0.35
0.33
0.265
0.17
0.09
0.04
-0.03
-0.06
-0.06
-0.045
-0.065
-0.05
-0.045
-0.045
-0.05
-0.04
-0.05
-0.025
-0.03
-0.03
-0.04
-0.035
-0.07
-0.045
-0.045
-0.045
-0.07
-0.045
-0.05
-0.07
-0.065
-0.05
-0.065
-0.065
-0.09
-0.095
-0.07
-0.09
-0.07
-0.065
-0.1
-0.095
-0.095
-0.085
-0.09
-0.085
-0.095
-0.1
-0.095
-0.1
-0.13
-0.08
-0.05
0.045
0.035
0.045
0.0
-0.025
-0.085
-0.16
-0.15
-0.14
-0.12
-0.2
-0.335
0.135
1.285
1.54
0.315
-0.405
-0.365
-0.245
-0.09
-0.095
-0.105
-0.095
-0.09
-0.08
-0.08
-0.065
-0.06
-0.065
-0.045
-0.025
-0.015
0.005
0.0
0.035
0.07
0.09
0.105
0.18
0.225
0.27
0.315
0.375
0.395
0.34
0.285
0.205
0.105
0.05
0.0
-0.025
-0.04
-0.04
-0.055
-0.05
-0.06
-0.045
-0.035
-0.045
-0.04
-0.02
-0.03
-0.025
-0.03
-0.025
-0.03
-0.03
-0.04
-0.035
-0.05
-0.055
-0.06
-0.05
-0.07
-0.065
-0.08
-0.065
-0.07
-0.08
-0.09
-0.08
-0.085
-0.06
-0.09
-0.105
-0.095
-0.105
-0.105
-0.105
-0.11
-0.1
-0.115
-0.12
-0.12
-0.12
-0.115
-0.065
0.0
0.06
0.065
0.03
-0.015
-0.025
-0.075
-0.125
-0.135
-0.13
-0.14
-0.2
-0.27
0.305
1.42
1.34
0.07
-0.395
-0.32
-0.155
-0.095
-0.1
-0.095
-0.09
-0.095
-0.09
-0.095
-0.08
-0.08
-0.065
-0.065
-0.04
-0.03
-0.01
0.0
0.03
0.06
0.09
0.13
0.18
0.215
0.27
0.32
0.37
0.385
0.36
0.28
0.2
0.105
0.05
0.0
-0.025
-0.03
-0.035
-0.05
-0.035
-0.035
-0.035
-0.03
-0.02
-0.02
-0.01
-0.01
-0.02
-0.025
-0.015
-0.02
-0.025
-0.025
-0.02
-0.025
-0.02
-0.035
-0.03
-0.045
-0.04
-0.045
-0.045
-0.05
-0.035
-0.05
-0.045
-0.055
-0.055
-0.065
-0.06
-0.065
-0.065
-0.075
-0.055
-0.075
-0.07
-0.085
-0.08
-0.085
-0.065
-0.09
-0.095
-0.095
-0.085
-0.095
-0.095
-0.105
-0.095
-0.07
-0.025
0.05
0.08
0.035
0.0
-0.03
-0.045
-0.12
-0.12
-0.12
-0.135
-0.145
-0.27
0.06
1.145
1.53
0.425
-0.425
-0.33
-0.185
-0.07
-0.08
-0.095
-0.08
-0.065
-0.065
-0.075
-0.09
-0.055
-0.04
-0.035
-0.055
-0.005
-0.01
0.015
0.04
0.065
0.1
0.12
0.155
0.22
0.255
0.315
0.365
0.395
0.385
0.33
0.225
0.175
0.09
0.025
-0.02
-0.04
-0.05
-0.045
-0.05
-0.03
-0.025
-0.02
-0.045
-0.03
-0.015
-0.005
-0.025
-0.02
-0.03
-0.04
-0.035
-0.02
-0.03
-0.04
-0.025
-0.05
-0.075
-0.025
-0.045
-0.065
-0.05
-0.055
-0.07
-0.06
-0.07
-0.05
-0.075
-0.07
-0.08
-0.065
-0.09
-0.08
-0.1
-0.1
-0.09
-0.085
-0.095
-0.105
-0.075
-0.03
0.035
0.07
0.045
0.005
-0.025
-0.05
-0.12
-0.125
-0.135
-0.135
-0.145
-0.315
-0.11
0.965
1.785
0.665
-0.38
-0.375
-0.29
-0.09
-0.105
-0.09
-0.095
-0.08
-0.08
-0.065
-0.065
-0.05
-0.06
-0.04
-0.04
-0.02
0.0
0.015
0.045
0.07
0.075
0.12
0.155
0.215
0.255
0.31
0.35
0.375
0.37
0.31
0.215
0.12
0.06
0.005
-0.02
-0.03
-0.06
-0.04
-0.06
-0.045
-0.04
-0.04
-0.03
-0.035
-0.025
-0.015
-0.04
-0.025
-0.035
-0.035
-0.04
-0.04
-0.035
-0.04
-0.045
-0.05
-0.06
-0.055
-0.06
-0.055
-0.065
-0.07
-0.07
-0.06
-0.065
-0.07
-0.08
-0.08
-0.08
-0.07
-0.085
-0.09
-0.085
-0.095
-0.09
-0.085
-0.09
-0.1
-0.1
-0.095
-0.11
-0.115
-0.105
-0.055
0.0
0.07
0.05
0.01
-0.03
-0.035
-0.08
-0.13
-0.135
-0.135
-0.14
-0.22
-0.265
0.405
1.535
1.185
-0.11
-0.39
-0.29
-0.125
-0.09
-0.09
-0.09
-0.085
-0.1
-0.09
-0.08
-0.08
-0.08
-0.065
-0.06
-0.045
-0.025
-0.005
0.01
0.03
0.07
0.1
0.135
0.18
0.215
0.275
0.32
0.355
0.375
0.35
0.285
0.185
0.095
0.04
-0.01
-0.03
-0.05
-0.05
-0.05
-0.05
-0.04
-0.045
-0.035
-0.02
-0.03
-0.035
-0.03
-0.03
-0.035
-0.035
-0.04
-0.025
-0.025
-0.035
-0.04
-0.05
-0.055
-0.035
-0.045
-0.055
-0.05
-0.05
-0.055
-0.055
-0.05
-0.045
-0.065
-0.06
-0.06
-0.055
-0.065
-0.085
-0.09
-0.08
-0.085
-0.08
-0.09
-0.09
-0.105
-0.08
-0.085
-0.105
-0.1
-0.1
-0.12
-0.12
-0.11
-0.125
-0.125
-0.07
-0.025
0.045
0.04
0.015
-0.04
-0.06
-0.115
-0.135
-0.14
-0.145
-0.17
-0.275
-0.305
0.5
1.71
1.115
-0.16
-0.42
-0.34
-0.16
-0.115
-0.11
-0.1
-0.075
-0.09
-0.105
-0.085
-0.09
-0.08
-0.05
-0.055
-0.055
-0.03
-0.005
0.01
0.02
0.05
0.09
0.125
0.16
0.205
0.27
0.32
0.355
0.365
0.34
0.265
0.175
0.11
0.045
-0.005
-0.04
-0.055
-0.065
-0.055
-0.055
-0.055
-0.05
-0.035
-0.04
-0.03
-0.03
-0.03
-0.035
-0.035
-0.045
-0.06
-0.025
-0.035
-0.045
-0.075
-0.055
-0.055
-0.07
-0.085
-0.065
-0.07
-0.075
-0.09
-0.08
-0.09
-0.09
-0.095
-0.085
-0.09
-0.105
-0.105
-0.115
-0.1
-0.095
-0.1
-0.115
-0.135
-0.12
-0.075
-0.035
0.03
0.04
0.02
-0.025
-0.04
-0.08
-0.125
-0.15
-0.155
-0.145
-0.2
-0.31
0.165
1.34
1.45
0.21
-0.43
-0.36
-0.245
-0.105
-0.1
-0.1
-0.105
-0.1
-0.095
-0.09
-0.09
-0.075
-0.07
-0.055
-0.04
-0.03
0.0
0.01
0.025
0.05
0.08
0.125
0.165
0.2
0.25
0.325
0.35
0.365
0.34
0.265
0.18
0.09
0.03
-0.015
-0.035
-0.05
-0.06
-0.06
-0.06
-0.05
-0.045
-0.05
-0.045
-0.045
-0.045
-0.045
-0.035
-0.03
-0.03
-0.045
-0.045
-0.035
-0.04
-0.06
-0.05
-0.05
-0.055
-0.065
-0.06
-0.065
-0.065
-0.06
-0.06
-0.07
-0.07
-0.065
-0.07
-0.075
-0.08
-0.085
-0.075
-0.085
-0.08
-0.08
-0.095
-0.09
-0.09
-0.085
-0.09
-0.095
-0.105
-0.08
-0.03
0.03
0.08
0.04
0.0
-0.02
-0.04
-0.105
-0.13
-0.13
-0.135
-0.14
-0.26
-0.155
0.78
1.72
0.775
-0.41
-0.36
-0.215
-0.095
-0.09
-0.09
-0.09
-0.1
-0.09
-0.085
-0.08
-0.085
-0.08
-0.06
-0.04
-0.03
-0.03
-0.01
0.025
0.06
0.075
0.105
0.145
0.195
0.24
0.29
0.35
0.38
0.375
0.325
0.225
0.145
0.07
0.025
-0.015
-0.045
-0.045
-0.04
-0.045
-0.03
-0.02
-0.03
-0.03
-0.025
-0.03
-0.005
-0.015
-0.01
-0.005
-0.005
-0.03
-0.04
-0.035
-0.025
-0.035
-0.04
-0.04
-0.04
-0.04
-0.045
-0.035
-0.045
-0.05
-0.055
-0.06
-0.045
-0.045
-0.07
-0.05
-0.055
-0.07
-0.055
-0.07
-0.07
-0.085
-0.09
-0.085
-0.09
-0.09
-0.09
-0.09
-0.09
-0.105
-0.095
-0.105
-0.09
-0.105
-0.135
-0.12
-0.06
0.0
0.06
0.015
0.0
-0.045
-0.06
-0.105
-0.135
-0.16
-0.155
-0.155
-0.285
-0.295
0.605
1.795
0.97
-0.29
-0.435
-0.33
-0.155
-0.115
-0.1
-0.105
-0.095
-0.09
-0.095
-0.09
-0.08
-0.09
-0.08
-0.06
-0.06
-0.04
-0.005
0.015
0.035
0.04
0.07
0.115
0.17
0.23
0.26
0.31
0.325
0.37
0.315
0.235
0.185
0.065
0.025
-0.025
-0.03
-0.055
-0.07
-0.07
-0.055
-0.065
-0.045
-0.045
-0.025
-0.015
-0.015
-0.045
-0.035
-0.035
-0.035
-0.035
-0.015
-0.04
-0.035
-0.045
-0.045
-0.045
-0.05
-0.06
-0.06
-0.06
-0.075
-0.075
-0.075
-0.05
-0.08
-0.11
-0.085
-0.08
-0.08
-0.09
-0.09
-0.1
-0.09
-0.1
-0.1
-0.11
-0.1
-0.12
-0.125
-0.105
-0.07
-0.015
0.045
0.04
0.03
-0.005
-0.055
-0.1
-0.135
-0.13
-0.15
-0.16
-0.24
-0.315
0.46
1.665
1.225
-0.07
-0.43
-0.385
-0.19
-0.095
-0.115
-0.105
-0.085
-0.105
-0.1
-0.08
-0.085
-0.075
-0.07
-0.055
-0.04
-0.03
0.0
0.01
0.04
0.06
0.1
0.13
0.195
0.225
0.285
0.32
0.36
0.375
0.335
0.255
0.165
0.1
0.045
-0.015
-0.025
-0.045
-0.06
-0.045
-0.045
-0.04
-0.035
-0.05
-0.005
-0.025
-0.01
-0.03
-0.025
-0.025
-0.02
-0.025
-0.025
-0.025
-0.035
-0.045
-0.045
-0.05
-0.04
-0.06
-0.06
-0.065
-0.06
-0.055
-0.06
-0.065
-0.075
-0.075
-0.07
-0.075
-0.075
-0.085
-0.08
-0.085
-0.09
-0.1
-0.085
-0.095
-0.085
-0.085
-0.105
-0.115
-0.095
-0.1
-0.11
-0.105
-0.07
-0.015
0.055
0.05
0.02
-0.03
-0.04
-0.085
-0.135
-0.14
-0.135
-0.145
-0.2
-0.27
0.375
1.505
1.2
-0.055
-0.4
-0.285
-0.125
-0.095
-0.095
-0.095
-0.095
-0.095
-0.09
-0.08
-0.08
-0.08
-0.06
-0.055
-0.045
-0.03
-0.005
0.005
0.025
0.06
0.095
0.125
0.175
0.225
0.285
0.325
0.37
0.375
0.36
0.28
0.195
0.115
0.04
-0.005
-0.02
-0.035
-0.045
-0.04
-0.035
-0.035
-0.02
-0.03
-0.025
-0.02
-0.005
-0.01
-0.015
-0.025
-0.01
-0.025
-0.015
-0.03
-0.01
-0.025
-0.03
-0.045
-0.045
-0.045
-0.045
-0.04
-0.03
-0.055
-0.055
-0.07
-0.065
-0.065
-0.06
-0.045
-0.03
-0.08
-0.065
-0.08
-0.06
-0.075
-0.06
-0.07
-0.08
-0.075
-0.06
-0.075
-0.08
-0.09
-0.085
-0.09
-0.08
-0.08
-0.1
-0.105
-0.075
-0.115
-0.095
-0.115
-0.105
-0.11
-0.095
-0.035
0.06
0.055
0.035
-0.035
-0.04
-0.095
-0.125
-0.135
-0.13
-0.145
-0.25
-0.305
0.41
1.63
1.21
-0.035
-0.43
-0.355
-0.17
-0.11
-0.11
-0.11
-0.095
-0.09
-0.095
-0.1
-0.07
-0.09
-0.06
-0.055
-0.035
-0.025
-0.025
0.0
0.04
0.07
0.105
0.115
0.165
0.225
0.27
0.29
0.35
0.365
0.355
0.265
0.21
0.145
0.075
0.0
-0.005
-0.035
-0.04
-0.055
-0.04
-0.05
-0.015
-0.025
-0.025
-0.025
-0.025
-0.02
-0.015
-0.02
0.0
-0.035
-0.04
-0.035
-0.025
-0.035
-0.04
-0.03
-0.03
-0.065
-0.06
-0.065
-0.075
-0.055
-0.05
-0.065
-0.065
-0.085
-0.07
-0.08
-0.06
-0.07
-0.075
-0.105
-0.09
-0.105
-0.085
-0.095
-0.095
-0.11
-0.1
-0.11
-0.095
-0.105
-0.14
-0.115
-0.06
0.005
0.055
0.035
0.0
-0.035
-0.065
-0.125
-0.115
-0.145
-0.135
-0.145
-0.31
-0.125
0.97
1.805
0.705
-0.37
-0.37
-0.295
-0.115
-0.11
-0.09
-0.08
-0.07
-0.085
-0.065
-0.075
-0.055
-0.06
-0.025
-0.04
-0.025
0.0
0.025
0.05
0.05
0.09
0.125
0.16
0.22
0.25
0.325
0.36
0.375
0.37
0.33
0.25
0.14
0.045
0.005
-0.005
-0.03
-0.05
-0.045
-0.055
-0.035
-0.045
-0.045
-0.04
-0.02
-0.02
-0.02
-0.035
-0.025
-0.025
-0.02
-0.025
-0.025
-0.04
-0.03
-0.045
-0.04
-0.045
-0.055
-0.065
-0.055
-0.05
-0.06
-0.065
-0.06
-0.055
-0.06
-0.085
-0.08
-0.085
-0.065
-0.09
-0.07
-0.09
-0.09
-0.1
-0.09
-0.1
-0.095
-0.12
-0.075
-0.045
0.02
0.075
0.045
0.0
-0.03
-0.05
-0.095
-0.125
-0.125
-0.145
-0.125
-0.245
-0.205
0.68
1.775
0.915
-0.355
-0.38
-0.245
-0.105
-0.085
-0.095
-0.09
-0.1
-0.08
-0.09
-0.075
-0.08
-0.06
-0.05
-0.045
-0.025
-0.005
0.0
0.02
0.04
0.085
0.115
0.16
0.195
0.265
0.315
0.36
0.39
0.39
0.33
0.26
0.155
0.08
0.02
-0.015
-0.04
-0.04
-0.045
-0.035
-0.045
-0.035
-0.04
-0.03
-0.025
-0.015
-0.025
-0.015
-0.03
-0.02
-0.035
-0.02
-0.03
-0.025
-0.035
-0.035
-0.035
-0.035
-0.04
-0.035
-0.045
-0.045
-0.055
-0.05
-0.055
-0.06
-0.055
-0.06
-0.06
-0.055
-0.07
-0.06
-0.08
-0.07
-0.07
-0.07
-0.09
-0.09
-0.11
-0.095
-0.095
-0.065
-0.095
-0.11
-0.11
-0.095
-0.125
-0.12
-0.11
-0.105
-0.12
-0.115
-0.075
0.005
0.045
0.03
-0.02
-0.05
-0.055
-0.11
-0.145
-0.15
-0.15
-0.15
-0.3
-0.2
0.755
1.775
0.825
-0.37
-0.4
-0.295
-0.115
-0.095
-0.105
-0.105
-0.08
-0.075
-0.115
-0.08
-0.09
-0.065
-0.07
-0.06
-0.04
-0.025
-0.01
0.02
0.04
0.075
0.09
0.14
0.17
0.215
0.28
0.355
0.355
0.36
0.34
0.25
0.17
0.085
0.015
0.0
-0.05
-0.045
-0.075
-0.055
-0.05
-0.05
-0.065
-0.025
-0.06
-0.03
-0.025
-0.03
-0.025
-0.055
-0.04
-0.03
-0.045
-0.025
-0.06
-0.055
-0.05
-0.065
-0.065
-0.055
-0.055
-0.07
-0.06
-0.07
-0.085
-0.08
-0.085
-0.07
-0.085
-0.08
-0.105
-0.085
-0.08
-0.075
-0.09
-0.12
-0.075
-0.11
-0.095
-0.11
-0.105
-0.125
-0.145
-0.095
-0.05
0.02
0.045
0.035
-0.02
-0.065
-0.085
-0.135
-0.14
-0.13
-0.16
-0.215
-0.325
0.115
1.27
1.56
0.34
-0.415
-0.385
-0.25
-0.11
-0.12
-0.095
-0.1
-0.09
-0.065
-0.095
-0.085
-0.085
-0.045
-0.055
-0.045
-0.03
-0.015
0.005
0.05
0.07
0.075
0.135
0.16
0.22
0.265
0.305
0.355
0.36
0.33
0.295
0.185
0.095
0.035
-0.03
-0.04
-0.075
-0.07
-0.07
-0.08
-0.075
-0.065
-0.035
-0.05
-0.07
-0.05
-0.04
-0.045
-0.04
-0.035
-0.05
-0.04
-0.05
-0.05
-0.07
-0.05
-0.06
-0.08
-0.09
-0.05
-0.07
-0.09
-0.08
-0.075
-0.075
-0.1
-0.09
-0.1
-0.1
-0.105
-0.08
-0.11
-0.115
-0.08
-0.055
0.025
0.09
0.03
-0.01
-0.05
-0.065
-0.11
-0.155
-0.125
-0.135
-0.17
-0.315
-0.09
0.98
1.86
0.7
-0.385
-0.37
-0.295
-0.105
-0.08
-0.09
-0.1
-0.08
-0.095
-0.07
-0.07
-0.075
-0.045
-0.05
-0.035
-0.01
-0.015
0.015
0.03
0.055
0.095
0.12
0.185
0.235
0.29
0.335
0.385
0.39
0.355
0.3
0.2
0.105
0.03
-0.02
-0.045
-0.06
-0.05
-0.065
-0.065
-0.055
-0.055
-0.05
-0.06
-0.045
-0.02
-0.03
-0.035
-0.04
-0.035
-0.03
-0.02
-0.05
-0.04
-0.05
-0.065
-0.05
-0.05
-0.055
-0.07
-0.06
-0.065
-0.075
-0.075
-0.07
-0.075
-0.08
-0.09
-0.09
-0.08
-0.09
-0.095
-0.09
-0.095
-0.095
-0.105
-0.1
-0.085
-0.105
-0.1
-0.075
-0.015
0.075
0.065
0.02
-0.025
-0.04
-0.075
-0.135
-0.13
-0.14
-0.14
-0.21
-0.26
0.335
1.485
1.3
0.02
-0.395
-0.305
-0.13
-0.09
-0.105
-0.09
-0.085
-0.08
-0.08
-0.08
-0.08
-0.065
-0.075
-0.055
-0.045
-0.02
-0.015
0.01
0.035
0.06
0.095
0.135
0.195
0.235
0.28
0.335
0.375
0.38
0.345
0.26
0.175
0.1
0.035
-0.005
-0.04
-0.045
-0.05
-0.045
-0.035
-0.035
-0.045
-0.03
-0.03
-0.02
-0.025
-0.01
-0.015
-0.025
-0.015
-0.025
-0.02
-0.02
-0.015
-0.02
-0.015
-0.02
-0.025
-0.035
-0.03
-0.03
-0.03
-0.04
-0.035
-0.04
-0.04
-0.045
-0.05
-0.04
-0.045
-0.05
-0.045
-0.06
-0.05
-0.06
-0.055
-0.06
-0.07
-0.075
-0.07
-0.065
-0.07
-0.08
-0.08
-0.085
-0.07
-0.085
-0.075
-0.075
-0.09
-0.095
-0.1
-0.1
-0.095
-0.115
-0.1
-0.075
-0.005
0.065
0.04
0.0
-0.03
-0.05
-0.085
-0.12
-0.13
-0.135
-0.13
-0.27
-0.28
0.58
1.74
1.045
-0.29
-0.38
-0.29
-0.125
-0.09
-0.115
-0.105
-0.09
-0.07
-0.095
-0.09
-0.08
-0.075
-0.07
-0.065
-0.06
-0.015
-0.015
0.02
0.03
0.05
0.075
0.13
0.17
0.235
0.28
0.325
0.355
0.385
0.35
0.275
0.185
0.12
0.055
0.015
-0.035
-0.05
-0.035
-0.045
-0.03
-0.04
-0.02
-0.02
-0.03
-0.015
-0.025
-0.01
-0.015
-0.015
-0.01
-0.015
-0.025
-0.035
-0.035
-0.025
-0.01
-0.03
-0.04
-0.05
-0.055
-0.035
-0.045
-0.04
-0.055
-0.05
-0.06
-0.065
-0.055
-0.065
-0.075
-0.075
-0.065
-0.07
-0.08
-0.075
-0.085
-0.095
-0.08
-0.075
-0.08
-0.08
-0.095
-0.105
-0.095
-0.11
-0.1
-0.11
-0.105
-0.095
-0.03
0.04
0.04
0.035
-0.03
-0.025
-0.055
-0.135
-0.165
-0.125
-0.135
-0.225
-0.325
0.415
1.64
1.285
-0.015
-0.425
-0.375
-0.21
-0.09
-0.09
-0.1
-0.08
-0.105
-0.08
-0.075
-0.065
-0.06
-0.055
-0.04
-0.03
0.0
-0.005
0.035
0.035
0.065
0.095
0.16
0.18
0.225
0.3
0.31
0.37
0.365
0.36
0.3
0.21
0.115
0.045
0.0
-0.035
-0.03
-0.045
-0.07
-0.015
-0.05
-0.045
-0.035
-0.025
-0.02
-0.02
-0.015
-0.03
-0.02
-0.025
-0.04
-0.03
-0.025
-0.035
-0.035
-0.035
-0.045
-0.04
-0.06
-0.06
-0.05
-0.06
-0.06
-0.065
-0.08
-0.065
-0.075
-0.065
-0.075
-0.095
-0.075
-0.06
-0.075
-0.07
-0.09
-0.085
-0.085
-0.09
-0.095
-0.1
-0.09
-0.095
-0.09
-0.08
-0.02
0.055
0.055
0.03
-0.015
-0.015
-0.075
-0.14
-0.13
-0.125
-0.13
-0.21
-0.275
0.375
1.52
1.32
0.015
-0.39
-0.325
-0.165
-0.085
-0.09
-0.09
-0.095
-0.09
-0.08
-0.08
-0.065
-0.06
-0.055
-0.05
-0.035
-0.015
-0.005
0.005
0.035
0.06
0.09
0.14
0.18
0.235
0.295
0.33
0.37
0.39
0.365
0.285
0.2
0.12
0.055
-0.01
-0.025
-0.04
-0.025
-0.03
-0.04
-0.04
-0.04
-0.04
-0.02
-0.02
-0.01
-0.015
-0.015
-0.025
-0.025
-0.03
-0.015
-0.03
-0.04
-0.025
-0.02
-0.04
-0.045
-0.05
-0.05
-0.055
-0.05
-0.06
-0.05
-0.07
-0.065
-0.065
-0.055
-0.07
-0.065
-0.08
-0.075
-0.075
-0.065
-0.09
-0.085
-0.09
-0.08
-0.095
-0.09
-0.1
-0.095
-0.1
-0.11
-0.11
-0.105
-0.085
-0.025
0.045
0.075
0.02
-0.025
-0.045
-0.07
-0.135
-0.135
-0.145
-0.14
-0.195
-0.27
0.12
1.16
1.415
0.285
-0.425
-0.315
-0.16
-0.1
-0.105
-0.1
-0.095
-0.095
-0.105
-0.09
-0.09
-0.085
-0.09
-0.065
-0.055
-0.035
-0.025
0.0
0.015
0.055
0.065
0.105
0.155
0.195
0.24
0.31
0.35
0.365
0.35
0.3
0.21
0.14
0.055
0.0
-0.035
-0.045
-0.055
-0.05
-0.05
-0.04
-0.035
-0.015
-0.025
-0.025
-0.02
-0.015
-0.02
-0.015
-0.02
-0.025
-0.025
-0.015
-0.03
-0.02
-0.035
-0.015
-0.03
-0.035
-0.03
-0.035
-0.05
-0.035
-0.04
-0.04
-0.045
-0.04
-0.045
-0.035
-0.04
-0.04
-0.045
-0.045
-0.055
-0.055
-0.055
-0.045
-0.055
-0.055
-0.065
-0.065
-0.075
-0.065
-0.07
-0.08
-0.08
-0.08
-0.08
-0.08
-0.085
-0.08
-0.095
-0.085
-0.1
-0.11
-0.09
-0.05
0.015
0.085
0.045
0.01
-0.035
-0.045
-0.11
-0.14
-0.145
-0.14
-0.15
-0.26
-0.11
0.875
1.635
0.63
-0.45
-0.365
-0.245
-0.1
-0.095
-0.105
-0.1
-0.095
-0.09
-0.09
-0.09
-0.085
-0.075
-0.065
-0.055
-0.035
-0.03
0.0
0.01
0.025
0.065
0.1
0.145
0.175
0.225
0.28
0.315
0.355
0.365
0.33
0.245
0.18
0.1
0.035
-0.015
-0.045
-0.05
-0.025
-0.04
-0.035
-0.05
-0.025
-0.04
-0.015
-0.02
-0.03
-0.035
-0.02
-0.015
-0.015
-0.05
-0.03
-0.025
-0.04
-0.05
-0.04
-0.04
-0.045
-0.06
-0.05
-0.055
-0.05
-0.055
-0.055
-0.055
-0.045
-0.065
-0.06
-0.075
-0.075
-0.07
-0.085
-0.075
-0.07
-0.08
-0.075
-0.07
-0.075
-0.075
-0.095
-0.095
-0.075
-0.09
-0.095
-0.105
-0.1
-0.125
-0.085
-0.03
0.05
0.055
0.05
0.0
-0.02
-0.06
-0.115
-0.14
-0.12
-0.13
-0.165
-0.32
0.055
1.205
1.555
0.355
-0.425
-0.375
-0.25
-0.1
-0.085
-0.095
-0.085
-0.08
-0.075
-0.07
-0.075
-0.075
-0.055
-0.055
-0.035
-0.005
0.0
0.0
0.035
0.06
0.085
0.1
0.165
0.205
0.245
0.295
0.33
0.36
0.345
0.295
0.23
0.13
0.08
0.025
-0.005
-0.035
-0.035
-0.055
-0.03
-0.035
-0.035
-0.04
-0.02
-0.02
-0.015
-0.02
-0.015
-0.02
-0.015
-0.02
-0.02
-0.02
-0.02
-0.035
-0.02
-0.025
-0.03
-0.05
-0.045
-0.045
-0.045
-0.055
-0.05
-0.055
-0.055
-0.055
-0.07
-0.075
-0.065
-0.07
-0.06
-0.08
-0.08
-0.09
-0.08
-0.09
-0.08
-0.09
-0.085
-0.11
-0.1
-0.095
-0.095
-0.105
-0.1
-0.07
-0.01
0.045
0.06
0.01
-0.03
-0.04
-0.075
-0.145
-0.14
-0.15
-0.135
-0.24
-0.275
0.42
1.575
1.17
-0.11
-0.415
-0.305
-0.145
-0.11
-0.12
-0.1
-0.1
-0.08
-0.1
-0.095
-0.09
-0.07
-0.075
-0.055
-0.045
-0.025
-0.02
0.005
0.02
0.06
0.08
0.14
0.17
0.205
0.25
0.305
0.35
0.37
0.35
0.29
0.19
0.12
0.04
-0.005
-0.03
-0.035
-0.05
-0.055
-0.06
-0.045
-0.035
-0.03
-0.035
-0.035
-0.035
-0.025
-0.025
-0.03
-0.04
-0.03
-0.035
-0.03
-0.045
-0.03
-0.04
-0.04
-0.045
-0.045
-0.05
-0.045
-0.05
-0.055
-0.06
-0.045
-0.055
-0.055
-0.05
-0.045
-0.065
-0.065
-0.065
-0.06
-0.07
-0.065
-0.08
-0.085
-0.08
-0.07
-0.085
-0.085
-0.08
-0.085
-0.09
-0.08
-0.105
-0.09
-0.09
-0.105
-0.11
-0.115
-0.11
-0.135
-0.09
-0.055
0.005
0.08
0.035
0.005
-0.05
-0.055
-0.12
-0.14
-0.15
-0.13
-0.14
-0.29
-0.19
0.75
1.71
0.785
-0.4
-0.38
-0.28
-0.13
-0.105
-0.105
-0.1
-0.08
-0.1
-0.1
-0.09
-0.075
-0.075
-0.065
-0.055
-0.05
-0.035
-0.015
0.015
0.045
0.065
0.095
0.125
0.17
0.21
0.28
0.315
0.37
0.37
0.34
0.275
0.185
0.1
0.02
-0.03
-0.015
-0.03
-0.025
-0.055
-0.045
-0.035
-0.035
-0.025
-0.015
-0.02
-0.02
-0.02
-0.015
-0.02
-0.025
-0.03
-0.025
-0.035
-0.035
-0.03
-0.03
-0.045
-0.055
-0.045
-0.05
-0.055
-0.05
-0.055
-0.055
-0.06
-0.055
-0.075
-0.05
-0.065
-0.09
-0.07
-0.07
-0.08
-0.09
-0.08
-0.06
-0.1
-0.105
-0.095
-0.085
-0.11
-0.105
-0.115
-0.1
-0.105
-0.09
-0.135
-0.08
-0.05
0.045
0.06
0.04
-0.02
-0.045
-0.09
-0.135
-0.125
-0.155
-0.15
-0.235
-0.335
0.33
1.58
1.24
0.015
-0.44
-0.375
-0.21
-0.105
-0.09
-0.095
-0.085
-0.095
-0.08
-0.1
-0.075
-0.065
-0.06
-0.045
-0.02
0.0
-0.005
0.01
0.045
0.06
0.095
0.14
0.17
0.195
0.26
0.305
0.35
0.355
0.34
0.295
0.21
0.125
0.07
0.005
-0.02
-0.04
-0.05
-0.045
-0.045
-0.035
-0.02
-0.03
-0.02
-0.02
-0.01
-0.02
-0.015
-0.02
-0.02
-0.015
-0.02
-0.045
-0.025
-0.03
-0.04
-0.035
-0.025
-0.045
-0.055
-0.055
-0.055
-0.065
-0.06
-0.06
-0.065
-0.06
-0.06
-0.075
-0.075
-0.075
-0.08
-0.085
-0.09
-0.09
-0.095
-0.09
-0.105
-0.095
-0.09
-0.105
-0.1
-0.1
-0.1
-0.115
-0.085
-0.045
0.02
0.08
0.045
-0.005
-0.025
-0.055
-0.125
-0.135
-0.13
-0.14
-0.15
-0.27
-0.11
0.875
1.715
0.685
-0.42
-0.37
-0.225
-0.1
-0.095
-0.1
-0.09
-0.095
-0.09
-0.085
-0.08
-0.075
-0.06
-0.055
-0.045
-0.035
-0.005
0.005
0.02
0.05
0.08
0.11
0.15
0.195
0.25
0.295
0.34
0.37
0.365
0.315
0.24
0.155
0.085
0.03
-0.015
-0.04
-0.05
-0.045
-0.045
-0.05
-0.035
-0.03
-0.025
-0.02
-0.025
-0.02
-0.025
-0.02
-0.02
-0.015
-0.02
-0.025
-0.02
-0.04
-0.04
-0.04
-0.05
-0.05
-0.045
-0.035
-0.055
-0.065
-0.06
-0.06
-0.065
-0.055
-0.06
-0.07
-0.075
-0.065
-0.065
-0.07
-0.07
-0.075
-0.07
-0.08
-0.08
-0.085
-0.09
-0.09
-0.09
-0.085
-0.095
-0.095
-0.105
-0.115
-0.1
-0.11
-0.105
-0.075
-0.01
0.075
0.07
0.02
-0.045
-0.055
-0.07
-0.135
-0.125
-0.135
-0.15
-0.205
-0.275
0.3
1.43
1.24
0.05
-0.41
-0.325
-0.145
-0.085
-0.115
-0.11
-0.095
-0.09
-0.085
-0.09
-0.07
-0.07
-0.07
-0.065
-0.035
-0.025
-0.02
-0.005
0.015
0.055
0.07
0.105
0.165
0.2
0.25
0.31
0.355
0.36
0.34
0.29
0.24
0.14
0.07
0.005
-0.015
-0.03
-0.045
-0.04
-0.05
-0.035
-0.035
-0.035
-0.035
-0.025
-0.04
-0.01
-0.025
-0.015
-0.02
-0.035
-0.025
-0.025
-0.03
-0.02
-0.055
-0.05
-0.045
-0.04
-0.035
-0.045
-0.05
-0.065
-0.05
-0.06
-0.06
-0.07
-0.075
-0.06
-0.07
-0.07
-0.07
-0.075
-0.075
-0.075
-0.09
-0.105
-0.09
-0.08
-0.1
-0.1
-0.11
-0.105
-0.095
-0.125
-0.09
-0.035
0.05
0.07
0.055
-0.005
-0.03
-0.065
-0.12
-0.13
-0.135
-0.125
-0.165
-0.325
-0.01
1.075
1.61
0.505
-0.4
-0.365
-0.255
-0.115
-0.105
-0.09
-0.075
-0.085
-0.085
-0.085
-0.07
-0.065
-0.06
-0.055
-0.045
-0.015
0.0
0.0
0.035
0.06
0.085
0.11
0.155
0.195
0.24
0.295
0.325
0.36
0.355
0.3
0.235
0.135
0.08
0.025
-0.005
-0.03
-0.035
-0.04
-0.04
-0.03
-0.015
-0.025
-0.025
-0.025
-0.01
0.0
-0.015
-0.015
-0.03
-0.02
-0.025
-0.025
-0.025
-0.035
-0.03
-0.045
-0.045
-0.045
-0.045
-0.05
-0.05
-0.055
-0.055
-0.06
-0.045
-0.06
-0.06
-0.07
-0.065
-0.08
-0.06
-0.07
-0.07
-0.08
-0.075
-0.07
-0.075
-0.075
-0.07
-0.085
-0.085
-0.105
-0.095
-0.095
-0.105
-0.105
-0.11
-0.08
-0.035
0.03
0.07
0.025
-0.02
-0.035
-0.06
-0.125
-0.145
-0.15
-0.145
-0.16
-0.27
-0.08
0.9
1.585
0.61
-0.42
-0.345
-0.195
-0.09
-0.08
-0.09
-0.09
-0.09
-0.09
-0.09
-0.075
-0.07
-0.07
-0.06
-0.05
-0.035
-0.02
0.0
0.025
0.045
0.075
0.11
0.14
0.185
0.235
0.28
0.33
0.375
0.375
0.315
0.245
0.17
0.09
0.03
-0.01
-0.02
-0.045
-0.04
-0.045
-0.03
-0.025
-0.02
-0.03
-0.03
-0.03
-0.015
-0.01
-0.02
-0.035
-0.035
-0.03
-0.025
-0.04
-0.035
-0.03
-0.045
-0.055
-0.035
-0.045
-0.035
-0.04
-0.045
-0.07
-0.05
-0.05
-0.065
-0.055
-0.045
-0.065
-0.055
-0.06
-0.06
-0.055
-0.065
-0.08
-0.065
-0.065
-0.08
-0.085
-0.085
-0.085
-0.075
-0.095
-0.08
-0.1
-0.09
-0.085
-0.095
-0.085
-0.1
-0.125
-0.08
-0.035
0.06
0.055
0.035
-0.02
-0.025
-0.085
-0.14
-0.14
-0.125
-0.15
-0.195
-0.315
0.2
1.355
1.375
0.205
-0.45
-0.36
-0.21
-0.115
-0.1
-0.095
-0.085
-0.11
-0.08
-0.095
-0.075
-0.08
-0.07
-0.04
-0.03
-0.04
-0.03
-0.01
0.03
0.055
0.085
0.13
0.16
0.19
0.23
0.265
0.33
0.365
0.355
0.3
0.235
0.13
0.055
0.01
0.0
-0.04
-0.065
-0.045
-0.04
-0.04
-0.035
-0.035
-0.02
-0.035
-0.035
-0.03
-0.015
-0.05
-0.03
-0.06
-0.01
-0.04
-0.035
-0.05
-0.065
-0.06
-0.065
-0.055
-0.05
-0.08
-0.075
-0.08
-0.07
-0.075
-0.07
-0.075
-0.09
-0.09
-0.1
-0.095
-0.085
-0.1
-0.115
-0.105
-0.09
-0.1
-0.115
-0.105
-0.03
0.015
0.065
0.035
0.005
-0.04
-0.055
-0.145
-0.145
-0.145
-0.135
-0.165
-0.305
-0.19
0.87
1.85
0.76
-0.345
-0.39
-0.305
-0.135
-0.095
-0.09
-0.09
-0.07
-0.085
-0.065
-0.08
-0.075
-0.05
-0.03
-0.01
-0.015
-0.005
0.0
0.01
0.06
0.085
0.125
0.145
0.235
0.235
0.29
0.335
0.37
0.35
0.31
0.225
0.14
0.06
0.02
-0.025
-0.045
-0.065
-0.055
-0.05
-0.045
-0.045
-0.035
-0.025
-0.01
-0.03
-0.015
-0.025
-0.02
-0.02
-0.025
-0.025
-0.015
-0.03
-0.04
-0.04
-0.045
-0.055
-0.055
-0.045
-0.05
-0.065
-0.07
-0.07
-0.07
-0.075
-0.065
-0.075
-0.065
-0.08
-0.075
-0.095
-0.09
-0.09
-0.075
-0.105
-0.085
-0.1
-0.09
-0.13
-0.105
-0.06
0.0
0.065
0.07
0.03
-0.02
-0.055
-0.075
-0.13
-0.12
-0.135
-0.14
-0.19
-0.27
0.25
1.38
1.4
0.165
-0.405
-0.315
-0.175
-0.075
-0.085
-0.08
-0.085
-0.07
-0.085
-0.075
-0.07
-0.055
-0.06
-0.035
-0.025
0.0
0.0
0.02
0.045
0.065
0.1
0.135
0.18
0.24
0.28
0.325
0.36
0.38
0.36
0.3
0.205
0.12
0.045
0.005
-0.025
-0.03
-0.035
-0.035
-0.045
-0.03
-0.04
-0.035
-0.03
-0.025
-0.025
-0.02
-0.025
-0.015
-0.025
-0.015
-0.025
-0.02
-0.035
-0.025
-0.035
-0.03
-0.035
-0.035
-0.045
-0.035
-0.045
-0.045
-0.05
-0.05
-0.06
-0.05
-0.055
-0.05
-0.05
-0.05
-0.075
-0.055
-0.07
-0.065
-0.075
-0.065
-0.07
-0.075
-0.075
-0.075
-0.075
-0.075
-0.08
-0.08
-0.095
-0.085
-0.105
-0.09
-0.105
-0.1
-0.095
-0.095
-0.125
-0.08
-0.045
0.035
0.075
0.03
-0.015
-0.035
-0.065
-0.115
-0.14
-0.135
-0.15
-0.15
-0.275
-0.08
0.865
1.63
0.645
-0.42
-0.34
-0.19
-0.115
-0.1
-0.095
-0.1
-0.115
-0.085
-0.09
-0.085
-0.08
-0.065
-0.075
-0.045
-0.04
-0.02
-0.025
0.01
0.035
0.075
0.095
0.125
0.18
0.235
0.26
0.325
0.37
0.365
0.34
0.255
0.165
0.11
0.03
0.0
-0.04
-0.055
-0.045
-0.035
-0.055
-0.04
-0.02
-0.02
-0.04
-0.025
-0.04
-0.04
-0.035
-0.025
-0.035
-0.03
-0.04
-0.03
-0.04
-0.03
-0.03
-0.04
-0.035
-0.045
-0.06
-0.04
-0.045
-0.04
-0.045
-0.055
-0.07
-0.055
-0.06
-0.045
-0.065
-0.06
-0.08
-0.05
-0.045
-0.055
-0.06
-0.06
-0.065
-0.06
-0.075
-0.06
-0.075
-0.065
-0.085
-0.08
-0.095
-0.08
-0.1
-0.09
-0.085
-0.095
-0.1
-0.085
-0.1
-0.11
-0.125
-0.085
-0.025
0.05
0.04
0.025
-0.035
-0.045
-0.11
-0.14
-0.135
-0.145
-0.14
-0.28
-0.3
0.595
1.805
1.055
-0.185
-0.405
-0.34
-0.17
-0.1
-0.095
-0.095
-0.075
-0.09
-0.085
-0.08
-0.065
-0.065
-0.045
-0.04
-0.03
-0.02
0.005
0.02
0.045
0.07
0.095
0.115
0.17
0.21
0.26
0.295
0.34
0.35
0.335
0.275
0.2
0.11
0.065
0.015
0.0
-0.035
-0.03
-0.04
-0.035
-0.03
0.0
-0.01
-0.02
-0.005
-0.01
-0.015
0.0
-0.005
0.0
-0.01
-0.01
-0.02
-0.01
0.0
-0.01
-0.035
-0.025
-0.04
-0.03
-0.03
-0.03
-0.03
-0.035
-0.045
-0.04
-0.05
-0.04
-0.055
-0.05
-0.06
-0.055
-0.06
-0.055
-0.065
-0.055
-0.05
-0.05
-0.08
-0.07
-0.08
-0.085
-0.08
-0.08
-0.085
-0.07
-0.085
-0.075
-0.095
-0.095
-0.1
-0.08
-0.095
-0.105
-0.08
-0.025
0.045
0.085
0.035
-0.01
-0.035
-0.065
-0.12
-0.125
-0.145
-0.14
-0.16
-0.265
0.03
1.025
1.545
0.5
-0.395
-0.315
-0.175
-0.095
-0.105
-0.09
-0.1
-0.085
-0.08
-0.08
-0.08
-0.07
-0.08
-0.06
-0.05
-0.03
-0.025
0.0
0.01
0.055
0.075
0.11
0.155
0.2
0.235
0.285
0.33
0.37
0.375
0.33
0.245
0.165
0.085
0.03
-0.01
-0.04
-0.055
-0.05
-0.04
-0.04
-0.03
-0.04
-0.045
-0.015
-0.02
-0.02
-0.02
-0.03
-0.025
-0.015
-0.015
-0.015
-0.025
-0.02
-0.035
-0.035
-0.045
-0.04
-0.035
-0.04
-0.045
-0.045
-0.05
-0.035
-0.055
-0.05
-0.05
-0.06
-0.065
-0.045
-0.055
-0.07
-0.065
-0.04
-0.07
-0.065
-0.08
-0.07
-0.075
-0.07
-0.09
-0.075
-0.085
-0.09
-0.105
-0.08
-0.085
-0.11
-0.12
-0.085
-0.1
-0.125
-0.11
-0.05
-0.005
0.06
0.075
0.02
-0.035
-0.055
-0.105
-0.135
-0.135
-0.13
-0.16
-0.295
-0.29
0.605
1.825
1.015
-0.215
-0.405
-0.33
-0.16
-0.1
-0.085
-0.105
-0.095
-0.085
-0.07
-0.085
-0.075
-0.065
-0.05
-0.05
-0.015
-0.005
0.01
0.025
0.04
0.06
0.105
0.14
0.19
0.225
0.275
0.33
0.37
0.375
0.355
0.28
0.195
0.125
0.06
0.0
-0.015
-0.04
-0.045
-0.035
-0.04
-0.025
-0.03
-0.04
-0.03
-0.02
-0.005
-0.005
-0.005
-0.02
-0.02
-0.015
-0.015
-0.02
-0.025
-0.035
-0.02
-0.03
-0.04
-0.04
-0.04
-0.045
-0.04
-0.045
-0.045
-0.045
-0.055
-0.055
-0.055
-0.06
-0.06
-0.065
-0.07
-0.06
-0.055
-0.07
-0.06
-0.08
-0.08
-0.075
-0.075
-0.08
-0.085
-0.095
-0.09
-0.1
-0.095
-0.1
-0.095
-0.105
-0.105
-0.105
-0.115
-0.08
-0.015
0.05
0.065
0.025
-0.025
-0.03
-0.07
-0.14
-0.135
-0.14
-0.14
-0.21
-0.265
0.315
1.44
1.275
0.06
-0.395
-0.305
-0.145
-0.1
-0.105
-0.085
-0.09
-0.09
-0.08
-0.08
-0.085
-0.075
-0.06
-0.045
-0.035
-0.015
0.0
0.015
0.015
0.055
0.09
0.125
0.175
0.22
0.275
0.32
0.355
0.395
0.36
0.315
0.23
0.135
0.065
0.015
-0.01
-0.04
-0.045
-0.035
-0.04
-0.04
-0.035
-0.035
-0.02
-0.02
-0.01
0.0
0.0
-0.005
-0.01
-0.015
-0.015
-0.005
-0.005
-0.01
-0.02
-0.01
-0.005
-0.03
-0.04
-0.045
-0.035
-0.04
-0.04
-0.03
-0.03
-0.035
-0.045
-0.055
-0.045
-0.055
-0.065
-0.055
-0.065
-0.065
-0.05
-0.065
-0.07
-0.06
-0.075
-0.07
-0.07
-0.08
-0.085
-0.065
-0.085
-0.09
-0.08
-0.09
-0.09
-0.08
-0.085
-0.095
-0.11
-0.095
-0.065
-0.005
0.07
0.06
0.025
-0.04
-0.045
-0.1
-0.125
-0.13
-0.135
-0.15
-0.28
-0.26
0.68
1.815
0.95
-0.26
-0.395
-0.3
-0.135
-0.11
-0.09
-0.085
-0.1
-0.09
-0.09
-0.065
-0.06
-0.065
-0.06
-0.05
-0.04
-0.01
0.0
0.02
0.06
0.065
0.095
0.15
0.18
0.215
0.28
0.32
0.36
0.375
0.355
0.28
0.2
0.115
0.05
0.0
-0.015
-0.03
-0.05
-0.06
-0.045
-0.035
-0.045
-0.04
-0.025
-0.015
-0.02
-0.035
-0.005
-0.02
-0.02
-0.025
-0.025
-0.035
-0.045
-0.045
-0.04
-0.05
-0.04
-0.04
-0.045
-0.045
-0.07
-0.075
-0.07
-0.07
-0.07
-0.08
-0.085
-0.09
-0.085
-0.09
-0.085
-0.085
-0.095
-0.08
-0.095
-0.1
-0.1
-0.09
-0.09
-0.095
-0.125
-0.11
-0.09
-0.125
-0.13
-0.06
0.0
0.065
0.04
0.0
-0.035
-0.035
-0.105
-0.125
-0.13
-0.15
-0.155
-0.34
-0.235
0.77
1.89
0.925
-0.275
-0.405
-0.315
-0.13
-0.105
-0.1
-0.09
-0.085
-0.06
-0.08
-0.08
-0.08
-0.06
-0.04
-0.05
-0.04
-0.02
0.0
0.025
0.04
0.07
0.12
0.16
0.185
0.245
0.28
0.32
0.355
0.38
0.34
0.265
0.165
0.085
0.025
-0.01
-0.045
-0.055
-0.04
-0.04
-0.06
-0.05
-0.045
-0.035
-0.035
-0.035
-0.02
-0.035
-0.02
-0.005
-0.025
-0.025
-0.03
-0.03
-0.025
-0.03
-0.04
-0.03
-0.045
-0.04
-0.045
-0.055
-0.05
-0.055
-0.07
-0.05
-0.055
-0.05
-0.075
-0.075
-0.075
-0.065
-0.075
-0.08
-0.085
-0.08
-0.08
-0.09
-0.095
-0.085
-0.09
-0.1
-0.105
-0.105
-0.095
-0.1
-0.105
-0.065
-0.02
0.05
0.07
0.03
-0.025
-0.02
-0.055
-0.125
-0.135
-0.155
-0.145
-0.195
-0.28
0.25
1.35
1.37
0.15
-0.41
-0.335
-0.17
-0.115
-0.105
-0.095
-0.1
-0.095
-0.095
-0.1
-0.095
-0.09
-0.08
-0.07
-0.06
-0.045
-0.025
-0.01
0.015
0.03
0.075
0.1
0.15
0.195
0.255
0.315
0.36
0.38
0.35
0.3
0.22
0.13
0.04
-0.01
-0.025
-0.045
-0.055
-0.065
-0.045
-0.055
-0.045
-0.04
-0.03
-0.045
-0.03
-0.025
-0.015
-0.025
-0.015
-0.02
-0.02
-0.025
-0.01
-0.025
-0.025
-0.035
-0.015
-0.02
-0.035
-0.05
-0.025
-0.035
-0.05
-0.055
-0.05
-0.05
-0.025
-0.045
-0.045
-0.055
-0.045
-0.055
-0.045
-0.05
-0.06
-0.055
-0.045
-0.065
-0.07
-0.08
-0.06
-0.07
-0.075
-0.075
-0.065
-0.075
-0.085
-0.09
-0.07
-0.08
-0.085
-0.095
-0.085
-0.105
-0.13
-0.09
-0.035
0.015
0.075
0.025
-0.015
-0.035
-0.055
-0.125
-0.13
-0.155
-0.13
-0.155
-0.325
-0.025
1.05
1.655
0.56
-0.42
-0.34
-0.23
-0.105
-0.125
-0.11
-0.105
-0.1
-0.085
-0.07
-0.075
-0.075
-0.09
-0.06
-0.065
-0.035
-0.03
-0.01
0.005
0.04
0.07
0.095
0.13
0.19
0.225
0.285
0.335
0.345
0.355
0.325
0.24
0.165
0.105
0.04
-0.035
-0.055
-0.04
-0.05
-0.08
-0.04
-0.04
-0.035
-0.045
-0.05
-0.015
-0.035
-0.03
-0.02
-0.015
-0.025
-0.04
-0.02
-0.045
-0.03
-0.04
-0.05
-0.05
-0.06
-0.05
-0.06
-0.035
-0.06
-0.08
-0.045
-0.075
-0.09
-0.095
-0.075
-0.075
-0.085
-0.1
-0.08
-0.1
-0.09
-0.1
-0.095
-0.125
-0.085
-0.095
-0.085
-0.115
-0.115
-0.14
-0.09
-0.07
0.005
0.05
0.04
-0.03
-0.05
-0.065
-0.14
-0.14
-0.165
-0.15
-0.18
-0.335
0.025
1.16
1.68
0.465
-0.37
-0.41
-0.31
-0.1
-0.11
-0.13
-0.1
-0.105
-0.095
-0.09
-0.1
-0.09
-0.06
-0.045
-0.075
-0.045
-0.03
0.0
0.015
0.025
0.055
0.105
0.155
0.185
0.235
0.295
0.33
0.36
0.365
0.28
0.205
0.1
0.045
-0.02
-0.05
-0.07
-0.09
-0.08
-0.055
-0.1
-0.1
-0.055
-0.085
-0.075
-0.02
-0.045
-0.09
-0.05
-0.015
-0.09
-0.06
-0.08
-0.03
-0.075
-0.085
-0.08
-0.085
-0.085
-0.07
-0.13
-0.085
-0.09
-0.11
-0.11
-0.125
-0.09
-0.125
-0.14
-0.14
-0.14
-0.145
-0.105
-0.04
-0.025
0.02
0.025
0.0
-0.095
-0.07
-0.14
-0.165
-0.165
-0.14
-0.185
-0.355
-0.18
0.88
1.98
0.93
-0.37
-0.38
-0.36
-0.13
-0.11
-0.115
-0.095
-0.115
-0.085
-0.1
-0.105
-0.05
-0.065
-0.06
-0.085
-0.015
0.02
0.0
-0.01
0.045
0.11
0.11
0.165
0.245
0.26
0.31
0.39
0.4
0.39
0.305
0.195
0.1
0.035
0.0
-0.06
-0.08
-0.075
-0.09
-0.08
-0.08
-0.085
-0.06
-0.09
-0.055
-0.065
-0.075
-0.06
-0.045
-0.06
-0.06
-0.07
-0.075
-0.055
-0.065
-0.085
-0.065
-0.09
-0.1
-0.09
-0.09
-0.115
-0.075
-0.12
-0.105
-0.12
-0.09
-0.12
-0.095
-0.11
-0.145
-0.135
-0.12
-0.085
-0.035
0.025
0.045
0.01
-0.05
-0.055
-0.07
-0.16
-0.13
-0.18
-0.125
-0.165
-0.3
0.145
1.255
1.595
0.38
-0.425
-0.36
-0.235
-0.095
-0.11
-0.105
-0.105
-0.11
-0.1
-0.1
-0.08
-0.08
-0.085
-0.055
-0.065
-0.04
-0.015
-0.01
0.015
0.07
0.09
0.14
0.17
0.23
0.275
0.355
0.37
0.365
0.35
0.28
0.17
0.08
0.005
-0.005
-0.055
-0.065
-0.05
-0.045
-0.07
-0.05
-0.045
-0.05
-0.05
-0.03
-0.025
-0.01
-0.025
-0.015
-0.035
-0.02
-0.025
-0.025
-0.02
-0.015
-0.03
-0.04
-0.04
-0.04
-0.045
-0.06
-0.045
-0.04
-0.055
-0.05
-0.065
-0.05
-0.045
-0.035
-0.075
-0.07
-0.075
-0.075
-0.075
-0.065
-0.09
-0.07
-0.08
-0.085
-0.09
-0.09
-0.085
-0.09
-0.1
-0.095
-0.1
-0.095
-0.11
-0.11
-0.085
-0.025
0.02
0.05
0.015
-0.03
-0.05
-0.07
-0.145
-0.13
-0.15
-0.14
-0.2
-0.265
0.285
1.39
1.32
0.11
-0.405
-0.32
-0.19
-0.11
-0.105
-0.105
-0.115
-0.11
-0.1
-0.1
-0.11
-0.09
-0.08
-0.05
-0.06
-0.045
-0.03
-0.005
0.015
0.04
0.065
0.105
0.155
0.21
0.25
0.3
0.335
0.37
0.345
0.29
0.21
0.14
0.05
0.025
-0.025
-0.05
-0.045
-0.045
-0.05
-0.04
-0.035
-0.025
-0.025
-0.02
-0.02
-0.015
-0.025
-0.02
-0.015
-0.015
-0.03
-0.015
-0.02
-0.035
-0.03
-0.035
-0.04
-0.04
-0.04
-0.04
-0.045
-0.04
-0.045
-0.04
-0.05
-0.05
-0.05
-0.05
-0.06
-0.05
-0.065
-0.065
-0.07
-0.06
-0.065
-0.06
-0.065
-0.065
-0.075
-0.06
-0.075
-0.08
-0.08
-0.08
-0.085
-0.07
-0.08
-0.095
-0.095
-0.095
-0.12
-0.08
-0.04
0.03
0.065
0.03
-0.01
-0.04
-0.055
-0.095
-0.13
-0.125
-0.12
-0.13
-0.275
-0.105
0.875
1.71
0.7
-0.43
-0.37
-0.22
-0.11
-0.1
-0.1
-0.075
-0.09
-0.095
-0.095
-0.08
-0.085
-0.085
-0.065
-0.045
-0.055
-0.035
0.0
0.025
0.02
0.06
0.085
0.13
0.185
0.225
0.275
0.31
0.35
0.365
0.32
0.275
0.17
0.09
0.0
-0.015
-0.04
-0.04
-0.045
-0.045
-0.055
-0.06
-0.04
-0.03
-0.025
-0.02
-0.05
-0.025
-0.015
-0.035
-0.04
-0.035
-0.025
-0.04
-0.04
-0.015
-0.025
-0.065
-0.075
-0.045
-0.04
-0.055
-0.05
-0.06
-0.07
-0.06
-0.04
-0.085
-0.075
-0.07
-0.095
-0.07
-0.07
-0.06
-0.09
-0.09
-0.095
-0.085
-0.08
-0.095
-0.115
-0.11
-0.095
-0.08
-0.125
-0.11
-0.12
-0.07
-0.015
0.05
0.025
0.015
-0.035
-0.04
-0.105
-0.15
-0.14
-0.14
-0.135
-0.3
-0.265
0.715
1.86
0.965
-0.27
-0.415
-0.33
-0.165
-0.12
-0.09
-0.1
-0.1
-0.08
-0.09
-0.08
-0.065
-0.065
-0.055
-0.045
-0.05
-0.03
0.005
0.005
0.05
0.065
0.095
0.135
0.19
0.23
0.285
0.315
0.365
0.385
0.33
0.27
0.175
0.1
0.03
0.0
-0.05
-0.045
-0.035
-0.05
-0.05
-0.035
-0.04
-0.05
-0.03
-0.03
-0.025
-0.03
-0.03
-0.02
-0.025
-0.04
-0.025
-0.045
-0.045
-0.05
-0.04
-0.045
-0.055
-0.05
-0.055
-0.045
-0.065
-0.06
-0.07
-0.08
-0.08
-0.075
-0.075
-0.085
-0.08
-0.09
-0.09
-0.09
-0.09
-0.115
-0.1
-0.1
-0.115
-0.095
-0.05
0.01
0.075
0.035
0.0
-0.025
-0.055
-0.105
-0.13
-0.13
-0.145
-0.155
-0.27
-0.235
0.65
1.785
0.95
-0.32
-0.385
-0.3
-0.125
-0.1
-0.095
-0.085
-0.085
-0.08
-0.085
-0.085
-0.09
-0.06
-0.055
-0.045
-0.03
-0.005
0.0
0.025
0.05
0.075
0.115
0.15
0.2
0.24
0.285
0.335
0.375
0.385
0.345
0.255
0.165
0.075
0.02
-0.005
-0.025
-0.05
-0.055
-0.045
-0.04
-0.045
-0.04
-0.035
-0.025
-0.025
-0.03
-0.025
-0.035
-0.025
-0.03
-0.03
-0.035
-0.045
-0.045
-0.055
-0.06
-0.055
-0.055
-0.07
-0.065
-0.065
-0.065
-0.06
-0.06
-0.07
-0.08
-0.08
-0.085
-0.08
-0.08
-0.075
-0.085
-0.095
-0.095
-0.085
-0.085
-0.085
-0.09
-0.09
-0.105
-0.105
-0.07
-0.015
0.055
0.07
0.025
-0.035
-0.04
-0.065
-0.13
-0.13
-0.145
-0.13
-0.18
-0.26
0.2
1.255
1.335
0.17
-0.41
-0.31
-0.145
-0.1
-0.11
-0.095
-0.08
-0.085
-0.09
-0.06
-0.08
-0.08
-0.065
-0.055
-0.04
-0.02
-0.01
0.0
0.02
0.06
0.085
0.11
0.16
0.22
0.255
0.32
0.36
0.38
0.36
0.3
0.22
0.12
0.06
0.015
-0.02
-0.03
-0.045
-0.04
-0.045
-0.04
-0.04
-0.03
-0.035
-0.04
-0.025
-0.03
-0.02
-0.045
-0.035
-0.025
-0.04
-0.04
-0.045
-0.03
-0.055
-0.055
-0.04
-0.06
-0.075
-0.07
-0.055
-0.055
-0.055
-0.06
-0.07
-0.075
-0.08
-0.065
-0.075
-0.08
-0.095
-0.075
-0.095
-0.1
-0.07
-0.095
-0.1
-0.09
-0.11
-0.105
-0.12
-0.11
-0.065
0.005
0.065
0.05
0.0
-0.03
-0.055
-0.13
-0.135
-0.145
-0.13
-0.15
-0.315
-0.245
0.72
1.805
0.84
-0.325
-0.41
-0.325
-0.135
-0.12
-0.105
-0.085
-0.105
-0.095
-0.105
-0.085
-0.075
-0.065
-0.055
-0.035
-0.025
-0.03
-0.01
0.0
0.045
0.075
0.1
0.14
0.175
0.235
0.26
0.33
0.345
0.35
0.32
0.245
0.155
0.085
0.025
-0.02
-0.045
-0.05
-0.04
-0.065
-0.065
-0.05
-0.045
-0.04
-0.035
-0.035
-0.04
-0.035
-0.035
-0.045
-0.055
-0.05
-0.055
-0.055
-0.065
-0.065
-0.075
-0.06
-0.085
-0.075
-0.06
-0.06
-0.1
-0.09
-0.09
-0.085
-0.09
-0.085
-0.115
-0.105
-0.1
-0.095
-0.11
-0.115
-0.085
-0.02
0.05
0.06
0.025
-0.025
-0.04
-0.065
-0.125
-0.135
-0.15
-0.135
-0.16
-0.29
-0.11
0.935
1.76
0.645
-0.41
-0.35
-0.265
-0.095
-0.1
-0.085
-0.095
-0.085
-0.075
-0.07
-0.08
-0.07
-0.05
-0.035
-0.035
-0.035
-0.005
0.02
0.04
0.06
0.08
0.11
0.16
0.215
0.255
0.32
0.355
0.38
0.355
0.29
0.215
0.14
0.055
0.0
-0.025
-0.05
-0.05
-0.055
-0.05
-0.045
-0.04
-0.03
-0.035
-0.025
-0.03
-0.03
-0.03
-0.02
-0.035
-0.03
-0.035
-0.035
-0.045
-0.045
-0.055
-0.045
-0.06
-0.06
-0.06
-0.06
-0.065
-0.06
-0.07
-0.07
-0.07
-0.075
-0.08
-0.085
-0.075
-0.08
-0.085
-0.085
-0.09
-0.085
-0.09
-0.09
-0.1
-0.095
-0.105
-0.115
-0.095
-0.045
0.0
0.07
0.055
0.015
-0.02
-0.04
-0.085
-0.135
-0.14
-0.13
-0.14
-0.22
-0.275
0.405
1.52
1.165
-0.11
-0.395
-0.27
-0.12
-0.09
-0.09
-0.09
-0.09
-0.09
-0.085
-0.09
-0.075
-0.075
-0.06
-0.055
-0.045
-0.02
0.0
0.02
0.025
0.06
0.09
0.13
0.175
0.225
0.285
0.315
0.355
0.38
0.35
0.285
0.21
0.11
0.04
0.005
-0.015
-0.04
-0.04
-0.04
-0.02
-0.025
-0.025
-0.025
-0.015
-0.02
-0.005
-0.015
-0.01
-0.02
-0.015
-0.015
-0.02
-0.03
-0.03
-0.035
-0.02
-0.035
-0.035
-0.04
-0.04
-0.045
-0.03
-0.035
-0.03
-0.06
-0.05
-0.045
-0.05
-0.07
-0.065
-0.055
-0.065
-0.07
-0.065
-0.07
-0.06
-0.07
-0.07
-0.08
-0.075
-0.08
-0.09
-0.095
-0.09
-0.095
-0.095
-0.11
-0.09
-0.1
-0.095
-0.115
-0.11
-0.075
-0.005
0.055
0.05
0.025
-0.045
-0.065
-0.105
-0.145
-0.125
-0.13
-0.14
-0.27
-0.295
0.49
1.7
1.11
-0.14
-0.425
-0.305
-0.17
-0.105
-0.105
-0.085
-0.085
-0.09
-0.09
-0.1
-0.085
-0.065
-0.05
-0.055
-0.055
-0.035
-0.015
0.01
0.02
0.045
0.08
0.115
0.165
0.21
0.24
0.28
0.32
0.345
0.33
0.275
0.205
0.13
0.035
0.0
-0.02
-0.025
-0.04
-0.04
-0.06
-0.015
-0.025
-0.04
-0.03
-0.025
-0.02
-0.02
-0.02
-0.025
-0.02
-0.035
-0.03
-0.04
-0.065
-0.04
-0.045
-0.05
-0.055
-0.06
-0.06
-0.065
-0.06
-0.06
-0.1
-0.07
-0.08
-0.065
-0.095
-0.085
-0.1
-0.1
-0.11
-0.08
-0.085
-0.095
-0.115
-0.115
-0.095
-0.105
-0.145
-0.1
-0.065
-0.015
0.045
0.025
0.025
-0.02
-0.08
-0.125
-0.13
-0.15
-0.155
-0.135
-0.28
-0.315
0.585
1.825
1.06
-0.195
-0.43
-0.335
-0.185
-0.11
-0.12
-0.095
-0.09
-0.095
-0.08
-0.055
-0.06
-0.075
-0.06
-0.055
-0.03
-0.015
0.0
0.015
0.05
0.075
0.095
0.145
0.165
0.21
0.275
0.335
0.355
0.37
0.315
0.24
0.145
0.08
0.005
-0.01
-0.05
-0.055
-0.065
-0.065
-0.06
-0.05
-0.05
-0.035
-0.045
-0.035
-0.035
-0.03
-0.045
-0.045
-0.035
-0.04
-0.06
-0.045
-0.055
-0.065
-0.055
-0.05
-0.06
-0.06
-0.07
-0.05
-0.075
-0.075
-0.085
-0.08
-0.085
-0.09
-0.09
-0.095
-0.085
-0.085
-0.09
-0.095
-0.105
-0.11
-0.11
-0.105
-0.09
-0.04
0.015
0.065
0.03
-0.015
-0.055
-0.045
-0.1
-0.13
-0.15
-0.14
-0.15
-0.29
-0.2
0.79
1.835
0.83
-0.365
-0.365
-0.29
-0.12
-0.1
-0.095
-0.1
-0.095
-0.095
-0.095
-0.095
-0.08
-0.065
-0.06
-0.06
-0.035
-0.015
0.005
0.01
0.035
0.06
0.105
0.15
0.195
0.24
0.31
0.345
0.365
0.36
0.315
0.23
0.16
0.08
0.02
-0.03
-0.035
-0.03
-0.03
-0.04
-0.03
-0.035
-0.03
-0.025
-0.01
-0.01
-0.005
-0.015
-0.005
-0.005
-0.005
-0.02
-0.02
-0.03
-0.03
-0.02
-0.03
-0.035
-0.035
-0.04
-0.045
-0.055
-0.05
-0.05
-0.04
-0.055
-0.065
-0.06
-0.055
-0.065
-0.07
-0.07
-0.07
-0.085
-0.065
-0.075
-0.075
-0.085
-0.08
-0.08
-0.065
-0.085
-0.085
-0.08
-0.08
-0.095
-0.08
-0.1
-0.085
-0.065
0.0
0.06
0.075
0.02
-0.01
-0.025
-0.055
-0.125
-0.125
-0.135
-0.125
-0.175
-0.255
0.21
1.29
1.365
0.18
-0.4
-0.295
-0.14
-0.085
-0.09
-0.085
-0.095
-0.075
-0.085
-0.07
-0.07
-0.055
-0.055
-0.03
-0.03
-0.02
-0.005
0.015
0.025
0.075
0.09
0.12
0.155
0.225
0.26
0.3
0.355
0.385
0.365
0.305
0.225
0.15
0.08
0.02
-0.01
-0.02
-0.035
-0.04
-0.03
-0.03
-0.03
-0.015
-0.015
0.0
-0.015
-0.015
0.0
-0.015
-0.025
-0.015
-0.02
-0.025
-0.02
-0.01
-0.03
-0.02
-0.035
-0.03
-0.04
-0.035
-0.04
-0.04
-0.05
-0.06
-0.04
-0.04
-0.045
-0.04
-0.05
-0.04
-0.06
-0.05
-0.07
-0.065
-0.055
-0.055
-0.075
-0.07
-0.07
-0.08
-0.075
-0.08
-0.085
-0.09
-0.095
-0.095
-0.095
-0.095
-0.11
-0.085
-0.055
0.04
0.065
0.055
0.005
-0.02
-0.07
-0.115
-0.13
-0.13
-0.13
-0.16
-0.305
-0.04
1.01
1.685
0.535
-0.42
-0.38
-0.255
-0.085
-0.12
-0.12
-0.105
-0.08
-0.085
-0.095
-0.065
-0.065
-0.065
-0.075
-0.03
-0.035
-0.01
0.005
0.01
0.045
0.08
0.125
0.145
0.18
0.225
0.25
0.33
0.365
0.375
0.33
0.255
0.16
0.09
0.04
0.0
-0.03
-0.02
-0.03
-0.03
-0.055
-0.015
-0.015
-0.02
-0.01
-0.005
-0.015
-0.01
-0.045
-0.01
-0.02
-0.025
-0.015
-0.04
-0.03
-0.03
-0.02
-0.045
-0.05
-0.05
-0.04
-0.04
-0.05
-0.055
-0.045
-0.055
-0.065
-0.06
-0.07
-0.06
-0.07
-0.07
-0.07
-0.07
-0.08
-0.08
-0.09
-0.09
-0.1
-0.095
-0.1
-0.1
-0.1
-0.1
-0.135
-0.125
-0.085
-0.02
0.035
0.06
0.025
-0.03
-0.04
-0.08
-0.14
-0.125
-0.14
-0.135
-0.21
-0.28
0.35
1.52
1.295
0.05
-0.425
-0.34
-0.19
-0.095
-0.095
-0.09
-0.09
-0.075
-0.08
-0.08
-0.08
-0.065
-0.055
-0.04
-0.04
-0.02
-0.01
0.0
0.02
0.06
0.085
0.125
0.15
0.19
0.26
0.305
0.335
0.35
0.34
0.285
0.195
0.11
0.06
0.005
-0.04
-0.04
-0.055
-0.045
-0.045
-0.04
-0.035
-0.035
-0.03
-0.025
-0.03
-0.02
-0.015
-0.01
-0.015
-0.03
-0.03
-0.025
-0.03
-0.03
-0.04
-0.03
-0.04
-0.045
-0.055
-0.055
-0.055
-0.055
-0.06
-0.05
-0.055
-0.06
-0.075
-0.065
-0.07
-0.07
-0.075
-0.07
-0.08
-0.085
-0.095
-0.085
-0.08
-0.09
-0.1
-0.09
-0.095
-0.095
-0.09
-0.1
-0.095
-0.105
-0.1
-0.115
-0.1
-0.07
-0.015
0.06
0.05
0.02
-0.03
-0.045
-0.075
-0.14
-0.14
-0.14
-0.145
-0.215
-0.275
0.395
1.515
1.165
-0.105
-0.4
-0.285
-0.14
-0.115
-0.1
-0.1
-0.1
-0.105
-0.09
-0.085
-0.075
-0.075
-0.08
-0.06
-0.04
-0.025
-0.005
0.01
0.03
0.06
0.085
0.125
0.17
0.215
0.27
0.315
0.355
0.37
0.355
0.32
0.215
0.14
0.07
0.02
-0.015
-0.045
-0.03
-0.035
-0.035
-0.015
-0.035
-0.025
-0.02
-0.025
-0.01
-0.02
-0.005
-0.015
-0.01
-0.025
-0.02
-0.025
-0.03
-0.02
-0.04
-0.035
-0.03
-0.045
-0.035
-0.04
-0.03
-0.04
-0.05
-0.05
-0.065
-0.07
-0.035
-0.055
-0.055
-0.065
-0.065
-0.06
-0.06
-0.07
-0.08
-0.07
-0.085
-0.085
-0.07
-0.095
-0.085
-0.075
-0.1
-0.105
-0.09
-0.08
-0.115
-0.135
-0.115
-0.065
-0.015
0.06
0.055
0.02
-0.04
-0.06
-0.11
-0.14
-0.125
-0.135
-0.15
-0.3
-0.315
0.59
1.785
0.99
-0.21
-0.415
-0.325
-0.165
-0.1
-0.085
-0.105
-0.09
-0.08
-0.075
-0.07
-0.06
-0.05
-0.075
-0.045
-0.04
-0.015
0.0
0.0
0.035
0.07
0.095
0.125
0.165
0.21
0.255
0.305
0.34
0.345
0.34
0.26
0.205
0.105
0.04
-0.005
-0.03
-0.055
-0.065
-0.055
-0.055
-0.045
-0.025
-0.05
-0.03
-0.01
-0.025
-0.03
-0.05
-0.025
-0.025
-0.04
-0.03
-0.04
-0.045
-0.07
-0.055
-0.065
-0.04
-0.06
-0.07
-0.08
-0.075
-0.075
-0.065
-0.07
-0.115
-0.075
-0.09
-0.085
-0.11
-0.09
-0.09
-0.095
-0.105
-0.1
-0.11
-0.105
-0.105
-0.125
-0.115
-0.115
-0.08
-0.025
0.04
0.035
0.02
-0.02
-0.03
-0.095
-0.125
-0.14
-0.13
-0.14
-0.235
-0.3
0.43
1.655
1.235
0.0
-0.41
-0.34
-0.165
-0.1
-0.09
-0.07
-0.06
-0.065
-0.055
-0.055
-0.05
-0.035
-0.035
-0.025
0.0
0.03
0.035
0.045
0.035
0.08
0.11
0.1
0.145
0.235
0.28
0.3
0.36
0.335
0.36
0.3
0.2
0.095
0.065
-0.02
-0.06
-0.065
-0.065
-0.055
-0.045
-0.035
-0.045
-0.03
-0.02
-0.015
-0.035
-0.03
-0.055
-0.035
-0.03
-0.04
-0.05
-0.04
-0.05
-0.08
-0.075
-0.07
-0.09
-0.07
-0.09
-0.1
-0.075
-0.095
-0.09
-0.105
-0.09
-0.105
-0.105
-0.115
-0.08
-0.09
-0.11
-0.115
-0.105
-0.04
0.045
0.06
0.02
-0.025
-0.055
-0.08
-0.14
-0.14
-0.135
-0.17
-0.18
-0.295
-0.05
0.96
1.65
0.54
-0.405
-0.365
-0.26
-0.105
-0.12
-0.1
-0.085
-0.095
-0.09
-0.095
-0.065
-0.06
-0.055
-0.045
-0.03
-0.01
-0.015
0.0
0.035
0.055
0.085
0.12
0.165
0.21
0.27
0.31
0.365
0.38
0.365
0.31
0.225
0.125
0.035
-0.02
-0.035
-0.05
-0.06
-0.07
-0.07
-0.075
-0.05
-0.045
-0.06
-0.06
-0.055
-0.035
-0.04
-0.06
-0.05
-0.065
-0.06
-0.065
-0.045
-0.065
-0.07
-0.065
-0.045
-0.065
-0.07
-0.07
-0.07
-0.09
-0.09
-0.085
-0.09
-0.095
-0.105
-0.105
-0.095
-0.07
-0.105
-0.11
-0.115
-0.11
-0.08
-0.025
0.075
0.055
0.015
-0.025
-0.045
-0.105
-0.145
-0.125
-0.14
-0.165
-0.19
-0.275
0.205
1.265
1.305
0.145
-0.405
-0.32
-0.145
-0.115
-0.105
-0.1
-0.105
-0.1
-0.105
-0.09
-0.105
-0.085
-0.06
-0.07
-0.055
-0.03
-0.01
0.0
0.025
0.055
0.08
0.105
0.155
0.225
0.265
0.31
0.34
0.38
0.35
0.27
0.18
0.105
0.05
-0.015
-0.045
-0.05
-0.045
-0.065
-0.035
-0.04
-0.025
-0.055
-0.04
-0.05
-0.07
-0.06
-0.04
-0.045
-0.05
-0.07
-0.04
-0.065
-0.09
-0.1
-0.07
-0.085
-0.085
-0.08
-0.095
-0.095
-0.085
-0.075
-0.08
-0.095
-0.08
-0.085
-0.1
-0.095
-0.085
-0.095
-0.12
-0.095
-0.035
0.02
0.105
0.075
0.025
-0.035
-0.025
-0.095
-0.145
-0.145
-0.145
-0.15
-0.215
-0.28
0.335
1.445
1.195
0.01
-0.425
-0.325
-0.145
-0.1
-0.095
-0.095
-0.09
-0.09
-0.07
-0.065
-0.06
-0.055
-0.05
-0.06
-0.035
-0.015
-0.005
0.005
0.045
0.065
0.1
0.13
0.195
0.195
0.26
0.32
0.345
0.315
0.29
0.215
0.125
0.045
0.015
-0.04
-0.05
-0.055
-0.065
-0.075
-0.065
-0.04
-0.04
-0.035
-0.035
-0.075
-0.005
-0.055
-0.05
-0.035
-0.05
-0.09
-0.065
-0.04
-0.09
-0.095
-0.05
-0.1
-0.11
-0.09
-0.08
-0.12
-0.15
-0.07
-0.13
-0.075
-0.125
-0.17
-0.135
-0.085
-0.015
0.0
0.06
-0.04
-0.05
-0.095
-0.11
-0.175
-0.125
-0.195
-0.175
-0.155
-0.315
-0.345
0.61
1.805
1.025
-0.175
-0.415
-0.335
-0.175
-0.095
-0.075
-0.085
-0.085
-0.085
-0.065
-0.09
-0.055
-0.065
-0.06
-0.065
-0.015
-0.015
-0.005
0.04
0.02
0.045
0.085
0.105
0.135
0.15
0.26
0.285
0.3
0.295
0.255
0.155
0.08
-0.03
-0.05
-0.085
-0.085
-0.095
-0.055
-0.085
-0.105
-0.06
-0.075
-0.095
-0.085
-0.07
-0.075
-0.085
-0.065
-0.075
-0.06
-0.095
-0.08
-0.105
-0.11
-0.125
-0.13
-0.105
-0.115
-0.105
-0.105
-0.11
-0.115
-0.135
-0.11
-0.15
-0.105
-0.11
-0.13
-0.105
-0.055
-0.09
-0.09
0.01
0.075
0.055
0.015
-0.045
0.0
-0.035
-0.115
-0.115
-0.135
-0.145
-0.135
-0.27
-0.055
0.895
1.72
0.65
-0.41
-0.32
-0.19
-0.04
-0.04
-0.075
-0.06
-0.055
-0.045
-0.06
-0.01
-0.04
0.0
0.0
-0.015
0.02
-0.01
0.005
0.02
0.03
0.115
0.05
0.115
0.19
0.22
0.25
0.3
0.355
0.31
0.26
0.15
0.08
0.015
-0.03
-0.075
-0.075
-0.055
-0.105
-0.07
-0.075
-0.1
-0.05
-0.05
-0.03
-0.07
-0.075
-0.03
-0.035
-0.06
-0.065
-0.04
-0.075
-0.045
-0.095
-0.07
-0.11
-0.075
-0.095
-0.07
-0.07
-0.085
-0.1
-0.12
-0.1
-0.11
-0.13
-0.105
-0.135
-0.11
-0.105
-0.12
-0.135
-0.135
-0.08
-0.01
0.075
0.045
0.01
-0.025
-0.05
-0.095
-0.125
-0.155
-0.165
-0.105
-0.145
-0.275
-0.07
0.875
1.52
0.585
-0.43
-0.325
-0.215
-0.08
-0.08
-0.08
-0.05
-0.1
-0.075
-0.07
-0.095
-0.075
-0.06
-0.03
-0.035
-0.015
-0.005
0.05
0.065
0.075
0.105
0.105
0.205
0.24
0.28
0.33
0.36
0.38
0.365
0.29
0.19
0.145
0.06
0.0
-0.01
-0.03
-0.035
0.01
0.0
-0.015
-0.035
-0.035
-0.05
-0.02
-0.045
-0.03
-0.02
-0.025
-0.005
-0.05
-0.035
-0.03
-0.03
-0.06
-0.07
-0.07
-0.06
-0.06
-0.075
-0.03
-0.07
-0.07
-0.09
-0.045
-0.09
-0.06
-0.085
-0.075
-0.1
-0.09
-0.095
-0.09
-0.1
-0.055
-0.085
-0.04
0.05
0.075
0.055
-0.01
-0.01
-0.075
-0.105
-0.15
-0.17
-0.13
-0.14
-0.34
-0.185
0.915
1.7
0.645
-0.34
-0.39
-0.335
-0.115
-0.125
-0.1
-0.125
-0.075
-0.085
-0.075
-0.055
-0.04
0.0
-0.015
-0.055
-0.005
-0.02
-0.03
0.0
0.05
0.06
0.1
0.16
0.205
0.265
0.315
0.3
0.345
0.32
0.25
0.17
0.09
0.03
-0.01
-0.035
-0.06
-0.035
-0.035
-0.06
-0.05
-0.04
-0.06
-0.06
-0.045
-0.045
-0.05
-0.065
-0.035
-0.06
-0.045
-0.035
-0.05
-0.07
-0.06
-0.055
-0.05
-0.1
-0.085
-0.09
-0.09
-0.1
-0.08
-0.08
-0.1
-0.085
-0.09
-0.11
-0.08
-0.1
-0.085
-0.105
-0.11
-0.08
-0.02
0.065
0.075
0.035
-0.02
-0.025
-0.065
-0.135
-0.13
-0.14
-0.135
-0.175
-0.275
0.015
1.085
1.565
0.455
-0.415
-0.32
-0.21
-0.08
-0.095
-0.11
-0.09
-0.085
-0.085
-0.08
-0.075
-0.07
-0.065
-0.05
-0.03
-0.015
-0.015
0.015
0.01
0.05
0.075
0.105
0.145
0.19
0.245
0.29
0.31
0.345
0.305
0.265
0.17
0.085
0.035
-0.035
-0.07
-0.07
-0.06
-0.065
-0.05
-0.045
-0.07
-0.06
-0.045
-0.035
-0.05
-0.045
-0.05
-0.04
-0.035
-0.055
-0.065
-0.06
-0.085
-0.07
-0.07
-0.075
-0.085
-0.065
-0.09
-0.095
-0.085
-0.085
-0.07
-0.09
-0.1
-0.065
-0.095
-0.12
-0.12
-0.11
-0.125
-0.1
-0.115
-0.125
-0.11
-0.08
-0.035
0.05
0.065
0.03
-0.025
-0.025
-0.065
-0.15
-0.16
-0.15
-0.155
-0.155
-0.29
-0.115
0.815
1.645
0.675
-0.465
-0.365
-0.225
-0.105
-0.08
-0.115
-0.11
-0.075
-0.1
-0.105
-0.065
-0.065
-0.075
-0.03
-0.035
-0.035
-0.02
-0.005
0.025
0.055
0.095
0.115
0.15
0.225
0.255
0.32
0.36
0.365
0.365
0.285
0.23
0.14
0.065
0.025
0.0
-0.03
-0.03
-0.045
-0.045
-0.045
-0.04
-0.055
-0.035
-0.055
-0.005
-0.03
-0.06
0.0
-0.03
-0.07
-0.045
-0.055
-0.06
-0.03
-0.06
-0.075
-0.065
-0.065
-0.045
-0.08
-0.11
-0.1
-0.085
-0.085
-0.105
-0.065
-0.075
-0.13
-0.095
-0.115
-0.095
-0.105
-0.115
-0.125
-0.09
-0.025
0.06
0.065
0.015
-0.055
-0.03
-0.13
-0.15
-0.165
-0.17
-0.145
-0.23
-0.345
0.235
1.47
1.34
0.105
-0.43
-0.355
-0.215
-0.075
-0.105
-0.08
-0.11
-0.065
-0.075
-0.1
-0.075
-0.08
-0.045
-0.04
-0.025
0.0
-0.005
0.015
0.03
0.06
0.1
0.115
0.165
0.205
0.215
0.265
0.305
0.32
0.3
0.24
0.135
0.055
0.005
-0.04
-0.02
-0.065
-0.055
-0.065
-0.04
-0.06
-0.04
-0.035
-0.03
-0.045
-0.04
-0.03
-0.06
-0.065
-0.06
-0.065
-0.04
-0.06
-0.055
-0.09
-0.09
-0.075
-0.095
-0.09
-0.105
-0.085
-0.09
-0.12
-0.11
-0.095
-0.11
-0.125
-0.125
-0.095
-0.065
0.01
0.055
0.025
-0.01
-0.05
-0.075
-0.12
-0.125
-0.16
-0.155
-0.135
-0.245
-0.275
0.55
1.775
1.03
-0.23
-0.4
-0.335
-0.115
-0.08
-0.095
-0.09
-0.09
-0.08
-0.085
-0.085
-0.05
-0.02
-0.055
-0.04
-0.005
-0.01
0.01
0.03
0.055
0.09
0.115
0.155
0.19
0.25
0.295
0.325
0.35
0.34
0.265
0.21
0.145
0.06
0.0
-0.025
-0.045
-0.045
-0.035
-0.04
-0.035
-0.04
-0.03
-0.035
-0.045
-0.03
-0.03
-0.025
-0.02
-0.03
-0.04
-0.03
-0.05
-0.065
-0.055
-0.05
-0.065
-0.075
-0.065
-0.055
-0.07
-0.07
-0.08
-0.09
-0.08
-0.08
-0.085
-0.095
-0.11
-0.09
-0.095
-0.095
-0.105
-0.105
-0.1
-0.065
-0.015
0.075
0.085
0.03
-0.005
-0.025
-0.06
-0.135
-0.13
-0.135
-0.13
-0.145
-0.26
-0.045
0.91
1.675
0.625
-0.435
-0.35
-0.195
-0.08
-0.075
-0.075
-0.09
-0.085
-0.075
-0.06
-0.065
-0.07
-0.05
-0.055
-0.03
-0.02
0.0
0.01
0.04
0.06
0.09
0.115
0.165
0.215
0.255
0.295
0.34
0.355
0.325
0.27
0.195
0.105
0.06
0.015
-0.005
-0.035
-0.05
-0.04
-0.035
-0.035
-0.025
-0.03
-0.03
-0.035
-0.025
-0.01
-0.02
-0.035
-0.03
-0.03
-0.035
-0.045
-0.035
-0.055
-0.05
-0.04
-0.055
-0.065
-0.05
-0.03
-0.07
-0.075
-0.07
-0.055
-0.065
-0.075
-0.07
-0.085
-0.08
-0.075
-0.08
-0.085
-0.075
-0.095
-0.1
-0.095
-0.08
-0.1
-0.1
-0.115
-0.06
-0.02
0.055
0.08
0.035
-0.025
-0.035
-0.075
-0.13
-0.14
-0.135
-0.13
-0.135
-0.255
-0.045
0.935
1.525
0.5
-0.445
-0.33
-0.17
-0.095
-0.095
-0.085
-0.095
-0.09
-0.085
-0.1
-0.085
-0.065
-0.055
-0.065
-0.035
-0.035
-0.01
-0.005
0.025
0.035
0.06
0.09
0.16
0.19
0.235
0.28
0.33
0.345
0.335
0.275
0.18
0.11
0.06
-0.025
-0.05
-0.045
-0.045
-0.06
-0.04
-0.035
-0.05
-0.045
-0.035
-0.06
-0.05
-0.035
-0.05
-0.05
-0.05
-0.06
-0.06
-0.06
-0.03
-0.065
-0.055
-0.065
-0.075
-0.04
-0.035
-0.1
-0.1
-0.085
-0.075
-0.08
-0.08
-0.085
-0.095
-0.095
-0.095
-0.09
-0.095
-0.1
-0.08
-0.11
-0.115
-0.105
-0.05
0.025
0.115
0.055
0.0
-0.03
-0.05
-0.14
-0.13
-0.155
-0.125
-0.135
-0.3
-0.265
0.67
1.795
0.865
-0.285
-0.41
-0.315
-0.13
-0.095
-0.08
-0.09
-0.06
-0.075
-0.07
-0.075
-0.05
-0.05
-0.045
-0.01
-0.01
-0.01
0.02
0.02
0.08
0.105
0.1
0.165
0.205
0.22
0.27
0.315
0.35
0.32
0.31
0.195
0.125
0.055
0.03
-0.01
-0.04
-0.055
-0.055
-0.07
-0.035
-0.03
-0.055
-0.035
-0.025
-0.01
-0.04
-0.05
-0.035
-0.03
-0.02
-0.025
-0.07
-0.065
-0.045
-0.065
-0.04
-0.065
-0.055
-0.07
-0.07
-0.08
-0.07
-0.09
-0.07
-0.08
-0.07
-0.07
-0.095
-0.125
-0.07
-0.09
-0.085
-0.125
-0.1
-0.095
-0.12
-0.09
-0.035
0.025
0.05
0.06
-0.005
-0.06
-0.065
-0.12
-0.145
-0.13
-0.145
-0.16
-0.315
-0.15
0.915
1.755
0.66
-0.395
-0.395
-0.29
-0.115
-0.105
-0.08
-0.105
-0.095
-0.1
-0.07
-0.08
-0.05
-0.045
-0.05
-0.05
-0.015
-0.005
0.0
0.04
0.045
0.07
0.125
0.15
0.205
0.23
0.255
0.295
0.34
0.305
0.27
0.185
0.115
0.035
-0.005
-0.04
-0.045
-0.05
-0.03
-0.06
-0.045
-0.05
-0.04
-0.03
-0.015
-0.03
-0.02
-0.03
-0.04
-0.035
-0.03
-0.04
-0.03
-0.045
-0.05
-0.045
-0.035
-0.045
-0.065
-0.065
-0.05
-0.065
-0.065
-0.06
-0.045
-0.065
-0.07
-0.075
-0.07
-0.075
-0.08
-0.085
-0.08
-0.095
-0.09
-0.09
-0.095
-0.1
-0.105
-0.085
-0.085
-0.115
-0.09
-0.05
0.04
0.08
0.055
-0.01
-0.025
-0.05
-0.105
-0.14
-0.115
-0.13
-0.14
-0.285
-0.205
0.685
1.765
0.885
-0.39
-0.395
-0.245
-0.095
-0.085
-0.095
-0.08
-0.095
-0.08
-0.075
-0.075
-0.08
-0.08
-0.07
-0.055
-0.04
-0.015
0.0
0.02
0.045
0.08
0.115
0.15
0.185
0.24
0.285
0.335
0.345
0.365
0.305
0.23
0.13
0.065
0.02
0.005
-0.03
-0.025
-0.05
-0.025
-0.025
-0.025
-0.035
-0.02
-0.025
-0.015
-0.015
-0.005
-0.025
-0.01
-0.005
0.0
-0.015
-0.03
-0.03
-0.005
-0.025
-0.04
-0.03
-0.025
-0.025
-0.025
-0.04
-0.025
-0.025
-0.035
-0.05
-0.055
-0.045
-0.035
-0.055
-0.04
-0.05
-0.055
-0.06
-0.055
-0.07
-0.055
-0.065
-0.07
-0.08
-0.08
-0.075
-0.09
-0.1
-0.09
-0.095
-0.08
-0.09
-0.08
-0.1
-0.065
-0.02
0.06
0.08
0.04
-0.01
-0.03
-0.05
-0.11
-0.135
-0.12
-0.125
-0.145
-0.255
-0.005
0.955
1.53
0.505
-0.435
-0.335
-0.15
-0.08
-0.075
-0.08
-0.07
-0.075
-0.06
-0.08
-0.06
-0.055
-0.05
-0.05
-0.025
-0.01
0.0
0.005
0.035
0.07
0.1
0.12
0.17
0.21
0.265
0.305
0.355
0.38
0.365
0.31
0.235
0.15
0.095
0.02
0.005
-0.015
0.0
-0.03
-0.025
-0.01
-0.005
-0.01
0.0
-0.005
-0.005
0.0
-0.01
-0.005
-0.015
-0.025
-0.01
-0.02
-0.02
-0.02
-0.02
-0.025
-0.025
-0.035
-0.025
-0.03
-0.03
-0.05
-0.025
-0.05
-0.035
-0.045
-0.035
-0.04
-0.05
-0.06
-0.045
-0.03
-0.06
-0.055
-0.05
-0.06
-0.045
-0.065
-0.065
-0.065
-0.05
-0.08
-0.08
-0.065
-0.095
-0.085
-0.075
-0.075
-0.095
-0.105
-0.105
-0.13
-0.075
-0.02
0.055
0.055
0.045
-0.02
-0.045
-0.07
-0.105
-0.13
-0.115
-0.145
-0.175
-0.32
0.095
1.215
1.46
0.325
-0.43
-0.35
-0.23
-0.1
-0.08
-0.09
-0.07
-0.08
-0.055
-0.075
-0.07
-0.06
-0.06
-0.03
-0.03
-0.035
-0.005
0.005
0.07
0.08
0.08
0.105
0.16
0.185
0.235
0.285
0.32
0.33
0.335
0.275
0.21
0.13
0.065
0.005
-0.03
-0.035
-0.045
-0.045
-0.02
-0.04
-0.035
-0.03
-0.015
-0.01
-0.015
-0.04
-0.015
-0.03
-0.03
-0.025
-0.025
-0.04
-0.03
-0.05
-0.06
-0.045
-0.055
-0.05
-0.045
-0.07
-0.08
-0.055
-0.04
-0.05
-0.085
-0.075
-0.08
-0.085
-0.08
-0.08
-0.07
-0.08
-0.08
-0.095
-0.11
-0.095
-0.09
-0.095
-0.105
-0.085
-0.115
-0.12
-0.11
-0.11
-0.1
-0.035
0.04
0.075
0.04
-0.03
-0.025
-0.11
-0.135
-0.135
-0.145
-0.17
-0.215
-0.34
0.31
1.505
1.32
0.115
-0.44
-0.375
-0.225
-0.1
-0.07
-0.085
-0.08
-0.1
-0.085
-0.065
-0.06
-0.055
-0.025
-0.045
-0.015
-0.01
0.0
0.035
0.025
0.065
0.1
0.135
0.175
0.21
0.255
0.305
0.325
0.355
0.345
0.225
0.165
0.1
0.03
-0.02
-0.015
-0.045
-0.06
-0.045
-0.02
-0.095
-0.045
-0.015
-0.045
-0.02
-0.02
-0.025
-0.045
-0.025
-0.015
-0.06
-0.03
-0.035
-0.06
-0.035
-0.05
-0.075
-0.06
-0.09
-0.075
-0.07
-0.06
-0.075
-0.06
-0.065
-0.12
-0.06
-0.075
-0.085
-0.095
-0.1
-0.08
-0.1
-0.085
-0.11
-0.085
-0.09
-0.13
-0.125
-0.12
-0.12
-0.09
-0.045
-0.01
0.075
0.035
-0.055
-0.065
-0.08
-0.12
-0.125
-0.17
-0.135
-0.22
-0.33
0.28
1.445
1.43
0.2
-0.41
-0.37
-0.225
-0.095
-0.095
-0.105
-0.075
-0.11
-0.07
-0.09
-0.07
-0.045
-0.05
-0.055
-0.015
-0.045
0.0
0.05
0.015
0.065
0.09
0.14
0.155
0.205
0.265
0.305
0.36
0.33
0.335
0.25
0.14
0.045
0.0
-0.02
-0.035
-0.065
-0.055
-0.05
-0.07
-0.065
-0.06
-0.025
-0.04
-0.045
-0.03
-0.035
-0.035
-0.025
-0.02
-0.03
-0.03
-0.025
-0.065
-0.045
-0.04
-0.06
-0.055
-0.055
-0.075
-0.07
-0.08
-0.075
-0.065
-0.095
-0.055
-0.105
-0.12
-0.085
-0.11
-0.105
-0.09
-0.115
-0.12
-0.095
-0.11
-0.105
-0.13
-0.145
-0.105
-0.07
0.03
0.035
0.005
-0.02
-0.06
-0.085
-0.14
-0.135
-0.165
-0.165
-0.175
-0.32
0.12
1.235
1.59
0.375
-0.415
-0.36
-0.255
-0.105
-0.105
-0.115
-0.1
-0.085
-0.07
-0.095
-0.07
-0.07
-0.065
-0.03
-0.04
-0.015
-0.01
0.015
0.03
0.06
0.105
0.16
0.185
0.235
0.285
0.32
0.36
0.37
0.34
0.28
0.18
0.075
0.005
-0.01
-0.025
-0.055
-0.055
-0.045
-0.03
-0.06
-0.04
-0.02
-0.04
-0.025
-0.015
-0.01
-0.005
-0.005
0.005
-0.005
0.0
-0.025
0.0
-0.005
-0.025
-0.015
-0.03
-0.035
-0.035
-0.025
-0.04
-0.025
-0.045
-0.035
-0.035
-0.04
-0.035
-0.05
-0.035
-0.05
-0.06
-0.035
-0.06
-0.05
-0.05
-0.06
-0.07
-0.06
-0.065
-0.055
-0.05
-0.07
-0.075
-0.085
-0.075
-0.08
-0.07
-0.095
-0.075
-0.09
-0.105
-0.095
-0.095
-0.1
-0.095
-0.095
-0.115
-0.105
-0.115
-0.11
-0.085
-0.025
0.04
0.05
0.005
-0.045
-0.045
-0.085
-0.125
-0.14
-0.15
-0.13
-0.26
-0.2
0.705
1.795
0.905
-0.315
-0.355
-0.27
-0.115
-0.08
-0.085
-0.1
-0.09
-0.09
-0.07
-0.055
-0.065
-0.06
-0.065
-0.045
-0.045
-0.015
0.0
0.02
0.035
0.055
0.105
0.16
0.19
0.205
0.27
0.31
0.335
0.36
0.32
0.25
0.165
0.095
0.03
0.005
-0.025
-0.04
-0.04
-0.035
-0.03
-0.035
-0.025
-0.015
-0.005
-0.015
-0.015
0.0
0.0
0.0
-0.005
0.005
-0.005
0.0
-0.005
-0.015
-0.02
-0.01
-0.015
-0.025
-0.035
-0.03
-0.025
-0.04
-0.03
-0.015
-0.03
-0.03
-0.035
-0.03
-0.04
-0.03
-0.035
-0.045
-0.055
-0.055
-0.045
-0.04
-0.05
-0.05
-0.055
-0.06
-0.055
-0.055
-0.065
-0.06
-0.075
-0.065
-0.07
-0.07
-0.075
-0.085
-0.075
-0.06
-0.09
-0.09
-0.095
-0.1
-0.115
-0.09
-0.11
-0.115
-0.085
-0.045
0.03
0.07
0.025
-0.025
-0.06
-0.055
-0.115
-0.15
-0.145
-0.12
-0.17
-0.255
0.155
1.195
1.385
0.26
-0.395
-0.28
-0.135
-0.1
-0.095
-0.08
-0.085
-0.09
-0.095
-0.075
-0.075
-0.065
-0.06
-0.05
-0.035
-0.01
-0.01
0.015
0.02
0.04
0.095
0.115
0.145
0.2
0.245
0.29
0.34
0.375
0.35
0.29
0.2
0.145
0.06
0.01
-0.03
-0.025
-0.055
-0.05
-0.045
-0.04
-0.035
-0.025
-0.02
-0.015
-0.035
-0.01
-0.015
-0.02
0.0
-0.01
-0.015
-0.025
-0.01
-0.02
-0.02
-0.01
-0.025
-0.02
-0.035
-0.015
-0.03
-0.02
-0.035
-0.01
-0.04
-0.025
-0.025
-0.03
-0.035
-0.045
-0.04
-0.05
-0.035
-0.03
-0.035
-0.04
-0.025
-0.065
-0.07
-0.07
-0.07
-0.065
-0.075
-0.065
-0.075
-0.08
-0.09
-0.09
-0.11
-0.115
-0.11
-0.085
-0.09
-0.09
-0.1
-0.115
-0.075
-0.015
0.03
0.095
0.025
-0.02
-0.035
-0.045
-0.11
-0.145
-0.135
-0.125
-0.155
-0.25
-0.015
0.98
1.52
0.52
-0.445
-0.34
-0.185
-0.105
-0.105
-0.1
-0.09
-0.08
-0.07
-0.075
-0.085
-0.08
-0.05
-0.05
-0.05
0.0
-0.03
-0.015
0.03
0.06
0.075
0.09
0.13
0.2
0.25
0.29
0.335
0.36
0.37
0.33
0.245
0.15
0.07
0.01
-0.015
-0.04
-0.04
-0.045
-0.07
-0.04
-0.03
-0.04
-0.025
-0.04
-0.045
-0.005
-0.02
-0.005
-0.035
-0.035
-0.05
-0.035
-0.03
-0.04
-0.035
-0.035
-0.035
-0.03
-0.055
-0.05
-0.065
-0.055
-0.055
-0.065
-0.065
-0.07
-0.07
-0.08
-0.055
-0.07
-0.08
-0.08
-0.105
-0.085
-0.095
-0.105
-0.095
-0.08
-0.09
-0.08
-0.1
-0.105
-0.115
-0.105
-0.11
-0.12
-0.135
-0.1
-0.075
-0.02
0.025
0.015
0.055
-0.025
-0.07
-0.135
-0.15
-0.13
-0.155
-0.16
-0.33
-0.22
0.775
1.84
0.815
-0.325
-0.435
-0.34
-0.135
-0.105
-0.095
-0.065
-0.09
-0.09
-0.09
-0.065
-0.065
-0.05
-0.045
-0.045
-0.04
-0.015
0.0
0.015
0.06
0.085
0.095
0.14
0.185
0.225
0.275
0.325
0.355
0.35
0.305
0.25
0.155
0.09
0.015
-0.01
-0.04
-0.04
-0.045
-0.055
-0.03
-0.06
-0.035
-0.03
-0.035
-0.03
-0.04
-0.02
-0.015
-0.035
-0.04
-0.025
-0.045
-0.06
-0.065
-0.06
-0.06
-0.05
-0.065
-0.045
-0.08
-0.075
-0.075
-0.085
-0.095
-0.08
-0.085
-0.075
-0.07
-0.065
-0.11
-0.105
-0.1
-0.115
-0.1
-0.105
-0.105
-0.105
-0.105
-0.12
-0.125
-0.075
-0.01
0.07
0.03
0.01
-0.035
-0.05
-0.12
-0.145
-0.155
-0.145
-0.14
-0.28
-0.27
0.635
1.805
0.98
-0.27
-0.4
-0.32
-0.145
-0.105
-0.095
-0.105
-0.08
-0.09
-0.07
-0.09
-0.055
-0.05
-0.055
-0.06
-0.035
-0.005
0.015
0.015
0.05
0.08
0.12
0.15
0.19
0.24
0.295
0.35
0.37
0.355
0.325
0.25
0.17
0.075
0.02
-0.005
-0.015
-0.05
-0.05
-0.055
-0.035
-0.02
-0.04
-0.04
-0.03
-0.025
0.0
0.005
0.005
-0.025
-0.025
-0.01
-0.01
-0.025
-0.015
-0.02
-0.015
-0.025
-0.03
-0.035
-0.035
-0.01
-0.015
-0.06
-0.065
-0.055
-0.05
-0.045
-0.04
-0.07
-0.065
-0.06
-0.055
-0.065
-0.035
-0.065
-0.095
-0.095
-0.08
-0.09
-0.09
-0.09
-0.075
-0.095
-0.095
-0.085
-0.095
-0.115
-0.09
-0.12
-0.12
-0.125
-0.105
-0.095
-0.02
0.05
0.07
0.0
-0.035
-0.035
-0.09
-0.15
-0.13
-0.135
-0.14
-0.23
-0.24
0.51
1.645
1.09
-0.2
-0.38
-0.275
-0.12
-0.105
-0.105
-0.075
-0.095
-0.085
-0.095
-0.08
-0.085
-0.07
-0.07
-0.035
-0.04
-0.025
-0.005
0.015
0.02
0.05
0.09
0.15
0.165
0.2
0.255
0.34
0.34
0.345
0.33
0.275
0.18
0.115
0.045
0.01
-0.025
-0.05
-0.03
-0.035
-0.05
-0.045
-0.04
-0.03
-0.04
-0.01
-0.025
-0.025
-0.02
-0.015
-0.03
-0.02
-0.02
-0.025
-0.035
-0.025
-0.025
-0.025
-0.045
-0.035
-0.035
-0.045
-0.04
-0.02
-0.055
-0.065
-0.04
-0.045
-0.07
-0.05
-0.055
-0.055
-0.08
-0.06
-0.05
-0.06
-0.07
-0.06
-0.08
-0.075
-0.075
-0.065
-0.08
-0.06
-0.075
-0.09
-0.095
-0.065
-0.085
-0.09
-0.09
-0.09
-0.09
-0.1
-0.08
-0.11
-0.08
-0.03
0.03
0.08
0.055
0.0
-0.04
-0.07
-0.13
-0.125
-0.12
-0.125
-0.16
-0.265
0.105
1.15
1.41
0.35
-0.415
-0.33
-0.17
-0.095
-0.09
-0.07
-0.085
-0.065
-0.085
-0.075
-0.07
-0.07
-0.04
-0.03
-0.05
-0.03
-0.01
0.015
0.01
0.05
0.08
0.12
0.18
0.21
0.23
0.3
0.355
0.385
0.345
0.305
0.235
0.145
0.075
0.015
-0.01
-0.02
-0.03
-0.035
-0.02
-0.02
-0.045
-0.03
-0.02
-0.01
-0.02
-0.015
-0.015
-0.025
-0.015
-0.015
-0.025
-0.015
-0.02
-0.015
-0.04
-0.03
-0.045
-0.045
-0.04
-0.035
-0.04
-0.02
-0.045
-0.045
-0.055
-0.065
-0.055
-0.045
-0.055
-0.06
-0.05
-0.05
-0.05
-0.06
-0.08
-0.07
-0.07
-0.06
-0.08
-0.075
-0.08
-0.08
-0.095
-0.09
-0.08
-0.085
-0.095
-0.1
-0.09
-0.085
-0.095
-0.12
-0.115
-0.06
0.02
0.075
0.06
0.005
-0.03
-0.04
-0.1
-0.115
-0.145
-0.125
-0.15
-0.305
-0.13
0.895
1.715
0.665
-0.38
-0.35
-0.27
-0.11
-0.09
-0.085
-0.095
-0.075
-0.09
-0.075
-0.06
-0.06
-0.035
-0.05
-0.045
-0.035
-0.015
0.01
0.01
0.04
0.07
0.09
0.14
0.195
0.225
0.27
0.295
0.345
0.335
0.3
0.235
0.15
0.08
0.025
-0.005
-0.03
-0.045
-0.035
-0.035
-0.03
-0.05
-0.025
-0.02
-0.015
0.0
-0.01
-0.01
-0.01
-0.015
0.0
-0.01
-0.03
-0.03
-0.015
-0.02
-0.01
-0.025
-0.04
-0.045
-0.045
-0.045
-0.035
-0.04
-0.055
-0.05
-0.05
-0.055
-0.05
-0.055
-0.06
-0.065
-0.06
-0.075
-0.065
-0.08
-0.075
-0.075
-0.08
-0.08
-0.07
-0.085
-0.1
-0.085
-0.09
-0.09
-0.095
-0.105
-0.09
-0.095
-0.095
-0.105
-0.09
-0.08
-0.075
-0.01
0.08
0.065
0.035
-0.015
-0.055
-0.09
-0.12
-0.125
-0.115
-0.135
-0.25
-0.25
0.565
1.69
1.01
-0.275
-0.38
-0.25
-0.09
-0.09
-0.1
-0.1
-0.1
-0.08
-0.085
-0.07
-0.07
-0.06
-0.045
-0.045
-0.035
-0.025
0.01
0.01
0.035
0.045
0.1
0.145
0.185
0.23
0.29
0.32
0.36
0.365
0.34
0.295
0.215
0.12
0.035
0.005
-0.03
-0.03
-0.015
-0.025
-0.055
-0.045
-0.035
-0.01
-0.01
-0.01
-0.01
-0.035
-0.035
-0.025
-0.035
-0.01
-0.03
-0.025
-0.01
-0.025
0.0
-0.075
-0.055
-0.055
-0.02
-0.045
-0.02
-0.09
-0.035
-0.06
-0.125
-0.045
-0.035
-0.09
-0.05
-0.075
-0.11
-0.09
-0.105
-0.08
-0.14
-0.09
-0.105
-0.11
-0.115
-0.105
-0.11
-0.105
-0.11
-0.115
-0.11
-0.125
-0.095
-0.105
-0.115
-0.085
-0.04
0.045
0.04
0.05
0.01
-0.03
-0.055
-0.13
-0.135
-0.135
-0.13
-0.225
-0.335
0.265
1.455
1.385
0.135
-0.445
-0.36
-0.24
-0.095
-0.105
-0.085
-0.085
-0.095
-0.095
-0.09
-0.05
-0.055
-0.065
-0.045
-0.025
-0.005
-0.03
0.015
0.045
0.075
0.13
0.135
0.165
0.205
0.255
0.3
0.32
0.375
0.355
0.295
0.215
0.135
0.065
0.015
-0.015
-0.055
-0.07
-0.05
-0.035
-0.025
-0.025
-0.04
-0.035
-0.02
-0.025
-0.015
-0.02
-0.02
-0.01
-0.035
-0.03
-0.035
-0.02
-0.04
-0.045
-0.04
-0.06
-0.055
-0.06
-0.05
-0.045
-0.065
-0.08
-0.075
-0.065
-0.08
-0.09
-0.075
-0.09
-0.085
-0.095
-0.095
-0.1
-0.1
-0.105
-0.075
-0.095
-0.105
-0.105
-0.09
-0.115
-0.09
-0.045
0.015
0.07
0.045
0.015
-0.025
-0.035
-0.095
-0.135
-0.115
-0.11
-0.135
-0.245
-0.24
0.61
1.735
0.985
-0.315
-0.375
-0.26
-0.105
-0.095
-0.1
-0.085
-0.075
-0.07
-0.085
-0.065
-0.06
-0.05
-0.05
-0.035
-0.025
0.0
0.0
0.02
0.065
0.12
0.11
0.135
0.195
0.23
0.29
0.345
0.375
0.375
0.345
0.27
0.18
0.08
0.035
-0.005
-0.055
-0.07
-0.05
-0.07
-0.06
-0.045
-0.035
-0.045
-0.04
-0.03
-0.02
-0.035
-0.05
-0.05
-0.045
-0.045
-0.05
-0.045
-0.04
-0.055
-0.05
-0.06
-0.05
-0.045
-0.065
-0.08
-0.07
-0.06
-0.07
-0.08
-0.07
-0.08
-0.09
-0.09
-0.08
-0.085
-0.085
-0.09
-0.09
-0.05
-0.055
-0.07
-0.115
-0.12
-0.125
-0.115
-0.115
-0.125
-0.09
-0.035
0.065
0.09
0.03
-0.035
-0.055
-0.1
-0.15
-0.15
-0.145
-0.155
-0.175
-0.29
0.11
1.195
1.385
0.255
-0.42
-0.335
-0.185
-0.105
-0.095
-0.1
-0.1
-0.09
-0.09
-0.075
-0.07
-0.05
-0.06
-0.075
-0.045
-0.03
-0.01
-0.005
0.035
0.075
0.075
0.145
0.165
0.205
0.26
0.305
0.36
0.365
0.34
0.285
0.2
0.11
0.05
0.0
-0.025
-0.04
-0.055
-0.055
-0.05
-0.065
-0.05
-0.065
-0.045
-0.045
-0.025
-0.04
-0.025
-0.03
-0.025
-0.04
-0.04
-0.04
-0.05
-0.035
-0.03
-0.04
-0.05
-0.075
-0.075
-0.065
-0.035
-0.05
-0.065
-0.05
-0.03
-0.005
-0.05
-0.06
-0.08
-0.095
-0.055
-0.065
-0.075
-0.08
-0.065
-0.075
-0.065
-0.07
-0.055
-0.055
-0.065
-0.075
-0.085
-0.08
-0.08
-0.095
-0.095
-0.1
-0.05
0.0
0.075
0.08
0.075
-0.015
-0.04
-0.075
-0.115
-0.11
-0.12
-0.145
-0.21
-0.31
0.265
1.405
1.29
0.105
-0.43
-0.355
-0.195
-0.085
-0.09
-0.07
-0.085
-0.055
-0.095
-0.07
-0.065
-0.045
-0.015
-0.055
-0.03
-0.02
0.015
0.01
0.055
0.075
0.08
0.155
0.18
0.195
0.25
0.305
0.38
0.345
0.335
0.3
0.235
0.13
0.085
0.0
-0.03
-0.07
-0.045
-0.04
-0.05
-0.04
-0.025
-0.045
-0.045
-0.015
0.0
-0.025
-0.025
-0.02
-0.05
0.0
-0.04
-0.03
-0.035
-0.04
-0.045
-0.055
-0.055
-0.05
-0.045
-0.065
-0.04
-0.095
-0.07
-0.065
-0.075
-0.055
-0.09
-0.1
-0.065
-0.11
-0.07
-0.095
-0.11
-0.09
-0.1
-0.1
-0.07
-0.09
-0.145
-0.09
-0.02
0.025
0.045
0.025
0.005
-0.02
-0.065
-0.145
-0.155
-0.145
-0.13
-0.21
-0.315
0.12
1.24
1.55
0.365
-0.4
-0.35
-0.25
-0.1
-0.11
-0.095
-0.1
-0.085
-0.06
-0.065
-0.065
-0.05
-0.05
-0.02
-0.015
-0.025
0.0
0.02
0.04
0.07
0.08
0.115
0.185
0.25
0.24
0.295
0.355
0.375
0.345
0.27
0.19
0.1
0.05
0.01
-0.04
-0.055
-0.055
-0.035
-0.065
-0.07
-0.04
-0.03
-0.025
-0.025
-0.045
-0.02
-0.035
-0.035
-0.045
-0.03
-0.02
-0.04
-0.06
-0.045
-0.04
-0.045
-0.075
-0.07
-0.065
-0.065
-0.075
-0.08
-0.065
-0.075
-0.09
-0.105
-0.085
-0.085
-0.115
-0.095
-0.105
-0.115
-0.11
-0.095
-0.105
-0.11
-0.1
-0.055
-0.01
0.04
0.04
0.02
-0.025
-0.04
-0.105
-0.145
-0.15
-0.145
-0.155
-0.21
-0.295
0.345
1.495
1.245
-0.005
-0.415
-0.33
-0.175
-0.095
-0.11
-0.1
-0.095
-0.115
-0.09
-0.1
-0.08
-0.085
-0.065
-0.07
-0.05
-0.035
-0.015
0.0
0.02
0.07
0.085
0.125
0.175
0.22
0.265
0.31
0.34
0.355
0.335
0.25
0.18
0.11
0.03
-0.015
-0.03
-0.045
-0.035
-0.065
-0.055
-0.05
-0.045
-0.04
-0.03
-0.025
-0.025
-0.04
-0.02
-0.03
-0.01
-0.03
-0.035
-0.03
-0.025
-0.02
-0.015
-0.035
-0.05
-0.04
-0.03
-0.05
-0.04
-0.05
-0.04
-0.04
-0.04
-0.055
-0.05
-0.055
-0.055
-0.055
-0.05
-0.07
-0.06
-0.05
-0.065
-0.07
-0.065
-0.08
-0.07
-0.085
-0.08
-0.08
-0.09
-0.09
-0.085
-0.095
-0.095
-0.105
-0.1
-0.105
-0.095
-0.11
-0.105
-0.105
-0.105
-0.115
-0.115
-0.09
-0.075
-0.015
0.045
0.02
-0.01
-0.05
-0.05
-0.11
-0.16
-0.16
-0.15
-0.17
-0.285
-0.245
0.635
1.69
0.865
-0.425
-0.4
-0.245
-0.115
-0.135
-0.135
-0.15
-0.135
-0.125
-0.135
-0.13
-0.105
-0.115
-0.105
-0.11
-0.09
-0.05
-0.015
-0.02
-0.01
0.02
0.075
0.115
0.145
0.215
0.235
0.28
0.325
0.335
0.31
0.25
0.165
0.09
0.03
-0.035
-0.06
-0.075
-0.06
-0.075
-0.045
-0.06
-0.04
-0.04
-0.035
-0.04
-0.03
-0.04
-0.015
-0.03
-0.04
-0.04
-0.06
-0.055
-0.025
-0.04
-0.04
-0.055
-0.035
-0.035
-0.06
-0.065
-0.045
-0.05
-0.055
-0.06
-0.06
-0.075
-0.05
-0.04
-0.055
-0.08
-0.075
-0.07
-0.065
-0.075
-0.065
-0.08
-0.095
-0.105
-0.075
-0.07
-0.075
-0.085
-0.085
-0.095
-0.075
-0.09
-0.1
-0.105
-0.11
-0.125
-0.11
-0.115
-0.125
-0.145
-0.14
-0.1
-0.055
-0.01
0.03
0.015
-0.01
-0.05
-0.065
-0.13
-0.14
-0.18
-0.16
-0.175
-0.33
-0.02
1.06
1.585
0.47
-0.395
-0.395
-0.285
-0.105
-0.125
-0.11
-0.13
-0.105
-0.09
-0.09
-0.065
-0.045
-0.095
-0.05
-0.075
-0.08
-0.015
-0.01
-0.005
0.03
0.05
0.1
0.15
0.195
0.22
0.25
0.3
0.325
0.345
0.305
0.21
0.14
0.07
0.005
-0.035
-0.045
-0.06
-0.05
-0.07
-0.06
-0.065
-0.04
-0.05
-0.025
-0.045
-0.04
-0.025
-0.05
-0.035
-0.035
-0.035
-0.055
-0.075
-0.045
-0.06
-0.035
-0.07
-0.065
-0.05
-0.065
-0.085
-0.085
-0.09
-0.075
-0.095
-0.08
-0.095
-0.095
-0.1
-0.095
-0.095
-0.105
-0.115
-0.115
-0.105
-0.1
-0.13
-0.13
-0.14
-0.12
-0.11
-0.115
-0.115
-0.145
-0.14
-0.1
-0.05
0.015
0.03
0.025
-0.06
-0.075
-0.12
-0.135
-0.175
-0.17
-0.17
-0.255
-0.295
0.445
1.63
1.15
-0.085
-0.425
-0.35
-0.185
-0.11
-0.105
-0.105
-0.105
-0.115
-0.105
-0.09
-0.08
-0.075
-0.05
-0.06
-0.055
-0.025
0.0
0.0
0.055
0.055
0.07
0.105
0.165
0.21
0.27
0.305
0.355
0.35
0.33
0.275
0.175
0.08
0.025
-0.02
-0.045
-0.065
-0.07
-0.075
-0.06
-0.055
-0.06
-0.055
-0.035
-0.035
-0.03
-0.045
-0.03
-0.015
-0.01
-0.01
-0.025
-0.025
-0.02
-0.02
-0.005
-0.025
-0.035
-0.035
-0.01
-0.045
-0.03
-0.045
-0.045
-0.045
-0.045
-0.045
-0.035
-0.06
-0.055
-0.055
-0.055
-0.05
-0.055
-0.065
-0.06
-0.07
-0.075
-0.08
-0.07
-0.1
-0.08
-0.085
-0.085
-0.095
-0.09
-0.09
-0.09
-0.105
-0.08
-0.09
-0.115
-0.115
-0.1
-0.11
-0.105
-0.1
-0.095
-0.08
-0.01
0.065
0.05
0.005
-0.025
-0.07
-0.09
-0.145
-0.135
-0.145
-0.145
-0.265
-0.26
0.535
1.62
1.005
-0.28
-0.375
-0.24
-0.125
-0.13
-0.135
-0.1
-0.105
-0.105
-0.115
-0.1
-0.095
-0.065
-0.075
-0.055
-0.045
-0.025
-0.03
-0.01
0.02
0.06
0.07
0.11
0.155
0.21
0.265
0.305
0.34
0.38
0.345
0.265
0.175
0.125
0.035
-0.015
-0.03
-0.05
-0.04
-0.04
-0.05
-0.03
-0.03
-0.035
-0.025
-0.01
-0.015
-0.025
-0.015
0.005
-0.015
-0.025
-0.03
-0.015
-0.025
-0.015
-0.015
-0.02
-0.035
-0.03
-0.025
-0.025
-0.02
-0.03
-0.035
-0.03
-0.03
-0.01
-0.055
-0.055
-0.05
-0.04
-0.055
-0.05
-0.045
-0.06
-0.05
-0.055
-0.06
-0.06
-0.06
-0.08
-0.075
-0.06
-0.07
-0.08
-0.09
-0.075
-0.075
-0.075
-0.075
-0.065
-0.08
-0.09
-0.095
-0.105
-0.105
-0.095
-0.045
0.06
0.065
0.045
-0.025
-0.025
-0.08
-0.145
-0.135
-0.13
-0.14
-0.21
-0.32
0.22
1.38
1.34
0.155
-0.465
-0.37
-0.215
-0.095
-0.1
-0.115
-0.085
-0.09
-0.105
-0.07
-0.09
-0.095
-0.06
-0.05
-0.055
-0.055
-0.015
-0.005
0.02
0.04
0.06
0.11
0.16
0.205
0.255
0.285
0.345
0.35
0.345
0.325
0.24
0.145
0.07
-0.01
-0.025
-0.05
-0.03
-0.04
-0.045
-0.035
-0.065
-0.045
-0.03
-0.025
-0.02
-0.015
-0.055
-0.01
-0.04
-0.025
-0.025
-0.035
-0.005
-0.035
-0.05
-0.065
-0.055
-0.065
-0.025
-0.06
-0.055
-0.065
-0.055
-0.07
-0.065
-0.055
-0.07
-0.09
-0.08
-0.075
-0.085
-0.105
-0.08
-0.08
-0.095
-0.085
-0.11
-0.105
-0.105
-0.1
-0.095
-0.105
-0.095
-0.11
-0.105
-0.1
-0.07
0.0
0.05
0.055
-0.01
-0.03
-0.045
-0.15
-0.135
-0.15
-0.14
-0.15
-0.315
-0.11
0.92
1.775
0.675
-0.38
-0.385
-0.3
-0.13
-0.105
-0.1
-0.09
-0.09
-0.095
-0.08
-0.08
-0.06
-0.06
-0.055
-0.05
-0.03
-0.015
0.005
0.04
0.045
0.07
0.105
0.16
0.21
0.24
0.275
0.325
0.37
0.365
0.305
0.25
0.17
0.07
0.015
0.0
-0.015
-0.045
-0.055
-0.04
-0.04
-0.035
-0.015
-0.02
-0.03
-0.015
-0.005
-0.01
-0.005
-0.005
-0.005
-0.01
-0.025
0.0
-0.01
-0.02
-0.005
-0.015
-0.03
-0.035
-0.03
-0.035
-0.035
-0.03
-0.035
-0.03
-0.04
-0.05
-0.06
-0.055
-0.055
-0.06
-0.055
-0.055
-0.07
-0.07
-0.08
-0.08
-0.075
-0.07
-0.075
-0.085
-0.075
-0.085
-0.07
-0.085
-0.1
-0.105
-0.105
-0.095
-0.115
-0.11
-0.115
-0.08
-0.015
0.04
0.06
0.015
-0.04
-0.045
-0.065
-0.125
-0.14
-0.14
-0.14
-0.2
-0.27
0.185
1.25
1.39
0.215
-0.405
-0.3
-0.14
-0.1
-0.1
-0.1
-0.095
-0.085
-0.085
-0.075
-0.08
-0.08
-0.06
-0.06
-0.055
-0.045
-0.02
0.005
0.015
0.045
0.075
0.115
0.155
0.21
0.26
0.3
0.365
0.39
0.36
0.3
0.215
0.135
0.065
0.025
-0.015
-0.04
-0.04
-0.04
-0.035
-0.04
-0.035
-0.03
-0.02
-0.03
-0.01
-0.02
-0.025
-0.025
-0.015
-0.015
-0.02
-0.01
-0.01
-0.02
-0.025
-0.025
-0.025
-0.02
-0.005
-0.03
-0.03
-0.04
-0.03
-0.02
-0.015
-0.01
-0.03
-0.045
-0.05
-0.045
-0.05
-0.04
-0.035
-0.035
-0.05
-0.05
-0.04
-0.055
-0.05
-0.05
-0.05
-0.055
-0.055
-0.08
-0.07
-0.07
-0.055
-0.085
-0.06
-0.05
-0.07
-0.075
-0.09
-0.09
-0.09
-0.11
-0.085
-0.05
0.025
0.075
0.035
0.015
-0.02
-0.03
-0.085
-0.125
-0.12
-0.14
-0.115
-0.27
-0.16
0.795
1.725
0.765
-0.39
-0.365
-0.25
-0.09
-0.09
-0.1
-0.095
-0.115
-0.09
-0.095
-0.065
-0.06
-0.095
-0.06
-0.055
-0.04
-0.025
-0.015
0.005
0.005
0.04
0.08
0.12
0.165
0.215
0.285
0.325
0.325
0.345
0.32
0.275
0.175
0.1
0.035
-0.015
-0.04
-0.065
-0.08
-0.035
-0.05
-0.055
-0.05
-0.04
-0.04
-0.03
-0.01
-0.015
-0.02
-0.015
-0.01
-0.03
-0.025
-0.015
-0.045
-0.025
-0.035
-0.035
-0.05
-0.025
-0.035
-0.045
-0.065
-0.075
-0.06
-0.055
-0.06
-0.065
-0.075
-0.07
-0.085
-0.085
-0.08
-0.065
-0.075
-0.085
-0.085
-0.08
-0.09
-0.095
-0.09
-0.105
-0.1
-0.09
-0.1
-0.095
-0.105
-0.11
-0.12
-0.085
-0.045
0.03
0.06
0.04
0.0
-0.025
-0.055
-0.12
-0.145
-0.14
-0.135
-0.15
-0.3
-0.01
1.04
1.61
0.5
-0.43
-0.36
-0.24
-0.105
-0.1
-0.1
-0.11
-0.08
-0.08
-0.095
-0.07
-0.065
-0.055
-0.065
-0.04
-0.04
-0.02
0.0
0.025
0.065
0.08
0.105
0.185
0.19
0.245
0.295
0.345
0.375
0.365
0.32
0.25
0.155
0.075
0.015
-0.01
-0.035
-0.035
-0.05
-0.04
-0.04
-0.025
-0.035
-0.025
-0.015
0.0
0.005
0.005
-0.02
-0.005
-0.015
-0.01
-0.02
-0.02
-0.025
-0.015
-0.015
-0.01
-0.025
-0.025
-0.025
-0.025
-0.025
-0.04
-0.025
-0.045
-0.05
-0.05
-0.05
-0.04
-0.055
-0.03
-0.05
-0.06
-0.06
-0.065
-0.065
-0.07
-0.07
-0.07
-0.085
-0.07
-0.085
-0.065
-0.085
-0.08
-0.105
-0.095
-0.11
-0.105
-0.09
-0.095
-0.125
-0.095
-0.06
0.01
0.07
0.015
-0.025
-0.055
-0.05
-0.105
-0.15
-0.14
-0.145
-0.13
-0.295
-0.215
0.75
1.8
0.85
-0.36
-0.405
-0.3
-0.13
-0.095
-0.1
-0.1
-0.1
-0.095
-0.095
-0.095
-0.09
-0.065
-0.07
-0.035
-0.02
-0.015
-0.01
0.03
0.04
0.07
0.09
0.14
0.19
0.23
0.28
0.325
0.365
0.375
0.33
0.27
0.175
0.115
0.025
-0.005
-0.02
-0.035
-0.035
-0.03
-0.04
-0.03
-0.03
-0.025
-0.025
-0.01
-0.005
-0.01
-0.02
-0.005
-0.025
0.0
0.0
-0.025
-0.025
-0.025
-0.025
-0.015
-0.03
-0.04
-0.05
-0.03
-0.04
-0.035
-0.04
-0.045
-0.06
-0.05
-0.055
-0.05
-0.065
-0.06
-0.06
-0.05
-0.07
-0.055
-0.065
-0.07
-0.075
-0.08
-0.085
-0.085
-0.085
-0.075
-0.085
-0.085
-0.09
-0.08
-0.105
-0.095
-0.105
-0.125
-0.1
-0.06
0.01
0.085
0.045
0.0
-0.04
-0.04
-0.11
-0.145
-0.145
-0.145
-0.155
-0.265
-0.14
0.79
1.715
0.79
-0.4
-0.355
-0.23
-0.105
-0.1
-0.09
-0.115
-0.105
-0.11
-0.095
-0.09
-0.09
-0.075
-0.08
-0.075
-0.055
-0.04
-0.01
0.01
0.025
0.05
0.1
0.14
0.18
0.225
0.285
0.32
0.365
0.385
0.345
0.255
0.18
0.095
0.05
-0.01
-0.035
-0.035
-0.045
-0.06
-0.025
-0.025
-0.035
-0.045
-0.03
-0.03
-0.015
-0.025
-0.005
-0.02
-0.02
-0.015
-0.02
-0.02
-0.02
-0.035
-0.02
-0.03
-0.03
-0.035
-0.015
-0.025
-0.02
-0.04
-0.04
-0.04
-0.05
-0.05
-0.05
-0.065
-0.035
-0.06
-0.04
-0.045
-0.05
-0.055
-0.035
-0.06
-0.07
-0.065
-0.08
-0.08
-0.07
-0.07
-0.085
-0.055
-0.075
-0.105
-0.08
-0.075
-0.115
-0.105
-0.1
-0.105
-0.105
-0.135
-0.095
-0.065
0.03
0.07
0.055
0.0
-0.01
-0.055
-0.125
-0.15
-0.115
-0.145
-0.175
-0.35
0.09
1.28
1.54
0.34
-0.42
-0.385
-0.25
-0.095
-0.1
-0.095
-0.085
-0.095
-0.075
-0.08
-0.08
-0.095
-0.04
-0.06
-0.065
-0.035
-0.035
-0.01
0.02
0.055
0.095
0.09
0.145
0.2
0.245
0.275
0.315
0.345
0.35
0.31
0.24
0.16
0.08
0.0
-0.03
-0.045
-0.035
-0.045
-0.045
-0.06
-0.045
-0.065
-0.015
-0.015
-0.01
-0.025
-0.015
-0.015
-0.015
-0.01
-0.005
-0.01
-0.02
-0.035
-0.035
-0.01
-0.04
-0.045
-0.06
-0.06
-0.045
-0.045
-0.035
-0.065
-0.06
-0.07
-0.06
-0.075
-0.07
-0.07
-0.065
-0.075
-0.09
-0.09
-0.075
-0.065
-0.07
-0.09
-0.085
-0.09
-0.11
-0.105
-0.095
-0.11
-0.115
-0.1
-0.115
-0.11
-0.07
-0.02
0.055
0.055
0.015
-0.04
-0.04
-0.105
-0.135
-0.145
-0.155
-0.14
-0.25
-0.28
0.545
1.745
1.12
-0.19
-0.375
-0.305
-0.155
-0.11
-0.105
-0.095
-0.09
-0.095
-0.075
-0.085
-0.06
-0.075
-0.055
-0.04
-0.015
-0.025
0.0
0.03
0.035
0.07
0.11
0.15
0.18
0.23
0.285
0.325
0.37
0.405
0.375
0.285
0.18
0.12
0.05
-0.005
-0.03
-0.035
-0.055
-0.055
-0.04
-0.045
-0.03
-0.03
-0.03
-0.015
0.0
-0.02
-0.015
-0.005
-0.015
-0.005
0.005
-0.005
-0.005
-0.01
-0.005
-0.015
-0.01
-0.02
-0.01
-0.04
-0.04
-0.04
-0.03
-0.04
-0.03
-0.04
-0.03
-0.045
-0.045
-0.04
-0.035
-0.05
-0.06
-0.08
-0.065
-0.065
-0.065
-0.07
-0.065
-0.075
-0.06
-0.075
-0.08
-0.06
-0.075
-0.095
-0.08
-0.09
-0.095
-0.09
-0.09
-0.1
-0.1
-0.095
-0.085
-0.095
-0.06
-0.045
0.01
0.065
0.045
0.01
-0.035
-0.06
-0.115
-0.13
-0.12
-0.125
-0.145
-0.26
-0.03
0.935
1.61
0.58
-0.41
-0.325
-0.16
-0.085
-0.08
-0.105
-0.085
-0.1
-0.075
-0.085
-0.075
-0.075
-0.075
-0.08
-0.07
-0.035
-0.02
0.0
0.005
0.02
0.06
0.075
0.15
0.195
0.235
0.28
0.335
0.375
0.375
0.335
0.29
0.195
0.11
0.045
0.02
-0.03
-0.055
-0.04
-0.025
-0.04
-0.025
-0.005
-0.01
-0.01
-0.015
-0.005
-0.005
-0.015
0.01
0.0
0.0
0.0
-0.01
-0.025
-0.02
-0.005
-0.01
-0.02
-0.015
-0.02
-0.02
-0.03
-0.025
-0.025
-0.03
-0.04
-0.035
-0.05
-0.03
-0.02
-0.03
-0.045
-0.04
-0.04
-0.05
-0.04
-0.04
-0.05
-0.035
-0.04
-0.06
-0.065
-0.065
-0.07
-0.055
-0.07
-0.04
-0.07
-0.09
-0.085
-0.06
-0.09
-0.075
-0.1
-0.09
-0.12
-0.135
-0.11
-0.11
-0.095
-0.055
0.025
0.055
0.01
-0.005
-0.025
-0.07
-0.12
-0.14
-0.13
-0.155
-0.215
-0.315
0.105
1.275
1.555
0.36
-0.41
-0.36
-0.245
-0.09
-0.12
-0.09
-0.065
-0.09
-0.08
-0.055
-0.05
-0.07
-0.075
-0.045
-0.03
-0.01
0.0
0.01
0.035
0.07
0.085
0.14
0.165
0.2
0.24
0.29
0.345
0.37
0.355
0.315
0.245
0.15
0.065
0.005
-0.035
-0.06
-0.07
-0.06
-0.05
-0.04
-0.065
-0.04
-0.045
-0.04
-0.03
-0.03
-0.04
-0.04
-0.03
-0.025
-0.03
-0.035
-0.035
-0.04
-0.045
-0.04
-0.045
-0.06
-0.055
-0.065
-0.065
-0.06
-0.075
-0.07
-0.07
-0.07
-0.065
-0.07
-0.07
-0.06
-0.065
-0.08
-0.085
-0.065
-0.085
-0.075
-0.09
-0.105
-0.09
-0.085
-0.09
-0.1
-0.095
-0.095
-0.09
-0.1
-0.105
-0.07
0.0
0.06
0.07
0.02
-0.015
-0.035
-0.045
-0.115
-0.13
-0.14
-0.14
-0.195
-0.245
0.33
1.42
1.29
0.055
-0.37
-0.27
-0.105
-0.095
-0.105
-0.09
-0.09
-0.095
-0.09
-0.075
-0.09
-0.075
-0.055
-0.055
-0.05
-0.04
-0.025
0.005
0.035
0.06
0.075
0.125
0.185
0.22
0.275
0.335
0.37
0.38
0.355
0.305
0.225
0.12
0.05
0.01
-0.015
-0.025
-0.05
-0.045
-0.05
-0.035
-0.025
-0.03
-0.03
-0.035
-0.03
-0.025
-0.035
-0.025
-0.015
-0.025
-0.03
-0.015
-0.025
-0.035
-0.025
-0.025
-0.02
-0.02
-0.025
-0.045
-0.03
-0.04
-0.04
-0.045
-0.04
-0.04
-0.04
-0.055
-0.04
-0.04
-0.035
-0.05
-0.055
-0.065
-0.045
-0.06
-0.07
-0.07
-0.07
-0.07
-0.065
-0.065
-0.065
-0.075
-0.075
-0.07
-0.085
-0.075
-0.09
-0.095
-0.09
-0.095
-0.09
-0.065
-0.02
0.07
0.07
0.045
-0.005
-0.035
-0.075
-0.15
-0.13
-0.125
-0.12
-0.23
-0.275
0.405
1.51
1.12
-0.115
-0.385
-0.255
-0.1
-0.095
-0.105
-0.09
-0.09
-0.09
-0.085
-0.07
-0.07
-0.08
-0.075
-0.055
-0.03
-0.005
-0.02
0.005
0.035
0.06
0.095
0.15
0.185
0.22
0.275
0.33
0.37
0.4
0.38
0.325
0.245
0.17
0.08
0.02
0.0
-0.03
-0.03
-0.03
-0.025
-0.015
-0.03
-0.025
-0.03
-0.02
-0.02
-0.025
-0.02
-0.025
-0.01
-0.02
-0.035
-0.04
-0.045
-0.04
-0.035
-0.045
-0.03
-0.05
-0.045
-0.055
-0.05
-0.055
-0.07
-0.065
-0.065
-0.06
-0.065
-0.065
-0.065
-0.06
-0.07
-0.08
-0.07
-0.065
-0.075
-0.075
-0.09
-0.105
-0.085
-0.09
-0.08
-0.105
-0.115
-0.1
-0.085
-0.095
-0.1
-0.115
-0.105
-0.095
-0.12
-0.085
-0.06
0.035
0.095
0.05
-0.01
-0.035
-0.09
-0.14
-0.16
-0.16
-0.165
-0.19
-0.31
-0.02
1.055
1.515
0.46
-0.455
-0.39
-0.235
-0.11
-0.125
-0.105
-0.1
-0.1
-0.1
-0.08
-0.065
-0.06
-0.06
-0.075
-0.045
-0.035
-0.015
0.01
0.035
0.035
0.07
0.095
0.145
0.205
0.255
0.3
0.33
0.375
0.38
0.32
0.28
0.2
0.085
0.045
-0.01
-0.05
-0.045
-0.045
-0.06
-0.05
-0.01
-0.035
-0.05
-0.02
-0.03
-0.015
-0.03
-0.02
-0.045
-0.03
-0.01
-0.04
-0.045
-0.065
-0.06
-0.05
-0.06
-0.065
-0.045
-0.055
-0.07
-0.055
-0.075
-0.06
-0.075
-0.075
-0.08
-0.11
-0.095
-0.07
-0.13
-0.125
-0.1
-0.095
-0.11
-0.095
-0.115
-0.12
-0.145
-0.105
-0.065
-0.005
0.055
0.04
0.01
-0.05
-0.09
-0.15
-0.105
-0.135
-0.145
-0.16
-0.38
-0.125
0.985
1.765
0.665
-0.37
-0.4
-0.31
-0.145
-0.105
-0.11
-0.105
-0.105
-0.075
-0.085
-0.08
-0.06
-0.065
-0.035
-0.035
-0.015
-0.01
0.01
0.025
0.05
0.105
0.115
0.16
0.19
0.255
0.315
0.345
0.35
0.37
0.31
0.23
0.125
0.06
0.005
-0.035
-0.06
-0.075
-0.08
-0.07
-0.055
-0.04
-0.055
-0.045
-0.045
-0.04
-0.045
-0.04
-0.05
-0.035
-0.045
-0.025
-0.055
-0.055
-0.055
-0.06
-0.05
-0.075
-0.07
-0.08
-0.09
-0.09
-0.095
-0.1
-0.075
-0.085
-0.1
-0.09
-0.085
-0.09
-0.09
-0.09
-0.12
-0.09
-0.09
-0.115
-0.115
-0.1
-0.11
-0.08
-0.04
0.04
0.07
0.035
-0.025
-0.035
-0.055
-0.13
-0.13
-0.125
-0.13
-0.175
-0.275
0.02
1.04
1.62
0.49
-0.41
-0.35
-0.205
-0.1
-0.095
-0.095
-0.1
-0.105
-0.1
-0.085
-0.08
-0.075
-0.06
-0.04
-0.05
-0.04
-0.005
0.0
0.025
0.045
0.075
0.105
0.16
0.21
0.27
0.29
0.33
0.365
0.365
0.275
0.195
0.1
0.035
-0.01
-0.025
-0.045
-0.045
-0.05
-0.065
-0.055
-0.045
-0.045
-0.03
-0.035
-0.02
-0.015
-0.005
-0.015
0.0
0.0
-0.02
-0.02
0.0
-0.02
-0.025
-0.025
-0.03
-0.04
-0.03
-0.035
-0.015
-0.035
-0.035
-0.035
-0.04
-0.045
-0.04
-0.04
-0.06
-0.055
-0.045
-0.07
-0.05
-0.06
-0.055
-0.045
-0.05
-0.055
-0.07
-0.065
-0.045
-0.055
-0.07
-0.08
-0.08
-0.08
-0.06
-0.07
-0.07
-0.07
-0.055
-0.09
-0.09
-0.08
-0.07
-0.075
-0.055
-0.025
0.045
0.08
0.045
-0.005
0.0
-0.03
-0.115
-0.135
-0.125
-0.125
-0.145
-0.26
0.095
1.07
1.425
0.355
-0.405
-0.295
-0.14
-0.1
-0.115
-0.12
-0.095
-0.095
-0.095
-0.095
-0.095
-0.07
-0.06
-0.07
-0.07
-0.055
-0.02
-0.005
0.03
0.04
0.065
0.105
0.155
0.195
0.245
0.29
0.345
0.36
0.365
0.335
0.275
0.175
0.105
0.035
0.0
-0.02
-0.025
-0.02
-0.03
-0.015
-0.02
-0.025
-0.01
-0.02
-0.015
-0.025
-0.01
-0.025
-0.01
-0.025
-0.02
-0.015
0.0
-0.02
-0.015
-0.03
-0.02
-0.045
-0.005
-0.03
-0.03
-0.035
-0.03
-0.035
-0.04
-0.035
-0.035
-0.025
-0.035
-0.045
-0.035
-0.04
-0.04
-0.04
-0.04
-0.045
-0.04
-0.055
-0.045
-0.045
-0.065
-0.07
-0.06
-0.07
-0.075
-0.085
-0.07
-0.08
-0.085
-0.085
-0.09
-0.085
-0.075
-0.09
-0.09
-0.125
-0.085
-0.06
0.045
0.045
0.025
-0.01
-0.01
-0.045
-0.095
-0.145
-0.145
-0.09
-0.14
-0.305
-0.07
1.02
1.72
0.6
-0.37
-0.375
-0.275
-0.1
-0.075
-0.09
-0.1
-0.075
-0.055
-0.075
-0.08
-0.055
-0.05
-0.045
-0.02
-0.025
0.0
0.015
0.015
0.035
0.1
0.095
0.15
0.17
0.225
0.29
0.36
0.35
0.35
0.33
0.255
0.17
0.105
0.03
0.0
-0.035
-0.03
-0.07
-0.025
-0.065
-0.05
-0.03
-0.04
0.0
-0.015
-0.025
-0.02
-0.02
-0.005
-0.035
0.015
-0.01
-0.05
-0.03
-0.03
-0.03
-0.02
-0.045
-0.035
-0.045
-0.075
-0.06
-0.03
-0.045
-0.06
-0.06
-0.07
-0.06
-0.06
-0.075
-0.06
-0.075
-0.09
-0.07
-0.055
-0.08
-0.075
-0.11
-0.105
-0.085
-0.105
-0.105
-0.1
-0.1
-0.1
-0.1
-0.095
-0.125
-0.11
-0.075
0.01
0.045
0.03
-0.005
-0.035
-0.06
-0.105
-0.13
-0.135
-0.115
-0.155
-0.31
-0.07
0.995
1.77
0.6
-0.4
-0.375
-0.255
-0.11
-0.105
-0.08
-0.08
-0.1
-0.105
-0.08
-0.07
-0.075
-0.07
-0.06
-0.04
-0.03
-0.005
0.005
0.03
0.045
0.07
0.095
0.13
0.19
0.24
0.27
0.325
0.355
0.355
0.29
0.235
0.15
0.08
0.0
-0.01
-0.025
-0.055
-0.065
-0.05
-0.065
-0.06
-0.04
-0.04
-0.045
-0.025
-0.03
-0.01
-0.025
-0.025
-0.025
-0.015
-0.02
-0.015
-0.03
-0.015
-0.035
-0.025
-0.03
-0.03
-0.04
-0.035
-0.025
-0.035
-0.04
-0.03
-0.035
-0.035
-0.04
-0.02
-0.05
-0.065
-0.045
-0.045
-0.07
-0.055
-0.035
-0.065
-0.08
-0.065
-0.08
-0.075
-0.075
-0.07
-0.08
-0.06
-0.09
-0.095
-0.085
-0.09
-0.115
-0.095
-0.11
-0.105
-0.125
-0.095
-0.075
-0.015
0.06
0.05
0.0
-0.035
-0.055
-0.1
-0.155
-0.135
-0.14
-0.135
-0.25
-0.25
0.58
1.725
1.045
-0.27
-0.355
-0.23
-0.12
-0.095
-0.095
-0.08
-0.09
-0.085
-0.095
-0.08
-0.06
-0.035
-0.06
-0.05
-0.04
0.0
-0.005
0.01
0.02
0.055
0.095
0.135
0.175
0.225
0.27
0.345
0.37
0.365
0.345
0.31
0.225
0.135
0.065
0.025
-0.015
-0.03
-0.05
-0.035
-0.015
-0.015
-0.045
-0.015
-0.005
-0.005
-0.02
-0.01
-0.02
-0.01
-0.015
-0.005
-0.01
-0.01
-0.01
-0.005
-0.02
-0.025
-0.04
-0.04
-0.045
-0.04
-0.04
-0.04
-0.05
-0.04
-0.05
-0.06
-0.055
-0.05
-0.065
-0.055
-0.045
-0.06
-0.05
-0.065
-0.075
-0.06
-0.065
-0.065
-0.055
-0.065
-0.09
-0.07
-0.075
-0.075
-0.075
-0.09
-0.105
-0.065
-0.115
-0.1
-0.11
-0.1
-0.04
-0.01
0.055
0.07
0.05
0.0
-0.045
-0.075
-0.125
-0.12
-0.125
-0.13
-0.265
-0.28
0.585
1.795
1.075
-0.21
-0.41
-0.32
-0.125
-0.085
-0.11
-0.08
-0.075
-0.095
-0.085
-0.08
-0.07
-0.06
-0.06
-0.025
-0.035
-0.015
0.0
0.015
0.035
0.08
0.085
0.125
0.19
0.235
0.265
0.335
0.355
0.4
0.355
0.285
0.215
0.12
0.07
0.005
-0.015
-0.03
-0.055
-0.035
-0.055
-0.04
-0.035
-0.045
-0.03
-0.04
-0.03
-0.025
-0.035
-0.025
-0.02
-0.01
-0.01
-0.04
-0.05
-0.04
-0.03
-0.04
-0.04
-0.075
-0.055
-0.05
-0.08
-0.06
-0.06
-0.04
-0.075
-0.07
-0.05
-0.08
-0.08
-0.085
-0.05
-0.085
-0.08
-0.09
-0.075
-0.085
-0.095
-0.08
-0.105
-0.12
-0.135
-0.1
-0.105
-0.095
-0.12
-0.12
-0.08
-0.01
0.04
0.05
0.01
-0.03
-0.045
-0.095
-0.165
-0.14
-0.14
-0.12
-0.32
-0.24
0.75
1.9
0.965
-0.27
-0.39
-0.335
-0.14
-0.13
-0.125
-0.1
-0.075
-0.1
-0.075
-0.075
-0.08
-0.055
-0.05
-0.055
-0.03
-0.02
-0.005
0.01
0.03
0.075
0.11
0.135
0.195
0.245
0.27
0.34
0.36
0.385
0.345
0.275
0.185
0.105
0.05
0.015
-0.03
-0.04
-0.025
-0.05
-0.055
-0.035
-0.02
-0.035
-0.025
-0.015
-0.025
-0.005
-0.015
0.0
0.005
-0.015
-0.02
-0.02
-0.01
-0.015
-0.025
-0.02
-0.02
-0.035
-0.03
-0.035
-0.045
-0.035
-0.035
-0.03
-0.03
-0.05
-0.07
-0.055
-0.07
-0.07
-0.055
-0.075
-0.07
-0.075
-0.075
-0.085
-0.08
-0.07
-0.08
-0.09
-0.09
-0.085
-0.075
-0.09
-0.095
-0.105
-0.105
-0.105
-0.1
-0.105
-0.1
-0.075
-0.015
0.045
0.055
0.01
-0.035
-0.05
-0.07
-0.125
-0.135
-0.145
-0.14
-0.235
-0.275
0.445
1.61
1.23
-0.09
-0.4
-0.32
-0.145
-0.09
-0.105
-0.1
-0.095
-0.07
-0.095
-0.095
-0.08
-0.055
-0.07
-0.045
-0.045
-0.03
-0.01
0.01
0.015
0.06
0.095
0.13
0.16
0.205
0.27
0.33
0.355
0.37
0.355
0.3
0.215
0.14
0.065
0.005
-0.005
-0.02
-0.04
-0.025
-0.035
-0.03
-0.02
-0.015
-0.01
-0.015
-0.015
-0.01
-0.005
0.01
0.0
-0.015
-0.01
0.0
-0.01
-0.005
-0.005
0.0
0.0
-0.015
-0.02
-0.02
-0.02
-0.025
-0.03
-0.02
-0.02
-0.025
-0.04
-0.035
-0.04
-0.055
-0.05
-0.04
-0.04
-0.045
-0.055
-0.055
-0.06
-0.05
-0.05
-0.05
-0.055
-0.06
-0.075
-0.07
-0.075
-0.06
-0.07
-0.07
-0.095
-0.085
-0.085
-0.075
-0.085
-0.1
-0.1
-0.085
-0.095
-0.075
-0.06
0.005
0.08
0.06
0.01
-0.015
-0.035
-0.07
-0.125
-0.125
-0.135
-0.135
-0.24
-0.235
0.595
1.705
1.01
-0.325
-0.37
-0.225
-0.105
-0.095
-0.095
-0.085
-0.11
-0.095
-0.1
-0.095
-0.085
-0.08
-0.06
-0.065
-0.065
-0.03
-0.025
-0.005
0.025
0.06
0.08
0.13
0.165
0.22
0.265
0.315
0.355
0.38
0.365
0.32
0.205
0.115
0.05
0.01
-0.02
-0.035
-0.035
-0.03
-0.035
-0.015
-0.03
-0.02
-0.01
-0.01
-0.025
-0.005
-0.01
0.0
-0.005
-0.015
-0.015
-0.015
-0.025
0.0
-0.01
-0.015
-0.035
-0.025
-0.015
-0.02
-0.01
-0.01
-0.015
-0.02
-0.04
-0.045
-0.04
-0.03
-0.035
-0.03
-0.04
-0.045
-0.055
-0.035
-0.03
-0.04
-0.055
-0.06
-0.07
-0.06
-0.06
-0.05
-0.09
-0.07
-0.055
-0.075
-0.07
-0.08
-0.09
-0.1
-0.09
-0.08
-0.085
-0.095
-0.105
-0.1
-0.115
-0.085
-0.105
-0.135
-0.12
-0.07
0.015
0.065
0.035
-0.005
-0.045
-0.045
-0.13
-0.135
-0.125
-0.14
-0.18
-0.335
-0.015
1.1
1.645
0.485
-0.42
-0.38
-0.26
-0.085
-0.1
-0.095
-0.095
-0.085
-0.085
-0.055
-0.07
-0.05
-0.04
-0.06
-0.06
-0.02
-0.02
0.005
0.005
0.04
0.07
0.13
0.15
0.175
0.22
0.26
0.33
0.35
0.355
0.34
0.275
0.22
0.075
0.05
-0.005
-0.03
-0.04
-0.04
-0.05
-0.025
-0.05
-0.045
-0.005
-0.025
-0.005
-0.02
-0.005
-0.025
-0.005
-0.025
-0.02
-0.01
-0.025
-0.02
-0.045
-0.005
-0.025
-0.03
-0.015
-0.025
-0.055
-0.045
-0.06
-0.04
-0.05
-0.03
-0.06
-0.045
-0.055
-0.065
-0.06
-0.06
-0.055
-0.06
-0.075
-0.075
-0.08
-0.07
-0.095
-0.09
-0.08
-0.09
-0.1
-0.09
-0.085
-0.115
-0.115
-0.11
-0.105
-0.105
-0.115
-0.09
-0.03
0.03
0.05
0.05
-0.02
-0.035
-0.07
-0.13
-0.14
-0.13
-0.145
-0.225
-0.3
0.42
1.595
1.315
0.01
-0.425
-0.345
-0.195
-0.09
-0.1
-0.105
-0.085
-0.075
-0.06
-0.07
-0.05
-0.055
-0.035
-0.04
-0.025
-0.01
0.005
0.015
0.045
0.07
0.13
0.12
0.17
0.205
0.265
0.31
0.365
0.375
0.36
0.31
0.235
0.14
0.08
0.01
-0.015
-0.035
-0.04
-0.04
-0.05
-0.045
-0.025
-0.03
-0.025
-0.025
-0.01
-0.01
0.0
-0.015
-0.015
-0.02
-0.005
-0.01
-0.01
-0.03
-0.02
-0.02
-0.02
-0.03
-0.03
-0.035
-0.03
-0.035
-0.025
-0.035
-0.03
-0.04
-0.045
-0.045
-0.045
-0.04
-0.03
-0.05
-0.035
-0.055
-0.05
-0.055
-0.055
-0.065
-0.045
-0.055
-0.065
-0.07
-0.07
-0.08
-0.07
-0.085
-0.08
-0.09
-0.085
-0.095
-0.095
-0.1
-0.09
-0.105
-0.07
-0.03
0.02
0.075
0.04
0.0
-0.025
-0.05
-0.095
-0.135
-0.135
-0.135
-0.14
-0.255
-0.015
0.95
1.625
0.565
-0.405
-0.315
-0.17
-0.095
-0.105
-0.11
-0.085
-0.085
-0.075
-0.08
-0.075
-0.075
-0.065
-0.045
-0.04
-0.035
-0.02
-0.015
0.025
0.04
0.085
0.12
0.165
0.18
0.24
0.28
0.345
0.38
0.38
0.36
0.285
0.18
0.105
0.045
-0.005
-0.035
-0.035
-0.055
-0.015
-0.035
-0.035
-0.015
-0.005
-0.015
-0.01
-0.01
-0.015
-0.02
-0.01
-0.01
-0.02
-0.015
0.0
-0.01
-0.01
-0.02
0.0
-0.03
-0.035
-0.035
-0.035
-0.04
-0.02
-0.045
-0.045
-0.04
-0.035
-0.05
-0.04
-0.05
-0.045
-0.055
-0.05
-0.04
-0.06
-0.055
-0.055
-0.06
-0.05
-0.06
-0.055
-0.06
-0.055
-0.055
-0.07
-0.09
-0.085
-0.095
-0.07
-0.095
-0.08
-0.085
-0.085
-0.1
-0.09
-0.105
-0.105
-0.06
0.0
0.065
0.055
0.01
-0.015
-0.035
-0.09
-0.14
-0.125
-0.125
-0.135
-0.33
-0.16
0.89
1.79
0.73
-0.35
-0.395
-0.305
-0.14
-0.105
-0.12
-0.095
-0.095
-0.1
-0.08
-0.085
-0.08
-0.05
-0.06
-0.04
-0.035
-0.01
0.01
0.03
0.035
0.08
0.1
0.125
0.18
0.225
0.28
0.335
0.365
0.35
0.33
0.295
0.225
0.135
0.065
0.02
-0.025
-0.005
-0.04
-0.045
-0.05
-0.025
-0.035
-0.02
-0.01
0.005
-0.015
-0.02
-0.01
-0.035
-0.03
-0.02
-0.025
-0.025
-0.04
-0.01
-0.02
-0.015
-0.055
-0.035
-0.045
-0.06
-0.055
-0.03
-0.045
-0.06
-0.05
-0.04
-0.07
-0.055
-0.06
-0.065
-0.06
-0.07
-0.05
-0.075
-0.085
-0.08
-0.09
-0.08
-0.075
-0.08
-0.085
-0.075
-0.09
-0.095
-0.1
-0.095
-0.105
-0.09
-0.115
-0.105
-0.085
-0.025
0.03
0.05
0.045
-0.025
-0.055
-0.08
-0.125
-0.125
-0.135
-0.13
-0.245
-0.27
0.53
1.745
1.135
-0.16
-0.405
-0.3
-0.14
-0.1
-0.105
-0.1
-0.11
-0.1
-0.1
-0.085
-0.085
-0.065
-0.07
-0.05
-0.045
-0.015
-0.01
0.015
0.02
0.055
0.085
0.135
0.165
0.21
0.255
0.325
0.355
0.365
0.355
0.31
0.225
0.14
0.075
0.02
-0.01
-0.035
-0.035
-0.04
-0.04
-0.035
-0.035
-0.03
-0.02
-0.01
-0.015
0.0
-0.01
0.0
-0.005
0.0
-0.005
-0.02
-0.015
-0.005
-0.015
-0.03
-0.025
-0.025
-0.02
-0.02
-0.035
-0.035
-0.045
-0.035
-0.03
-0.035
-0.045
-0.025
-0.055
-0.045
-0.055
-0.055
-0.06
-0.05
-0.055
-0.055
-0.065
-0.075
-0.07
-0.07
-0.09
-0.08
-0.08
-0.09
-0.095
-0.085
-0.095
-0.095
-0.1
-0.09
-0.09
-0.115
-0.11
-0.095
-0.11
-0.09
-0.04
0.03
0.07
0.025
-0.025
-0.05
-0.08
-0.13
-0.145
-0.15
-0.15
-0.185
-0.27
0.22
1.26
1.335
0.185
-0.38
-0.285
-0.155
-0.115
-0.1
-0.095
-0.09
-0.085
-0.095
-0.1
-0.09
-0.085
-0.08
-0.075
-0.045
-0.035
-0.04
-0.01
0.02
0.04
0.055
0.095
0.15
0.18
0.23
0.29
0.365
0.385
0.375
0.33
0.27
0.16
0.09
0.035
-0.01
-0.03
-0.035
-0.04
-0.035
-0.04
-0.04
-0.05
-0.04
-0.035
-0.025
-0.03
-0.02
-0.03
-0.035
-0.03
-0.01
-0.025
-0.03
-0.035
-0.025
-0.02
-0.02
-0.015
-0.035
-0.03
-0.04
-0.045
-0.04
-0.05
-0.05
-0.04
-0.035
-0.025
-0.035
-0.075
-0.05
-0.04
-0.05
-0.04
-0.015
-0.055
-0.065
-0.045
-0.05
-0.05
-0.065
-0.08
-0.075
-0.06
-0.06
-0.06
-0.065
-0.08
-0.08
-0.095
-0.09
-0.095
-0.075
-0.09
-0.105
-0.105
-0.08
-0.1
-0.115
-0.115
-0.105
-0.065
0.02
0.055
0.025
-0.005
-0.05
-0.07
-0.13
-0.145
-0.145
-0.15
-0.205
-0.34
0.23
1.45
1.39
0.14
-0.47
-0.375
-0.235
-0.11
-0.095
-0.145
-0.095
-0.12
-0.1
-0.095
-0.09
-0.08
-0.06
-0.07
-0.05
-0.035
-0.02
0.005
0.025
0.055
0.075
0.095
0.135
0.205
0.225
0.275
0.335
0.36
0.37
0.315
0.26
0.19
0.1
0.045
0.005
-0.025
-0.03
-0.02
-0.015
-0.04
-0.01
-0.02
0.0
0.0
-0.015
0.0
0.0
0.005
-0.005
-0.01
0.0
-0.005
0.0
-0.015
-0.035
-0.025
-0.03
-0.025
-0.02
-0.035
-0.03
-0.045
-0.05
-0.05
-0.045
-0.045
-0.04
-0.045
-0.045
-0.055
-0.065
-0.05
-0.045
-0.07
-0.07
-0.06
-0.07
-0.07
-0.065
-0.06
-0.075
-0.065
-0.075
-0.075
-0.075
-0.075
-0.08
-0.1
-0.1
-0.1
-0.085
-0.09
-0.11
-0.09
-0.06
0.005
0.065
0.05
0.01
-0.035
-0.04
-0.105
-0.135
-0.14
-0.135
-0.14
-0.285
-0.1
0.88
1.745
0.71
-0.405
-0.365
-0.25
-0.1
-0.11
-0.11
-0.1
-0.1
-0.09
-0.095
-0.085
-0.075
-0.065
-0.075
-0.075
-0.075
-0.04
-0.02
0.0
0.02
0.05
0.085
0.135
0.165
0.205
0.27
0.325
0.36
0.355
0.325
0.265
0.185
0.095
0.035
0.0
-0.035
-0.04
-0.045
-0.045
-0.05
-0.055
-0.05
-0.045
-0.025
-0.015
-0.03
-0.025
-0.025
-0.015
-0.025
-0.015
-0.03
-0.02
-0.03
-0.04
-0.025
-0.035
-0.05
-0.04
-0.055
-0.05
-0.05
-0.045
-0.04
-0.04
-0.04
-0.045
-0.045
-0.055
-0.055
-0.06
-0.07
-0.06
-0.065
-0.06
-0.06
-0.055
-0.06
-0.06
-0.065
-0.07
-0.09
-0.095
-0.085
-0.09
-0.095
-0.085
-0.085
-0.09
-0.09
-0.09
-0.095
-0.105
-0.105
-0.1
-0.115
-0.12
-0.105
-0.115
-0.1
-0.115
-0.095
-0.06
-0.005
0.085
0.055
0.005
-0.035
-0.04
-0.1
-0.125
-0.13
-0.14
-0.135
-0.25
-0.14
0.81
1.73
0.795
-0.41
-0.345
-0.23
-0.1
-0.1
-0.1
-0.075
-0.085
-0.095
-0.07
-0.08
-0.095
-0.075
-0.065
-0.055
-0.045
-0.045
-0.03
0.0
0.025
0.06
0.085
0.11
0.155
0.2
0.275
0.32
0.35
0.355
0.34
0.295
0.205
0.135
0.07
0.01
-0.015
-0.04
-0.06
-0.05
-0.045
-0.045
-0.025
-0.02
-0.02
-0.025
-0.025
-0.035
-0.025
-0.025
-0.025
-0.01
-0.015
-0.025
-0.025
-0.035
-0.03
-0.04
-0.03
-0.025
-0.03
-0.06
-0.05
-0.055
-0.055
-0.04
-0.035
-0.075
-0.055
-0.04
-0.055
-0.05
-0.05
-0.07
-0.06
-0.07
-0.07
-0.065
-0.065
-0.08
-0.08
-0.07
-0.055
-0.07
-0.08
-0.08
-0.08
-0.09
-0.105
-0.095
-0.08
-0.105
-0.105
-0.11
-0.11
-0.125
-0.1
-0.05
0.035
0.025
0.05
0.0
-0.025
-0.105
-0.145
-0.145
-0.145
-0.155
-0.255
-0.335
0.335
1.54
1.295
0.055
-0.465
-0.38
-0.22
-0.125
-0.085
-0.115
-0.105
-0.1
-0.09
-0.105
-0.075
-0.065
-0.07
-0.035
-0.05
-0.04
-0.005
0.0
0.04
0.05
0.09
0.095
0.155
0.215
0.245
0.295
0.335
0.38
0.385
0.32
0.265
0.185
0.095
0.015
0.0
-0.025
-0.04
-0.035
-0.04
-0.04
-0.025
-0.03
-0.015
-0.015
0.0
-0.01
-0.005
-0.015
-0.01
0.0
-0.01
-0.025
-0.025
-0.02
-0.025
-0.025
-0.01
-0.035
-0.03
-0.035
-0.035
-0.035
-0.03
-0.035
-0.04
-0.035
-0.035
-0.035
-0.04
-0.045
-0.035
-0.05
-0.06
-0.065
-0.065
-0.07
-0.05
-0.065
-0.05
-0.07
-0.07
-0.085
-0.065
-0.09
-0.07
-0.08
-0.09
-0.095
-0.095
-0.105
-0.085
-0.095
-0.085
-0.105
-0.11
-0.095
-0.04
0.03
0.07
0.02
-0.005
-0.045
-0.05
-0.13
-0.12
-0.125
-0.14
-0.18
-0.265
0.215
1.315
1.38
0.225
-0.41
-0.315
-0.17
-0.08
-0.085
-0.09
-0.095
-0.085
-0.09
-0.065
-0.055
-0.07
-0.07
-0.06
-0.05
-0.025
-0.015
0.01
0.02
0.04
0.08
0.125
0.16
0.215
0.25
0.3
0.35
0.385
0.37
0.345
0.27
0.19
0.11
0.05
0.0
-0.005
-0.02
-0.03
-0.025
-0.02
-0.02
-0.015
-0.02
-0.015
-0.015
-0.01
-0.005
0.0
-0.015
-0.015
0.005
0.0
-0.02
0.0
-0.02
0.0
-0.02
-0.015
-0.025
-0.015
-0.03
-0.02
-0.025
-0.025
-0.03
-0.015
-0.045
-0.045
-0.045
-0.03
-0.055
-0.04
-0.045
-0.045
-0.045
-0.045
-0.055
-0.06
-0.065
-0.055
-0.065
-0.06
-0.07
-0.065
-0.075
-0.07
-0.075
-0.08
-0.085
-0.065
-0.085
-0.085
-0.08
-0.075
-0.11
-0.105
-0.095
-0.095
-0.105
-0.095
-0.11
-0.08
-0.065
0.02
0.06
0.035
-0.005
-0.035
-0.075
-0.1
-0.135
-0.12
-0.135
-0.165
-0.29
0.045
1.095
1.5
0.425
-0.415
-0.33
-0.19
-0.105
-0.105
-0.095
-0.09
-0.105
-0.075
-0.09
-0.085
-0.065
-0.045
-0.07
-0.045
-0.035
0.0
0.02
0.02
0.035
0.075
0.105
0.14
0.195
0.255
0.285
0.325
0.36
0.405
0.37
0.31
0.23
0.14
0.065
0.015
0.0
-0.01
-0.03
-0.01
-0.035
-0.04
-0.03
-0.025
-0.025
-0.01
0.0
0.0
-0.035
-0.005
-0.015
-0.02
-0.015
-0.03
-0.015
-0.025
-0.025
-0.03
-0.045
-0.025
-0.05
-0.03
-0.055
-0.035
-0.04
-0.055
-0.07
-0.035
-0.06
-0.045
-0.07
-0.065
-0.055
-0.045
-0.055
-0.06
-0.08
-0.075
-0.07
-0.085
-0.115
-0.095
-0.07
-0.085
-0.075
-0.075
-0.09
-0.1
-0.105
-0.1
-0.11
-0.095
-0.095
-0.085
-0.125
-0.11
-0.05
0.035
0.06
0.04
-0.005
-0.035
-0.04
-0.12
-0.14
-0.145
-0.145
-0.17
-0.325
0.03
1.13
1.65
0.445
-0.41
-0.35
-0.255
-0.125
-0.115
-0.125
-0.095
-0.105
-0.08
-0.08
-0.07
-0.075
-0.07
-0.05
-0.035
-0.035
-0.01
0.005
0.0
0.04
0.07
0.12
0.17
0.19
0.235
0.29
0.345
0.365
0.375
0.335
0.3
0.19
0.125
0.05
0.005
-0.03
-0.02
-0.025
-0.03
-0.025
-0.03
-0.04
-0.01
-0.02
-0.005
-0.005
-0.005
-0.02
-0.015
-0.01
-0.005
-0.005
-0.015
-0.03
-0.04
-0.04
-0.03
-0.04
-0.02
-0.04
-0.04
-0.035
-0.035
-0.05
-0.05
-0.06
-0.055
-0.06
-0.055
-0.06
-0.045
-0.07
-0.06
-0.065
-0.075
-0.075
-0.08
-0.055
-0.07
-0.09
-0.1
-0.085
-0.09
-0.1
-0.07
-0.095
-0.11
-0.095
-0.1
-0.11
-0.095
-0.115
-0.07
-0.05
0.02
0.07
0.03
0.0
-0.005
-0.06
-0.115
-0.125
-0.125
-0.145
-0.175
-0.265
0.2
1.265
1.445
0.27
-0.4
-0.32
-0.175
-0.095
-0.105
-0.1
-0.085
-0.075
-0.09
-0.085
-0.065
-0.07
-0.065
-0.055
-0.04
-0.03
-0.015
-0.005
0.025
0.055
0.085
0.125
0.16
0.205
0.26
0.3
0.35
0.37
0.395
0.35
0.27
0.18
0.105
0.045
0.0
-0.025
-0.035
-0.035
-0.035
-0.025
-0.03
-0.03
-0.02
-0.015
-0.025
-0.025
-0.005
-0.015
-0.005
-0.02
-0.01
-0.01
0.0
-0.01
-0.005
-0.01
-0.015
-0.04
-0.02
-0.025
-0.03
-0.035
-0.03
-0.04
-0.03
-0.035
-0.03
-0.035
-0.035
-0.015
-0.04
-0.055
-0.035
-0.03
-0.05
-0.045
-0.04
-0.055
-0.05
-0.055
-0.045
-0.07
-0.065
-0.05
-0.07
-0.08
-0.06
-0.08
-0.085
-0.07
-0.07
-0.085
-0.085
-0.09
-0.09
-0.085
-0.045
0.0
0.08
0.09
0.04
-0.02
-0.03
-0.06
-0.125
-0.105
-0.13
-0.135
-0.23
-0.245
0.53
1.7
1.095
-0.21
-0.365
-0.27
-0.1
-0.1
-0.1
-0.095
-0.1
-0.09
-0.08
-0.075
-0.085
-0.07
-0.07
-0.07
-0.025
-0.025
-0.015
0.005
0.045
0.07
0.07
0.11
0.165
0.215
0.265
0.315
0.34
0.4
0.395
0.335
0.265
0.19
0.07
0.02
0.01
-0.005
-0.01
-0.03
-0.025
-0.02
-0.03
-0.01
-0.005
0.0
0.005
-0.015
0.0
-0.005
0.025
0.005
0.0
-0.005
-0.015
0.0
-0.005
-0.015
-0.015
-0.035
-0.035
-0.045
-0.025
-0.01
-0.01
-0.035
-0.03
-0.04
-0.05
-0.045
-0.05
-0.055
-0.05
-0.035
-0.06
-0.06
-0.06
-0.065
-0.085
-0.07
-0.085
-0.055
-0.05
-0.085
-0.08
-0.09
-0.06
-0.1
-0.11
-0.085
-0.065
-0.095
-0.09
-0.085
-0.125
-0.125
-0.08
-0.025
0.055
0.04
0.03
-0.025
-0.02
-0.1
-0.145
-0.15
-0.15
-0.145
-0.295
-0.28
0.705
1.885
0.935
-0.275
-0.405
-0.335
-0.155
-0.095
-0.105
-0.09
-0.09
-0.085
-0.075
-0.06
-0.085
-0.085
-0.06
-0.05
-0.03
-0.025
0.0
0.01
0.035
0.06
0.095
0.13
0.17
0.22
0.26
0.315
0.34
0.36
0.355
0.305
0.225
0.13
0.055
0.005
-0.025
-0.035
-0.045
-0.025
-0.01
-0.04
-0.04
-0.03
-0.02
-0.02
-0.015
-0.02
-0.015
-0.01
-0.005
-0.015
-0.025
-0.025
-0.015
-0.03
-0.035
-0.025
-0.035
-0.045
-0.055
-0.045
-0.04
-0.035
-0.05
-0.05
-0.045
-0.04
-0.06
-0.055
-0.055
-0.065
-0.055
-0.06
-0.07
-0.08
-0.065
-0.065
-0.08
-0.08
-0.085
-0.075
-0.08
-0.08
-0.095
-0.09
-0.105
-0.105
-0.095
-0.095
-0.08
-0.03
0.035
0.075
0.03
-0.02
-0.035
-0.07
-0.13
-0.125
-0.135
-0.145
-0.185
-0.27
0.21
1.305
1.385
0.205
-0.42
-0.32
-0.17
-0.12
-0.125
-0.105
-0.105
-0.095
-0.11
-0.1
-0.105
-0.085
-0.075
-0.07
-0.055
-0.05
-0.03
-0.01
0.01
0.045
0.065
0.105
0.155
0.19
0.245
0.3
0.335
0.38
0.375
0.335
0.255
0.16
0.075
0.035
-0.005
-0.03
-0.04
-0.035
-0.03
-0.04
-0.04
-0.045
-0.03
-0.015
-0.02
0.0
-0.005
-0.01
-0.015
-0.005
-0.025
-0.005
-0.01
-0.025
-0.02
-0.015
-0.02
-0.025
-0.04
-0.03
-0.045
-0.045
-0.04
-0.035
-0.035
-0.025
-0.035
-0.04
-0.04
-0.025
-0.055
-0.04
-0.05
-0.06
-0.05
-0.045
-0.06
-0.06
-0.05
-0.07
-0.075
-0.06
-0.07
-0.07
-0.075
-0.065
-0.065
-0.08
-0.085
-0.09
-0.095
-0.105
-0.1
-0.09
-0.115
-0.09
-0.045
0.05
0.07
0.055
0.01
-0.03
-0.045
-0.105
-0.125
-0.115
-0.115
-0.13
-0.285
-0.09
0.905
1.72
0.71
-0.395
-0.36
-0.245
-0.105
-0.085
-0.095
-0.1
-0.1
-0.08
-0.06
-0.06
-0.075
-0.06
-0.07
-0.055
-0.03
-0.03
-0.005
0.015
0.03
0.06
0.105
0.14
0.185
0.25
0.265
0.325
0.365
0.405
0.38
0.31
0.225
0.13
0.07
0.01
-0.035
-0.03
-0.03
-0.015
-0.035
-0.05
-0.045
-0.02
-0.02
-0.005
-0.025
-0.02
-0.015
-0.02
-0.03
-0.035
-0.005
-0.025
-0.045
-0.04
-0.035
-0.05
-0.035
-0.04
-0.04
-0.045
-0.07
-0.035
-0.075
-0.035
-0.06
-0.06
-0.07
-0.075
-0.075
-0.075
-0.085
-0.06
-0.09
-0.08
-0.075
-0.1
-0.09
-0.085
-0.125
-0.095
-0.075
-0.105
-0.11
-0.105
-0.13
-0.11
-0.09
-0.05
0.03
0.045
0.035
-0.01
-0.035
-0.07
-0.135
-0.14
-0.15
-0.145
-0.21
-0.335
0.25
1.48
1.405
0.19
-0.425
-0.36
-0.23
-0.095
-0.075
-0.085
-0.1
-0.075
-0.1
-0.09
-0.07
-0.045
-0.065
-0.05
-0.03
-0.03
-0.02
0.0
0.035
0.05
0.08
0.145
0.16
0.205
0.255
0.295
0.335
0.38
0.365
0.345
0.26
0.155
0.075
0.04
-0.015
-0.04
-0.055
-0.045
-0.035
-0.035
-0.04
-0.035
-0.015
-0.02
-0.025
-0.005
-0.025
-0.005
-0.015
-0.01
-0.02
-0.015
-0.025
-0.01
-0.02
-0.025
-0.035
-0.035
-0.055
-0.025
-0.035
-0.06
-0.06
-0.05
-0.05
-0.045
-0.05
-0.045
-0.06
-0.055
-0.06
-0.055
-0.07
-0.06
-0.065
-0.07
-0.085
-0.075
-0.075
-0.085
-0.095
-0.085
-0.095
-0.085
-0.09
-0.105
-0.095
-0.09
-0.12
-0.075
-0.04
0.015
0.07
0.06
0.0
-0.025
-0.045
-0.105
-0.13
-0.125
-0.145
-0.14
-0.275
-0.155
0.775
1.76
0.83
-0.395
-0.365
-0.23
-0.105
-0.1
-0.115
-0.1
-0.095
-0.1
-0.105
-0.09
-0.09
-0.07
-0.065
-0.045
-0.06
-0.03
-0.01
0.015
0.025
0.055
0.08
0.14
0.17
0.235
0.275
0.32
0.36
0.385
0.35
0.285
0.185
0.115
0.05
0.0
-0.05
-0.055
-0.06
-0.05
-0.04
-0.04
-0.05
-0.04
-0.035
-0.025
-0.04
-0.035
-0.025
-0.02
-0.025
-0.01
-0.015
-0.025
-0.03
-0.015
-0.025
-0.035
-0.045
-0.045
-0.04
-0.035
-0.035
-0.04
-0.045
-0.035
-0.05
-0.045
-0.04
-0.04
-0.05
-0.05
-0.055
-0.04
-0.055
-0.06
-0.075
-0.06
-0.065
-0.07
-0.07
-0.065
-0.075
-0.065
-0.08
-0.095
-0.095
-0.08
-0.09
-0.085
-0.1
-0.08
-0.095
-0.1
-0.1
-0.09
-0.1
-0.06
