signal
-0.23
-0.125
-0.09
-0.005
0.03
0.035
0.035
0.085
0.095
0.15
0.14
0.14
0.135
0.13
0.115
0.13
0.125
0.12
0.095
0.085
0.08
0.045
0.055
0.05
0.04
0.06
0.065
0.07
0.065
0.055
0.055
0.065
0.055
0.055
0.055
0.075
0.07
0.05
0.075
0.07
0.045
0.04
-0.015
-0.06
-0.065
-0.08
-0.15
-0.185
-0.15
-0.09
-0.035
0.035
0.055
0.125
0.16
0.165
0.135
0.135
0.135
0.135
0.105
-0.035
-0.59
-1.215
-0.795
0.04
0.635
1.145
0.93
0.425
0.215
0.13
0.06
0.02
0.005
0.01
-0.005
0.025
-0.025
-0.025
-0.025
-0.035
-0.08
-0.105
-0.15
-0.14
-0.165
-0.185
-0.23
-0.24
-0.285
-0.365
-0.42
-0.425
-0.43
-0.405
-0.37
-0.305
-0.22
-0.14
-0.105
-0.01
0.035
0.045
0.08
0.105
0.125
0.15
0.135
0.12
0.1
0.12
0.13
0.11
0.095
0.095
0.065
0.05
0.065
0.035
0.05
0.055
0.065
0.08
0.07
0.08
0.095
0.08
0.065
0.1
0.1
0.11
0.11
0.095
0.095
0.09
0.1
0.105
0.06
0.015
-0.045
-0.08
-0.095
-0.13
-0.12
-0.07
0.005
0.065
0.11
0.15
0.165
0.165
0.165
0.185
0.18
0.165
0.135
0.055
-0.35
-1.085
-1.105
-0.22
0.41
1.005
1.105
0.56
0.325
0.2
0.105
0.095
0.055
0.055
0.06
0.025
-0.005
0.005
-0.015
-0.025
-0.07
-0.075
-0.105
-0.12
-0.145
-0.17
-0.215
-0.24
-0.295
-0.35
-0.415
-0.44
-0.435
-0.425
-0.4
-0.33
-0.27
-0.185
-0.12
-0.06
-0.035
0.01
0.03
0.05
0.04
0.08
0.09
0.09
0.095
0.105
0.08
0.065
0.04
0.045
0.035
0.02
0.005
0.035
0.015
0.02
-0.005
-0.025
-0.025
-0.005
0.0
0.02
0.015
0.025
0.025
0.025
0.025
0.035
0.025
0.055
0.04
0.02
-0.035
-0.055
-0.105
-0.115
-0.17
-0.18
-0.17
-0.115
-0.05
-0.03
0.0
0.08
0.105
0.11
0.115
0.105
0.105
0.095
0.055
-0.14
-0.855
-1.54
-1.005
-0.185
0.47
0.87
0.525
0.24
0.14
0.04
-0.01
-0.03
-0.04
-0.01
-0.005
-0.015
-0.02
-0.03
-0.04
-0.045
-0.06
-0.08
-0.125
-0.165
-0.19
-0.21
-0.25
-0.29
-0.34
-0.385
-0.4
-0.4
-0.41
-0.415
-0.385
-0.315
-0.25
-0.19
-0.135
-0.08
-0.03
0.005
0.02
0.04
0.025
0.04
0.08
0.095
0.08
0.065
0.055
0.05
0.045
0.025
-0.005
-0.015
-0.03
-0.025
-0.015
-0.02
-0.005
0.005
-0.005
-0.01
-0.03
0.0
-0.005
-0.005
-0.01
-0.005
-0.01
-0.005
-0.005
0.005
-0.01
-0.01
-0.005
-0.015
-0.02
-0.055
-0.105
-0.145
-0.19
-0.21
-0.24
-0.245
-0.205
-0.12
-0.1
-0.035
0.01
0.03
0.075
0.05
-0.01
0.015
-0.015
-0.035
-0.15
-0.64
-1.52
-1.475
-0.545
0.155
0.69
0.665
0.15
0.005
-0.105
-0.175
-0.225
-0.235
-0.24
-0.24
-0.25
-0.265
-0.295
-0.295
-0.32
-0.325
-0.365
-0.385
-0.415
-0.45
-0.485
-0.48
-0.545
-0.585
-0.615
-0.635
-0.655
-0.685
-0.67
-0.61
-0.535
-0.455
-0.355
-0.285
-0.235
-0.175
-0.14
-0.09
-0.075
-0.06
-0.045
-0.01
-0.035
-0.075
-0.075
-0.06
-0.07
-0.085
-0.115
-0.105
-0.085
-0.1
-0.125
-0.095
-0.1
-0.09
-0.105
-0.105
-0.085
-0.09
-0.11
-0.08
-0.05
-0.035
-0.04
-0.015
-0.045
-0.045
-0.04
-0.025
-0.02
-0.025
-0.035
-0.005
-0.025
-0.05
-0.125
-0.165
-0.195
-0.21
-0.29
-0.295
-0.265
-0.19
-0.14
-0.09
-0.055
-0.015
0.005
0.035
0.03
0.04
0.025
0.0
-0.05
-0.235
-0.84
-1.345
-0.74
0.02
0.635
1.105
0.735
0.285
0.115
0.015
-0.02
-0.065
-0.105
-0.065
-0.065
-0.055
-0.09
-0.08
-0.085
-0.11
-0.15
-0.165
-0.225
-0.23
-0.24
-0.255
-0.305
-0.34
-0.395
-0.42
-0.465
-0.47
-0.485
-0.445
-0.425
-0.355
-0.26
-0.155
-0.125
-0.08
-0.055
-0.005
0.03
0.04
0.055
0.11
0.095
0.105
0.08
0.08
0.08
0.075
0.06
0.05
0.05
0.03
0.005
0.045
0.02
-0.005
0.005
0.015
0.02
0.04
0.025
0.03
0.02
0.07
0.085
0.075
0.065
0.06
0.045
0.085
0.045
-0.03
-0.07
-0.11
-0.155
-0.145
-0.19
-0.125
-0.065
-0.01
0.015
0.105
0.125
0.135
0.14
0.145
0.13
0.155
0.095
0.065
-0.19
-0.785
-1.185
-0.485
0.215
0.855
1.205
0.725
0.32
0.19
0.08
0.08
0.025
0.005
-0.035
-0.035
-0.005
-0.03
-0.045
-0.06
-0.08
-0.075
-0.075
-0.105
-0.13
-0.175
-0.215
-0.235
-0.305
-0.335
-0.395
-0.4
-0.45
-0.435
-0.47
-0.4
-0.295
-0.21
-0.14
-0.015
0.005
0.04
0.09
0.105
0.1
0.145
0.165
0.175
0.15
0.175
0.145
0.14
0.14
0.15
0.12
0.1
0.09
0.11
0.08
0.085
0.05
0.055
0.045
0.08
0.07
0.055
0.045
0.045
0.055
0.06
0.03
0.03
-0.005
-0.07
-0.15
-0.19
-0.225
-0.245
-0.29
-0.3
-0.265
-0.205
-0.19
-0.11
-0.095
-0.065
-0.115
-0.115
-0.105
-0.095
-0.14
-0.215
-0.63
-1.385
-1.495
-0.64
0.08
0.705
0.8
0.3
0.11
0.0
-0.075
-0.075
-0.08
-0.085
-0.08
-0.065
-0.055
-0.065
-0.09
-0.09
-0.115
-0.115
-0.16
-0.18
-0.195
-0.205
-0.25
-0.28
-0.325
-0.355
-0.405
-0.435
-0.435
-0.41
-0.38
-0.31
-0.24
-0.145
-0.06
0.01
0.025
0.07
0.09
0.14
0.135
0.155
0.18
0.2
0.17
0.165
0.115
0.1
0.08
0.065
0.06
0.07
0.05
0.035
0.01
0.015
0.01
0.02
0.015
0.035
0.04
0.04
0.045
0.06
0.065
0.065
0.08
0.08
0.035
0.04
0.045
0.06
-0.04
-0.065
-0.05
-0.015
0.025
0.085
0.135
0.175
0.205
0.21
0.2
0.24
0.22
0.19
0.095
-0.275
-1.125
-1.285
-0.485
0.08
0.69
0.955
0.51
0.335
0.23
0.175
0.145
0.125
0.135
0.135
0.11
0.125
0.11
0.06
0.015
0.01
-0.005
-0.01
-0.055
-0.065
-0.09
-0.15
-0.205
-0.24
-0.315
-0.335
-0.385
-0.38
-0.39
-0.345
-0.285
-0.185
-0.105
-0.02
0.015
0.065
0.11
0.155
0.185
0.175
0.13
0.155
0.18
0.2
0.215
0.175
0.145
0.165
0.115
0.115
0.115
0.09
0.06
0.07
0.035
0.05
0.08
0.095
0.08
0.1
0.09
0.1
0.09
0.09
0.03
-0.005
-0.005
-0.06
-0.11
-0.145
-0.15
-0.085
-0.07
0.0
0.07
0.085
0.08
0.15
0.175
0.18
0.15
0.15
0.115
-0.175
-1.14
-1.865
-1.275
-0.46
0.355
0.95
0.59
0.26
0.145
0.1
0.085
0.085
0.055
0.015
0.005
0.05
0.025
0.025
0.025
-0.005
-0.06
-0.075
-0.135
-0.135
-0.15
-0.17
-0.24
-0.28
-0.36
-0.415
-0.46
-0.465
-0.49
-0.465
-0.41
-0.305
-0.24
-0.17
-0.1
-0.045
0.005
0.065
0.105
0.14
0.135
0.135
0.14
0.155
0.15
0.15
0.115
0.07
0.095
0.155
0.14
0.125
0.135
0.13
0.105
0.125
0.13
0.12
0.11
0.135
0.11
0.1
0.115
0.135
0.095
0.065
0.0
-0.01
-0.03
-0.08
-0.11
-0.045
-0.005
0.04
0.07
0.145
0.19
0.215
0.2
0.19
0.19
0.215
0.2
0.03
-0.72
-1.68
-1.47
-0.605
0.205
0.885
0.725
0.345
0.225
0.155
0.095
0.095
0.07
0.07
0.045
0.05
0.03
0.045
0.015
0.005
-0.01
-0.03
-0.065
-0.08
-0.12
-0.165
-0.205
-0.25
-0.305
-0.35
-0.4
-0.43
-0.455
-0.435
-0.375
-0.3
-0.235
-0.13
-0.065
0.0
0.035
0.07
0.085
0.125
0.12
0.145
0.155
0.165
0.155
0.145
0.13
0.14
0.125
0.15
0.115
0.11
0.095
0.095
0.07
0.08
0.07
0.08
0.065
0.07
0.05
0.07
0.055
0.075
0.07
0.07
0.08
0.08
0.055
0.01
-0.025
-0.045
-0.08
-0.1
-0.125
-0.09
-0.065
-0.005
0.005
0.08
0.12
0.14
0.12
0.135
0.135
0.135
0.125
0.08
-0.17
-0.96
-1.65
-0.995
-0.145
0.535
0.885
0.475
0.165
0.085
-0.005
-0.02
-0.055
-0.055
-0.065
-0.095
-0.13
-0.145
-0.18
-0.17
-0.205
-0.205
-0.265
-0.275
-0.345
-0.385
-0.455
-0.52
-0.55
-0.515
-0.57
-0.575
-0.62
-0.625
-0.62
-0.585
-0.54
-0.47
-0.385
-0.285
-0.225
-0.185
-0.125
-0.095
-0.07
-0.05
-0.075
-0.01
0.005
0.035
0.035
0.035
0.03
0.07
0.07
0.1
0.08
0.065
0.045
0.045
0.03
0.03
-0.02
-0.005
-0.01
-0.02
-0.03
-0.015
-0.025
-0.03
-0.025
-0.02
-0.015
0.005
-0.005
0.01
-0.025
-0.08
-0.11
-0.12
-0.185
-0.185
-0.14
-0.08
-0.05
-0.02
0.065
0.12
0.095
0.135
0.135
0.13
0.12
0.145
0.085
-0.115
-0.785
-1.465
-1.03
-0.24
0.46
1.115
0.865
0.345
0.205
0.105
0.015
0.01
-0.015
-0.005
0.015
0.01
-0.03
-0.025
-0.03
-0.06
-0.06
-0.09
-0.135
-0.15
-0.18
-0.175
-0.225
-0.26
-0.325
-0.4
-0.465
-0.45
-0.485
-0.475
-0.415
-0.335
-0.24
-0.145
-0.07
-0.01
0.025
0.03
0.08
0.105
0.09
0.135
0.145
0.17
0.18
0.165
0.15
0.155
0.13
0.18
0.16
0.155
0.155
0.16
0.115
0.15
0.13
0.09
0.11
0.145
0.125
0.13
0.12
0.12
0.115
0.125
0.14
0.165
0.105
0.08
0.035
-0.015
-0.02
-0.03
-0.095
-0.065
-0.03
0.045
0.055
0.145
0.19
0.205
0.205
0.225
0.21
0.24
0.21
0.155
0.02
-0.515
-1.29
-1.11
-0.31
0.36
1.05
1.05
0.515
0.305
0.175
0.175
0.095
0.095
0.085
0.085
0.08
0.08
0.03
0.065
0.01
0.025
-0.015
-0.03
-0.065
-0.105
-0.13
-0.15
-0.215
-0.275
-0.355
-0.4
-0.43
-0.45
-0.47
-0.435
-0.385
-0.295
-0.205
-0.12
-0.105
-0.045
-0.05
-0.05
-0.07
-0.055
-0.08
-0.035
-0.02
0.01
-0.01
-0.025
-0.06
-0.065
-0.06
-0.04
-0.04
-0.065
-0.065
-0.06
-0.075
-0.075
-0.085
-0.085
-0.08
-0.055
-0.065
-0.035
-0.04
-0.01
-0.015
0.015
0.015
0.045
0.035
0.05
0.01
-0.025
-0.06
-0.075
-0.105
-0.12
-0.15
-0.105
-0.07
-0.02
0.01
0.085
0.125
0.175
0.17
0.155
0.15
0.15
0.155
0.13
-0.19
-1.02
-1.59
-0.875
-0.15
0.515
0.795
0.415
0.255
0.185
0.105
0.095
0.08
0.095
0.08
0.07
0.045
0.045
0.025
0.03
-0.015
-0.03
-0.075
-0.085
-0.115
-0.135
-0.19
-0.24
-0.295
-0.325
-0.385
-0.4
-0.43
-0.415
-0.395
-0.355
-0.325
-0.24
-0.18
-0.105
-0.085
-0.03
-0.02
-0.01
-0.01
0.005
-0.015
-0.035
-0.04
0.005
0.0
0.01
0.015
0.01
-0.025
-0.03
-0.06
-0.05
-0.07
-0.075
-0.08
-0.065
-0.08
-0.075
-0.085
-0.08
-0.105
-0.095
-0.105
-0.08
-0.105
-0.08
-0.1
-0.105
-0.115
-0.09
-0.125
-0.105
-0.105
-0.09
-0.065
-0.08
-0.19
-0.215
-0.27
-0.29
-0.315
-0.34
-0.345
-0.305
-0.27
-0.235
-0.19
-0.15
-0.14
-0.115
-0.13
-0.115
-0.13
-0.125
-0.165
-0.32
-0.975
-1.76
-1.435
-0.55
0.11
0.58
0.305
-0.03
-0.12
-0.205
-0.265
-0.27
-0.28
-0.255
-0.265
-0.28
-0.31
-0.29
-0.29
-0.275
-0.28
-0.295
-0.315
-0.325
-0.37
-0.34
-0.34
-0.365
-0.465
-0.51
-0.525
-0.485
-0.455
-0.435
-0.45
-0.425
-0.375
-0.305
-0.26
-0.185
-0.16
-0.105
-0.095
-0.04
-0.06
-0.025
-0.025
-0.005
0.03
0.06
0.03
0.045
0.005
0.0
-0.005
-0.01
-0.01
0.02
-0.01
-0.03
-0.025
0.045
0.035
0.015
0.015
0.055
0.055
0.05
0.05
0.07
0.055
0.055
0.03
0.075
0.03
0.045
0.025
0.05
0.045
0.07
0.045
0.02
-0.055
-0.07
-0.105
-0.13
-0.2
-0.215
-0.175
-0.085
-0.055
0.005
0.055
0.115
0.13
0.13
0.135
0.155
0.145
0.115
0.05
-0.105
-0.76
-1.33
-0.84
-0.035
0.605
1.15
0.81
0.355
0.175
0.08
0.065
0.045
0.03
0.025
0.03
0.055
-0.01
0.005
-0.005
-0.045
-0.095
-0.085
-0.105
-0.11
-0.175
-0.185
-0.21
-0.24
-0.325
-0.35
-0.4
-0.415
-0.425
-0.38
-0.325
-0.24
-0.215
-0.135
-0.07
-0.015
0.035
0.08
0.11
0.135
0.14
0.16
0.165
0.175
0.17
0.18
0.115
0.13
0.11
0.135
0.115
0.1
0.055
0.11
0.075
0.08
0.08
0.12
0.09
0.1
0.085
0.13
0.12
0.13
0.13
0.145
0.135
0.14
0.125
0.115
0.11
0.045
-0.015
-0.005
-0.055
-0.09
-0.115
-0.045
-0.015
0.065
0.095
0.18
0.175
0.22
0.195
0.215
0.215
0.22
0.2
0.125
-0.3
-1.035
-1.125
-0.3
0.33
0.975
1.11
0.565
0.29
0.15
0.08
0.055
-0.02
-0.025
-0.055
-0.055
-0.09
-0.105
-0.145
-0.145
-0.225
-0.24
-0.275
-0.255
-0.305
-0.345
-0.375
-0.4
-0.47
-0.5
-0.545
-0.56
-0.59
-0.56
-0.52
-0.435
-0.365
-0.28
-0.22
-0.145
-0.1
-0.045
-0.04
0.015
0.01
0.045
0.06
0.085
0.065
0.085
0.03
0.03
0.01
0.02
-0.02
-0.005
0.0
0.01
-0.015
-0.025
-0.03
-0.01
-0.01
0.01
0.01
0.035
0.03
0.045
0.04
0.065
0.06
0.08
0.055
0.08
0.045
0.015
-0.055
-0.075
-0.1
-0.115
-0.14
-0.13
-0.095
-0.015
0.005
0.07
0.1
0.135
0.135
0.15
0.135
0.15
0.125
0.085
-0.275
-1.14
-1.55
-0.72
0.015
0.67
0.83
0.38
0.205
0.13
0.055
0.035
0.005
0.02
0.015
0.015
-0.025
-0.02
-0.025
-0.035
-0.07
-0.075
-0.105
-0.11
-0.17
-0.185
-0.235
-0.25
-0.31
-0.335
-0.39
-0.385
-0.425
-0.395
-0.375
-0.315
-0.275
-0.215
-0.16
-0.095
-0.07
-0.025
-0.01
0.015
0.015
0.04
0.04
0.085
0.045
0.04
0.015
0.03
-0.005
-0.01
-0.055
-0.045
-0.07
-0.07
-0.07
-0.04
-0.055
-0.035
-0.04
-0.03
-0.025
-0.025
-0.03
-0.005
-0.02
-0.005
-0.03
-0.005
-0.01
0.02
0.005
0.02
-0.005
-0.005
-0.065
-0.06
-0.105
-0.125
-0.175
-0.145
-0.135
-0.095
-0.06
-0.025
0.015
0.055
0.065
0.08
0.065
0.08
0.045
0.065
-0.045
-0.38
-1.26
-1.56
-0.72
0.085
0.685
0.9
0.37
0.175
0.055
0.025
0.015
0.025
0.01
0.0
-0.02
0.045
0.08
0.08
0.055
0.065
0.035
0.02
-0.03
-0.01
-0.035
-0.05
-0.125
-0.155
-0.205
-0.2
-0.225
-0.175
-0.175
-0.125
-0.115
-0.025
0.005
0.06
0.085
0.12
0.135
0.2
0.215
0.24
0.24
0.275
0.28
0.33
0.31
0.325
0.295
0.275
0.225
0.255
0.24
0.255
0.215
0.205
0.145
0.165
0.13
0.145
0.13
0.11
0.095
0.1
0.055
0.105
0.125
0.145
0.12
0.125
0.09
0.08
-0.005
-0.01
-0.045
-0.035
-0.08
0.015
0.065
0.14
0.155
0.225
0.22
0.26
0.27
0.275
0.265
0.27
0.245
0.16
-0.345
-1.005
-0.78
0.14
0.735
1.385
1.26
0.67
0.395
0.32
0.24
0.23
0.185
0.225
0.195
0.24
0.165
0.155
0.135
0.15
0.095
0.09
0.04
0.06
-0.005
-0.005
-0.08
-0.095
-0.15
-0.175
-0.245
-0.245
-0.305
-0.265
-0.23
-0.135
-0.06
0.065
0.065
0.15
0.21
0.285
0.265
0.295
0.28
0.355
0.33
0.34
0.32
0.37
0.345
0.35
0.31
0.335
0.265
0.27
0.285
0.315
0.245
0.26
0.225
0.225
0.22
0.255
0.26
0.305
0.29
0.305
0.285
0.3
0.255
0.235
0.155
0.15
0.095
0.08
0.095
0.17
0.205
0.28
0.33
0.385
0.375
0.405
0.41
0.415
0.37
0.38
0.315
0.195
-0.385
-0.935
-0.49
0.305
0.88
1.43
1.115
0.63
0.43
0.33
0.285
0.28
0.225
0.255
0.24
0.285
0.23
0.23
0.2
0.185
0.135
0.16
0.125
0.12
0.08
0.08
0.03
0.005
-0.08
-0.075
-0.15
-0.145
-0.155
-0.125
-0.135
-0.01
0.065
0.175
0.235
0.31
0.33
0.375
0.375
0.43
0.41
0.445
0.44
0.45
0.4
0.415
0.36
0.37
0.31
0.315
0.285
0.29
0.24
0.26
0.205
0.225
0.205
0.21
0.18
0.185
0.155
0.195
0.195
0.21
0.19
0.175
0.095
0.07
0.045
0.035
-0.005
0.045
0.09
0.185
0.2
0.275
0.305
0.37
0.355
0.385
0.36
0.395
0.365
0.315
-0.065
-0.895
-1.175
-0.325
0.39
1.045
1.225
0.735
0.495
0.41
0.34
0.355
0.325
0.345
0.335
0.35
0.325
0.335
0.295
0.31
0.28
0.295
0.25
0.24
0.19
0.195
0.145
0.115
0.06
0.055
0.025
0.03
0.01
0.02
0.055
0.12
0.185
0.29
0.325
0.405
0.425
0.48
0.495
0.53
0.515
0.545
0.545
0.6
0.57
0.575
0.545
0.56
0.545
0.565
0.545
0.545
0.52
0.52
0.505
0.515
0.505
0.525
0.53
0.535
0.525
0.535
0.53
0.55
0.535
0.555
0.545
0.56
0.5
0.5
0.41
0.42
0.38
0.365
0.35
0.42
0.475
0.535
0.565
0.635
0.665
0.695
0.68
0.695
0.68
0.675
0.63
0.505
-0.09
-0.895
-0.605
0.375
1.015
1.53
1.285
0.885
0.76
0.665
0.59
0.585
0.56
0.575
0.545
0.565
0.55
0.56
0.54
0.55
0.535
0.52
0.495
0.485
0.435
0.41
0.36
0.325
0.275
0.255
0.22
0.24
0.215
0.26
0.265
0.34
0.4
0.495
0.55
0.615
0.63
0.685
0.69
0.725
0.72
0.755
0.76
0.78
0.765
0.765
0.755
0.755
0.745
0.745
0.735
0.75
0.72
0.725
0.705
0.71
0.68
0.705
0.685
0.705
0.7
0.72
0.71
0.735
0.725
0.77
0.74
0.765
0.745
0.765
0.745
0.725
0.665
0.635
0.605
0.595
0.54
0.555
0.595
0.67
0.685
0.735
0.77
0.82
0.82
0.835
0.825
0.81
0.76
0.805
0.755
0.43
-0.41
-0.73
0.14
0.945
1.56
1.77
1.215
0.975
0.855
0.78
0.73
0.74
0.73
0.735
0.705
0.69
0.665
0.67
0.655
0.665
0.63
0.62
0.575
0.565
0.515
0.485
0.43
0.415
0.36
0.35
0.315
0.325
0.325
0.38
0.405
0.465
0.505
0.61
0.645
0.695
0.75
0.81
0.81
0.835
0.84
0.88
0.865
0.87
0.84
0.85
0.81
0.795
0.775
0.76
0.72
0.74
0.695
0.68
0.645
0.68
0.68
0.69
0.685
0.7
0.69
0.735
0.71
0.695
0.67
0.7
0.665
0.695
0.695
0.725
0.685
0.68
0.675
0.665
0.66
0.655
0.605
0.6
0.53
0.51
0.475
0.45
0.445
0.52
0.545
0.57
0.625
0.69
0.69
0.695
0.69
0.71
0.685
0.675
0.655
0.62
0.27
-0.465
-0.71
0.16
0.84
1.485
1.74
1.205
0.795
0.685
0.585
0.565
0.505
0.525
0.515
0.53
0.48
0.465
0.44
0.45
0.405
0.385
0.36
0.37
0.325
0.32
0.29
0.25
0.185
0.175
0.12
0.135
0.105
0.11
0.135
0.215
0.245
0.35
0.405
0.46
0.465
0.535
0.53
0.57
0.595
0.625
0.6
0.62
0.555
0.57
0.555
0.545
0.515
0.5
0.46
0.475
0.44
0.45
0.455
0.46
0.445
0.475
0.46
0.485
0.47
0.48
0.47
0.485
0.48
0.52
0.495
0.49
0.475
0.495
0.475
0.5
0.455
0.455
0.45
0.42
0.355
0.33
0.27
0.265
0.22
0.26
0.315
0.385
0.385
0.445
0.475
0.505
0.505
0.51
0.485
0.51
0.465
0.46
0.385
-0.07
-0.83
-0.73
0.145
0.835
1.405
1.445
0.835
0.565
0.445
0.405
0.35
0.335
0.315
0.33
0.31
0.29
0.275
0.295
0.25
0.235
0.19
0.18
0.155
0.145
0.08
0.09
0.025
0.005
-0.055
-0.1
-0.14
-0.12
-0.13
-0.07
-0.04
0.03
0.135
0.205
0.24
0.275
0.27
0.335
0.35
0.36
0.365
0.41
0.375
0.36
0.32
0.335
0.27
0.28
0.28
0.28
0.25
0.26
0.235
0.245
0.215
0.22
0.24
0.28
0.24
0.235
0.225
0.24
0.24
0.245
0.235
0.24
0.205
0.225
0.2
0.23
0.205
0.22
0.195
0.175
0.1
0.065
0.01
-0.005
-0.075
-0.075
-0.03
0.035
0.065
0.11
0.145
0.185
0.19
0.185
0.19
0.18
0.17
0.155
0.095
-0.185
-0.95
-1.335
-0.63
0.155
0.765
1.085
0.58
0.27
0.12
0.05
-0.01
-0.035
-0.045
-0.015
-0.055
-0.05
-0.08
-0.08
-0.105
-0.125
-0.165
-0.18
-0.21
-0.25
-0.28
-0.31
-0.365
-0.4
-0.45
-0.46
-0.5
-0.485
-0.485
-0.445
-0.415
-0.325
-0.285
-0.195
-0.175
-0.11
-0.1
-0.065
-0.075
-0.045
-0.05
-0.015
-0.025
-0.03
-0.08
-0.095
-0.13
-0.14
-0.17
-0.165
-0.18
-0.195
-0.205
-0.205
-0.235
-0.215
-0.23
-0.22
-0.22
-0.19
-0.22
-0.195
-0.215
-0.19
-0.21
-0.2
-0.21
-0.19
-0.21
-0.19
-0.21
-0.205
-0.23
-0.215
-0.235
-0.22
-0.24
-0.22
-0.27
-0.305
-0.365
-0.385
-0.42
-0.435
-0.465
-0.43
-0.39
-0.335
-0.325
-0.255
-0.23
-0.205
-0.21
-0.195
-0.2
-0.175
-0.2
-0.225
-0.425
-1.06
-1.825
-1.39
-0.495
0.215
0.62
0.315
-0.065
-0.145
-0.275
-0.285
-0.315
-0.28
-0.31
-0.305
-0.34
-0.35
-0.39
-0.385
-0.41
-0.405
-0.435
-0.455
-0.49
-0.51
-0.55
-0.56
-0.615
-0.65
-0.695
-0.69
-0.705
-0.695
-0.665
-0.605
-0.56
-0.505
-0.45
-0.38
-0.37
-0.33
-0.33
-0.29
-0.295
-0.285
-0.27
-0.255
-0.285
-0.28
-0.325
-0.315
-0.345
-0.33
-0.37
-0.375
-0.4
-0.385
-0.43
-0.4
-0.42
-0.405
-0.4
-0.385
-0.385
-0.365
-0.37
-0.365
-0.355
-0.345
-0.355
-0.35
-0.365
-0.365
-0.37
-0.355
-0.375
-0.38
-0.4
-0.37
-0.39
-0.385
-0.41
-0.39
-0.42
-0.39
-0.415
-0.395
-0.425
-0.42
-0.435
-0.46
-0.525
-0.545
-0.595
-0.595
-0.635
-0.645
-0.605
-0.55
-0.53
-0.475
-0.425
-0.39
-0.375
-0.365
-0.37
-0.35
-0.39
-0.37
-0.45
-0.765
-1.595
-1.98
-1.165
-0.345
0.26
0.5
-0.005
-0.24
-0.36
-0.425
-0.48
-0.47
-0.48
-0.48
-0.5
-0.5
-0.515
-0.5
-0.53
-0.54
-0.565
-0.56
-0.575
-0.585
-0.615
-0.64
-0.695
-0.695
-0.71
-0.71
-0.73
-0.675
-0.69
-0.65
-0.605
-0.525
-0.505
-0.435
-0.415
-0.365
-0.36
-0.34
-0.32
-0.295
-0.275
-0.245
-0.27
-0.265
-0.295
-0.305
-0.325
-0.315
-0.34
-0.365
-0.385
-0.365
-0.38
-0.38
-0.38
-0.355
-0.39
-0.35
-0.35
-0.33
-0.35
-0.31
-0.325
-0.305
-0.325
-0.315
-0.315
-0.29
-0.31
-0.285
-0.305
-0.29
-0.305
-0.295
-0.3
-0.275
-0.295
-0.285
-0.305
-0.285
-0.315
-0.3
-0.315
-0.31
-0.365
-0.415
-0.46
-0.455
-0.5
-0.52
-0.49
-0.43
-0.38
-0.32
-0.305
-0.24
-0.24
-0.23
-0.235
-0.205
-0.235
-0.23
-0.315
-0.54
-1.2
-1.615
-0.95
-0.165
0.405
0.825
0.39
-0.01
-0.155
-0.24
-0.305
-0.325
-0.345
-0.32
-0.325
-0.32
-0.345
-0.335
-0.37
-0.365
-0.41
-0.42
-0.45
-0.435
-0.46
-0.45
-0.495
-0.525
-0.575
-0.585
-0.625
-0.585
-0.575
-0.53
-0.49
-0.43
-0.375
-0.305
-0.28
-0.235
-0.225
-0.185
-0.195
-0.185
-0.16
-0.135
-0.175
-0.2
-0.235
-0.185
-0.195
-0.225
-0.27
-0.275
-0.305
-0.285
-0.285
-0.235
-0.27
-0.265
-0.265
-0.24
-0.245
-0.24
-0.23
-0.205
-0.225
-0.19
-0.185
-0.2
-0.225
-0.195
-0.195
-0.195
-0.205
-0.15
-0.19
-0.2
-0.24
-0.27
-0.345
-0.355
-0.41
-0.425
-0.42
-0.33
-0.31
-0.255
-0.205
-0.15
-0.125
-0.085
-0.11
-0.095
-0.1
-0.11
-0.145
-0.19
-0.645
-1.34
-1.27
-0.37
0.26
0.845
0.82
0.285
0.035
-0.065
-0.155
-0.135
-0.18
-0.18
-0.185
-0.165
-0.205
-0.21
-0.215
-0.205
-0.27
-0.3
-0.31
-0.31
-0.35
-0.355
-0.37
-0.395
-0.45
-0.485
-0.505
-0.5
-0.565
-0.485
-0.42
-0.37
-0.32
-0.23
-0.21
-0.145
-0.115
-0.07
-0.085
-0.055
-0.035
0.01
-0.02
-0.025
-0.045
-0.05
-0.09
-0.08
-0.125
-0.12
-0.16
-0.14
-0.155
-0.15
-0.175
-0.15
-0.175
-0.155
-0.165
-0.145
-0.155
-0.125
-0.145
-0.125
-0.14
-0.135
-0.155
-0.125
-0.14
-0.125
-0.13
-0.1
-0.175
-0.2
-0.24
-0.255
-0.27
-0.305
-0.34
-0.28
-0.21
-0.14
-0.105
-0.035
-0.01
0.025
0.015
0.03
0.01
0.03
-0.005
-0.095
-0.62
-1.425
-1.355
-0.425
0.245
0.84
0.745
0.255
0.11
0.015
-0.055
-0.06
-0.08
-0.07
-0.075
-0.06
-0.095
-0.09
-0.125
-0.115
-0.13
-0.15
-0.185
-0.2
-0.245
-0.255
-0.305
-0.31
-0.38
-0.395
-0.42
-0.395
-0.405
-0.36
-0.335
-0.25
-0.19
-0.125
-0.08
-0.03
-0.03
0.035
0.04
0.065
0.055
0.08
0.085
0.09
0.055
0.045
-0.005
-0.02
-0.03
-0.025
-0.05
-0.05
-0.08
-0.07
-0.08
-0.06
-0.055
-0.055
-0.065
-0.035
-0.035
-0.015
-0.02
-0.005
-0.02
-0.005
-0.005
0.01
-0.005
0.01
-0.005
0.02
0.005
0.005
-0.06
-0.075
-0.13
-0.14
-0.2
-0.215
-0.19
-0.125
-0.095
-0.04
-0.015
0.035
0.055
0.065
0.045
0.07
0.055
0.08
0.0
-0.3
-1.15
-1.55
-0.745
0.065
0.685
0.945
0.435
0.195
0.085
0.01
-0.045
-0.025
-0.04
-0.02
-0.06
-0.085
-0.11
-0.08
-0.105
-0.1
-0.145
-0.155
-0.205
-0.205
-0.25
-0.28
-0.315
-0.335
-0.375
-0.38
-0.4
-0.415
-0.4
-0.35
-0.32
-0.24
-0.205
-0.155
-0.11
-0.065
-0.055
-0.025
-0.03
0.005
-0.005
0.035
0.02
0.025
-0.03
-0.035
-0.07
-0.055
-0.08
-0.09
-0.12
-0.125
-0.135
-0.13
-0.15
-0.145
-0.15
-0.135
-0.135
-0.125
-0.135
-0.095
-0.095
-0.07
-0.095
-0.09
-0.1
-0.06
-0.08
-0.065
-0.1
-0.07
-0.085
-0.06
-0.095
-0.075
-0.145
-0.165
-0.235
-0.235
-0.28
-0.305
-0.32
-0.265
-0.225
-0.17
-0.155
-0.065
-0.055
-0.025
-0.03
-0.035
-0.05
-0.07
-0.095
-0.135
-0.57
-1.43
-1.535
-0.565
0.15
0.755
0.83
0.295
0.05
-0.045
-0.13
-0.15
-0.17
-0.145
-0.17
-0.17
-0.22
-0.205
-0.215
-0.215
-0.255
-0.255
-0.3
-0.295
-0.34
-0.34
-0.385
-0.4
-0.455
-0.455
-0.505
-0.475
-0.485
-0.46
-0.455
-0.38
-0.34
-0.27
-0.24
-0.185
-0.17
-0.13
-0.135
-0.115
-0.12
-0.08
-0.1
-0.09
-0.12
-0.14
-0.155
-0.165
-0.175
-0.185
-0.215
-0.215
-0.24
-0.23
-0.24
-0.225
-0.24
-0.215
-0.225
-0.22
-0.215
-0.205
-0.215
-0.19
-0.2
-0.185
-0.205
-0.175
-0.18
-0.155
-0.175
-0.165
-0.165
-0.125
-0.14
-0.13
-0.145
-0.135
-0.14
-0.115
-0.165
-0.19
-0.25
-0.215
-0.245
-0.255
-0.25
-0.185
-0.165
-0.08
-0.07
0.0
0.02
0.06
0.03
0.05
0.01
0.035
0.005
-0.05
-0.4
-1.155
-1.375
-0.46
0.225
0.835
1.07
0.555
0.195
0.07
-0.035
-0.04
-0.08
-0.055
-0.065
-0.08
-0.11
-0.105
-0.13
-0.115
-0.155
-0.14
-0.18
-0.195
-0.255
-0.275
-0.325
-0.325
-0.355
-0.375
-0.405
-0.42
-0.435
-0.395
-0.385
-0.33
-0.275
-0.19
-0.16
-0.105
-0.08
-0.045
-0.025
0.005
0.03
0.045
0.015
0.06
0.015
-0.015
-0.045
-0.025
-0.045
-0.035
-0.11
-0.115
-0.12
-0.11
-0.12
-0.08
-0.105
-0.075
-0.105
-0.075
-0.08
-0.05
-0.06
-0.05
-0.05
-0.015
-0.035
-0.025
-0.065
-0.04
-0.03
-0.005
-0.03
-0.025
-0.06
-0.065
-0.12
-0.12
-0.195
-0.225
-0.255
-0.24
-0.19
-0.125
-0.11
-0.025
0.0
0.05
0.085
0.095
0.05
0.055
0.045
0.07
0.0
-0.315
-1.01
-1.115
-0.31
0.36
0.915
1.145
0.545
0.24
0.115
0.05
-0.005
-0.005
-0.08
-0.035
-0.005
-0.045
-0.09
-0.07
-0.09
-0.105
-0.17
-0.17
-0.2
-0.195
-0.225
-0.23
-0.285
-0.305
-0.36
-0.365
-0.385
-0.375
-0.38
-0.325
-0.265
-0.19
-0.15
-0.055
-0.045
0.005
0.01
0.05
0.055
0.12
0.12
0.105
0.09
0.08
0.055
0.055
-0.005
0.015
-0.015
-0.015
-0.02
0.01
-0.035
0.02
0.02
0.02
0.005
0.04
0.025
0.025
-0.015
0.03
0.04
0.045
0.035
0.06
0.05
0.055
0.035
0.06
0.065
0.05
-0.005
-0.02
-0.095
-0.11
-0.12
-0.15
-0.17
-0.09
-0.065
0.015
0.045
0.05
0.1
0.155
0.115
0.14
0.14
0.105
0.065
0.015
-0.415
-1.06
-0.965
-0.105
0.5
1.105
1.055
0.495
0.235
0.14
0.055
0.055
-0.01
0.015
-0.005
0.03
-0.015
-0.02
-0.035
-0.06
-0.105
-0.08
-0.15
-0.145
-0.195
-0.185
-0.22
-0.21
-0.275
-0.31
-0.335
-0.355
-0.375
-0.325
-0.31
-0.22
-0.135
-0.08
-0.035
0.035
0.04
0.095
0.11
0.125
0.125
0.16
0.135
0.13
0.09
0.08
0.055
0.035
0.015
0.03
-0.02
-0.03
-0.045
-0.045
-0.06
-0.035
-0.055
-0.04
-0.075
-0.04
-0.07
-0.045
-0.075
-0.06
-0.09
-0.07
-0.095
-0.07
-0.105
-0.11
-0.155
-0.195
-0.25
-0.235
-0.295
-0.3
-0.28
-0.18
-0.125
-0.08
-0.06
-0.005
0.015
0.05
0.04
0.06
0.07
0.05
-0.025
-0.325
-1.125
-1.465
-0.72
0.045
0.665
0.91
0.42
0.18
0.05
-0.015
-0.06
-0.055
-0.08
-0.045
-0.065
-0.06
-0.105
-0.08
-0.125
-0.125
-0.17
-0.17
-0.2
-0.205
-0.24
-0.275
-0.345
-0.35
-0.415
-0.445
-0.455
-0.44
-0.445
-0.4
-0.35
-0.275
-0.225
-0.155
-0.105
-0.055
-0.05
0.005
0.025
0.035
0.03
0.055
0.06
0.06
0.03
0.025
-0.035
-0.025
-0.035
-0.04
-0.065
-0.055
-0.075
-0.07
-0.105
-0.09
-0.105
-0.08
-0.09
-0.075
-0.085
-0.06
-0.07
-0.045
-0.06
-0.055
-0.055
-0.035
-0.065
-0.065
-0.08
-0.055
-0.07
-0.1
-0.19
-0.235
-0.26
-0.275
-0.32
-0.285
-0.265
-0.2
-0.155
-0.11
-0.07
-0.02
-0.035
-0.02
-0.035
-0.025
-0.06
-0.05
-0.15
-0.55
-1.43
-1.555
-0.685
0.055
0.645
0.745
0.21
0.06
-0.07
-0.135
-0.185
-0.175
-0.185
-0.19
-0.205
-0.225
-0.26
-0.265
-0.29
-0.28
-0.31
-0.305
-0.345
-0.36
-0.415
-0.425
-0.48
-0.525
-0.575
-0.59
-0.625
-0.615
-0.62
-0.565
-0.53
-0.45
-0.425
-0.345
-0.31
-0.265
-0.265
-0.23
-0.235
-0.215
-0.22
-0.155
-0.17
-0.18
-0.225
-0.22
-0.235
-0.23
-0.265
-0.27
-0.31
-0.29
-0.305
-0.325
-0.35
-0.305
-0.31
-0.3
-0.31
-0.3
-0.31
-0.305
-0.325
-0.305
-0.315
-0.295
-0.31
-0.295
-0.325
-0.315
-0.33
-0.325
-0.345
-0.325
-0.355
-0.32
-0.35
-0.365
-0.43
-0.45
-0.49
-0.525
-0.57
-0.54
-0.53
-0.485
-0.44
-0.4
-0.365
-0.31
-0.3
-0.3
-0.3
-0.305
-0.33
-0.325
-0.37
-0.62
-1.345
-1.885
-1.255
-0.42
0.24
0.63
0.22
-0.17
-0.31
-0.37
-0.43
-0.435
-0.42
-0.385
-0.39
-0.345
-0.395
-0.41
-0.395
-0.34
-0.335
-0.33
-0.315
-0.325
-0.36
-0.39
-0.465
-0.5
-0.56
-0.59
-0.615
-0.61
-0.65
-0.625
-0.575
-0.475
-0.425
-0.36
-0.305
-0.255
-0.25
-0.19
-0.19
-0.165
-0.17
-0.135
-0.125
-0.115
-0.135
-0.09
-0.125
-0.135
-0.15
-0.145
-0.16
-0.12
-0.13
-0.11
-0.13
-0.11
-0.13
-0.125
-0.13
-0.1
-0.125
-0.1
-0.1
-0.09
-0.105
-0.075
-0.08
-0.105
-0.105
-0.07
-0.075
-0.08
-0.075
-0.06
-0.05
-0.06
-0.065
-0.015
-0.045
-0.08
-0.125
-0.155
-0.2
-0.22
-0.27
-0.265
-0.23
-0.165
-0.115
-0.03
-0.005
0.025
0.01
0.055
0.045
0.055
0.02
0.005
-0.025
-0.17
-0.725
-1.23
-0.715
0.1
0.68
1.135
0.8
0.305
0.15
0.065
-0.015
-0.04
-0.09
-0.05
-0.045
-0.03
-0.065
-0.065
-0.105
-0.13
-0.155
-0.145
-0.165
-0.175
-0.21
-0.22
-0.265
-0.28
-0.345
-0.365
-0.385
-0.385
-0.445
-0.4
-0.335
-0.265
-0.205
-0.135
-0.08
-0.03
-0.005
0.0
0.025
0.08
0.1
0.11
0.085
0.085
0.055
0.095
0.055
0.035
0.015
0.025
-0.005
0.015
-0.025
0.005
-0.005
0.005
0.0
0.025
0.02
0.025
0.05
0.045
0.035
0.08
0.05
0.05
0.055
0.07
0.045
0.07
0.07
0.075
0.045
0.005
-0.065
-0.055
-0.11
-0.125
-0.125
-0.05
-0.005
0.05
0.08
0.16
0.175
0.175
0.145
0.19
0.18
0.165
0.135
0.05
-0.345
-0.97
-0.95
-0.105
0.545
1.13
1.155
0.585
0.32
0.21
0.12
0.1
0.05
0.06
0.06
0.08
0.055
0.075
0.045
0.01
0.01
-0.005
-0.025
-0.02
-0.06
-0.1
-0.17
-0.155
-0.175
-0.205
-0.295
-0.28
-0.29
-0.3
-0.24
-0.185
-0.155
0.005
0.08
0.11
0.15
0.215
0.21
0.25
0.25
0.245
0.275
0.295
0.27
0.31
0.285
0.285
0.23
0.245
0.225
0.21
0.21
0.24
0.205
0.225
0.205
0.215
0.185
0.24
0.185
0.175
0.205
0.24
0.215
0.23
0.205
0.235
0.265
0.23
0.245
0.205
0.08
0.075
0.08
0.045
0.01
0.06
0.095
0.18
0.175
0.24
0.25
0.28
0.255
0.275
0.215
0.22
0.175
0.08
-0.335
-0.935
-1.02
-0.195
0.475
1.09
1.16
0.525
0.185
0.065
-0.015
-0.04
-0.065
-0.045
-0.04
-0.025
-0.05
-0.02
-0.07
-0.075
-0.1
-0.105
-0.15
-0.165
-0.195
-0.185
-0.255
-0.275
-0.315
-0.325
-0.37
-0.36
-0.365
-0.34
-0.33
-0.255
-0.175
-0.105
-0.055
0.02
0.05
0.095
0.1
0.135
0.15
0.185
0.195
0.21
0.17
0.16
0.135
0.155
0.145
0.15
0.115
0.11
0.085
0.115
0.08
0.08
0.045
0.08
0.09
0.115
0.095
0.09
0.08
0.1
0.115
0.135
0.13
0.145
0.105
0.065
0.005
-0.02
-0.065
-0.075
-0.125
-0.195
-0.255
-0.205
-0.19
-0.15
-0.125
-0.03
-0.005
0.045
0.035
0.04
0.02
0.015
-0.01
-0.09
-0.535
-1.37
-1.51
-0.645
0.05
0.645
0.675
0.2
0.055
-0.05
-0.15
-0.15
-0.175
-0.165
-0.215
-0.26
-0.275
-0.285
-0.34
-0.33
-0.385
-0.38
-0.43
-0.45
-0.49
-0.5
-0.56
-0.6
-0.655
-0.7
-0.735
-0.74
-0.75
-0.75
-0.75
-0.705
-0.65
-0.58
-0.55
-0.475
-0.46
-0.42
-0.415
-0.38
-0.405
-0.375
-0.39
-0.355
-0.37
-0.385
-0.4
-0.415
-0.445
-0.445
-0.485
-0.485
-0.525
-0.52
-0.54
-0.55
-0.55
-0.55
-0.595
-0.56
-0.555
-0.505
-0.485
-0.435
-0.425
-0.36
-0.355
-0.295
-0.24
-0.235
-0.24
-0.21
-0.205
-0.22
-0.27
-0.285
-0.34
-0.34
-0.325
-0.26
-0.19
-0.13
-0.1
-0.03
-0.03
-0.01
-0.005
0.005
-0.03
-0.005
-0.125
-0.535
-1.35
-1.385
-0.485
0.235
0.865
1.06
0.475
0.185
0.06
-0.02
-0.04
-0.045
-0.08
-0.08
-0.13
-0.095
-0.1
-0.115
-0.145
-0.145
-0.175
-0.145
-0.2
-0.22
-0.24
-0.26
-0.325
-0.355
-0.415
-0.495
-0.54
-0.56
-0.555
-0.465
-0.455
-0.355
-0.265
-0.185
-0.145
-0.05
-0.025
-0.01
-0.025
0.005
-0.005
0.065
0.055
0.075
0.04
0.035
0.02
0.03
0.01
0.015
0.005
0.015
-0.01
-0.015
-0.035
-0.08
-0.065
-0.045
-0.07
-0.055
-0.055
-0.04
-0.105
-0.07
-0.095
-0.125
-0.185
-0.24
-0.29
-0.305
-0.38
-0.395
-0.315
-0.225
-0.225
-0.145
-0.075
-0.06
-0.055
-0.035
-0.065
-0.045
-0.06
-0.07
-0.24
-0.675
-1.285
-1.045
-0.285
0.345
0.865
0.72
0.135
-0.075
-0.23
-0.28
-0.27
-0.24
-0.255
-0.24
-0.25
-0.28
-0.275
-0.25
-0.27
-0.275
-0.28
-0.27
-0.305
-0.315
-0.345
-0.36
-0.425
-0.45
-0.51
-0.535
-0.555
-0.515
-0.49
-0.435
-0.375
-0.24
-0.155
-0.07
-0.015
0.045
0.07
0.1
0.115
0.155
0.14
0.17
0.175
0.19
0.19
0.21
0.18
0.2
0.17
0.185
0.165
0.165
0.16
0.155
0.14
0.18
0.19
0.21
0.21
0.215
0.2
0.215
0.21
0.24
0.21
0.21
0.19
0.175
0.105
0.075
0.035
0.035
-0.01
0.01
0.06
0.145
0.17
0.235
0.255
0.315
0.305
0.305
0.31
0.355
0.335
0.305
0.085
-0.6
-1.25
-0.705
0.07
0.72
1.105
0.765
0.465
0.43
0.33
0.295
0.26
0.265
0.255
0.275
0.265
0.265
0.305
0.38
0.375
0.355
0.355
0.34
0.3
0.255
0.065
0.055
0.045
-0.13
-0.235
-0.135
-0.195
-0.25
-0.15
-0.08
-0.1
-0.08
-0.01
0.145
0.2
0.23
0.21
0.29
0.29
0.28
0.17
0.21
0.32
0.35
0.295
0.295
0.305
0.33
0.335
0.28
0.29
0.355
0.3
0.25
0.21
0.24
0.215
0.255
0.17
0.24
0.26
0.215
0.175
0.19
0.245
0.25
0.18
0.115
0.11
0.1
0.025
0.005
-0.065
0.035
0.095
0.115
0.14
0.135
0.21
0.265
0.18
0.17
0.195
0.28
0.195
0.125
-0.37
-1.245
-1.49
-0.79
-0.145
0.665
0.905
0.515
0.305
0.23
0.155
0.085
0.045
0.08
0.055
0.05
0.04
0.06
0.03
0.02
-0.025
-0.025
-0.095
-0.12
-0.175
-0.185
-0.22
-0.25
-0.355
-0.37
-0.435
-0.465
-0.47
-0.455
-0.46
-0.34
-0.24
-0.11
-0.1
-0.07
0.015
0.08
0.085
0.105
0.065
0.125
0.155
0.165
0.155
0.225
0.18
0.23
0.2
0.175
0.17
0.175
0.165
0.185
0.115
0.135
0.105
0.115
0.095
0.125
0.165
0.225
0.24
0.24
0.265
0.345
0.265
0.19
0.075
0.055
-0.045
-0.07
-0.07
-0.025
0.005
0.085
0.09
0.135
0.125
0.15
0.075
0.075
0.035
0.055
-0.255
-1.245
-2.205
-1.52
-0.55
0.365
0.875
0.44
0.015
-0.045
-0.165
-0.16
-0.225
-0.22
-0.28
-0.305
-0.37
-0.385
-0.505
-0.535
-0.635
-0.665
-0.79
-0.72
-0.665
-0.625
-0.715
-0.765
-0.895
-0.91
-0.935
-0.73
-0.6
-0.545
-0.49
-0.385
-0.325
-0.205
-0.125
-0.045
-0.02
0.04
0.04
0.085
0.08
0.1
0.08
0.115
0.095
0.105
0.065
0.085
0.035
0.035
0.01
-0.005
-0.035
-0.03
-0.075
-0.08
-0.095
-0.1
-0.105
-0.1
-0.13
-0.11
-0.145
-0.12
-0.125
-0.11
-0.125
-0.135
-0.21
-0.225
-0.27
-0.28
-0.345
-0.335
-0.325
-0.285
-0.245
-0.185
-0.17
-0.125
-0.11
-0.115
-0.135
-0.1
-0.135
-0.12
-0.325
-1.015
-1.85
-1.38
-0.525
0.15
0.605
0.3
-0.1
-0.16
-0.285
-0.31
-0.34
-0.325
-0.345
-0.32
-0.365
-0.385
-0.395
-0.355
-0.36
-0.295
-0.32
-0.29
-0.295
-0.34
-0.39
-0.415
-0.5
-0.53
-0.62
-0.625
-0.64
-0.635
-0.61
-0.545
-0.525
-0.45
-0.445
-0.35
-0.265
-0.165
-0.125
-0.115
-0.195
-0.14
-0.145
-0.115
-0.085
-0.065
-0.075
-0.045
-0.08
-0.095
-0.105
-0.08
-0.085
-0.08
-0.105
-0.085
-0.135
-0.085
-0.125
-0.08
-0.085
-0.055
-0.045
-0.03
-0.075
-0.055
-0.105
-0.09
-0.1
-0.145
-0.18
-0.215
-0.26
-0.185
-0.145
-0.075
-0.035
0.03
0.025
0.08
0.095
0.115
0.08
0.095
0.025
-0.09
-0.705
-1.69
-1.62
-0.755
0.06
0.91
0.82
0.36
0.215
0.065
-0.025
0.025
0.0
0.035
0.05
-0.015
-0.005
0.015
-0.015
-0.005
-0.035
-0.02
-0.045
-0.09
-0.15
-0.13
-0.165
-0.2
-0.34
-0.4
-0.41
-0.46
-0.51
-0.455
-0.425
-0.32
-0.255
-0.115
-0.08
0.01
0.05
0.08
0.095
0.18
0.16
0.155
0.145
0.18
0.175
0.23
0.175
0.165
0.18
0.245
0.205
0.215
0.18
0.215
0.175
0.14
0.135
0.165
0.135
0.165
0.155
0.16
0.085
0.125
0.08
0.055
-0.025
-0.025
-0.095
-0.11
-0.13
-0.075
-0.055
0.015
0.03
0.08
0.085
0.105
0.07
0.085
0.065
0.065
-0.04
-0.575
-1.765
-2.05
-1.125
-0.115
0.785
0.95
0.41
0.245
0.115
0.09
0.03
0.025
0.01
0.025
-0.02
-0.015
-0.045
-0.02
-0.045
-0.06
-0.09
-0.085
-0.135
-0.15
-0.21
-0.24
-0.32
-0.34
-0.415
-0.46
-0.52
-0.49
-0.505
-0.445
-0.38
-0.27
-0.19
-0.105
-0.065
0.005
0.025
0.06
0.06
0.1
0.09
0.13
0.115
0.14
0.13
0.15
0.13
0.135
0.125
0.15
0.12
0.11
0.08
0.08
0.05
0.05
0.02
0.035
0.005
0.03
0.0
0.01
-0.005
0.025
-0.015
-0.005
-0.03
-0.015
-0.06
-0.095
-0.14
-0.155
-0.185
-0.195
-0.23
-0.205
-0.175
-0.135
-0.105
-0.045
-0.05
-0.01
-0.02
-0.005
-0.015
0.035
0.015
-0.07
-0.605
-1.55
-1.62
-0.665
0.07
0.7
0.63
0.17
0.06
-0.03
-0.105
-0.12
-0.17
-0.16
-0.2
-0.205
-0.21
-0.22
-0.235
-0.235
-0.265
-0.3
-0.35
-0.335
-0.355
-0.39
-0.44
-0.435
-0.495
-0.505
-0.55
-0.555
-0.59
-0.575
-0.555
-0.495
-0.445
-0.345
-0.28
-0.22
-0.165
-0.09
-0.08
-0.08
-0.12
-0.055
-0.02
0.015
0.03
0.025
0.015
0.03
0.01
0.045
0.015
0.0
-0.005
0.01
0.005
-0.025
-0.07
-0.04
-0.04
-0.015
0.01
0.02
-0.035
-0.035
-0.025
0.015
-0.03
0.01
-0.02
-0.045
-0.13
-0.13
-0.14
-0.17
-0.165
-0.09
-0.05
-0.055
-0.02
0.095
0.1
0.155
0.135
0.12
0.125
0.125
0.08
-0.105
-0.94
-1.72
-1.245
-0.42
0.39
1.07
0.73
0.32
0.135
0.05
0.04
0.005
0.05
0.105
-0.055
-0.035
0.025
-0.035
-0.02
0.035
-0.1
-0.095
-0.105
-0.145
-0.205
-0.18
-0.24
-0.325
-0.345
-0.4
-0.485
-0.465
-0.505
-0.44
-0.36
-0.33
-0.265
-0.105
-0.065
0.015
0.035
0.08
0.115
0.145
0.125
0.13
0.15
0.21
0.225
0.195
0.195
0.175
0.175
0.19
0.145
0.2
0.165
0.155
0.115
0.115
0.13
0.155
0.115
0.155
0.155
0.125
0.08
0.1
0.105
0.09
0.06
0.025
-0.045
-0.03
-0.07
-0.065
-0.03
0.035
0.045
0.145
0.175
0.2
0.205
0.22
0.205
0.21
0.155
0.125
-0.24
-1.285
-1.995
-1.23
-0.295
0.675
1.085
0.565
0.28
0.18
0.045
0.055
0.055
0.055
0.015
0.025
0.005
0.02
0.01
0.035
0.005
0.005
-0.07
-0.075
-0.135
-0.135
-0.15
-0.165
-0.21
-0.24
-0.3
-0.335
-0.365
-0.335
-0.315
-0.225
-0.155
-0.06
0.01
0.07
0.12
0.175
0.2
0.22
0.24
0.255
0.27
0.29
0.28
0.295
0.27
0.26
0.225
0.25
0.23
0.24
0.195
0.205
0.185
0.205
0.19
0.195
0.185
0.19
0.18
0.19
0.175
0.185
0.19
0.2
0.185
0.195
0.175
0.185
0.125
0.11
0.05
0.035
0.005
-0.01
-0.02
0.03
0.05
0.095
0.145
0.21
0.215
0.235
0.215
0.25
0.235
0.23
0.185
-0.09
-0.955
-1.625
-0.985
-0.11
0.625
0.98
0.545
0.33
0.24
0.17
0.125
0.12
0.1
0.105
0.07
0.075
0.06
0.04
0.02
0.035
0.0
0.0
-0.025
-0.04
-0.08
-0.105
-0.15
-0.205
-0.26
-0.28
-0.32
-0.325
-0.31
-0.285
-0.26
-0.195
-0.135
-0.055
-0.035
0.025
0.045
0.08
0.08
0.11
0.1
0.135
0.145
0.165
0.16
0.17
0.16
0.165
0.155
0.17
0.165
0.15
0.12
0.125
0.1
0.115
0.105
0.095
0.095
0.095
0.08
0.1
0.09
0.115
0.09
0.11
0.095
0.1
0.095
0.105
0.08
0.08
0.02
-0.01
-0.06
-0.095
-0.155
-0.145
-0.125
-0.065
-0.03
0.005
0.06
0.095
0.105
0.115
0.095
0.095
0.085
0.085
0.01
-0.35
-1.26
-1.605
-0.735
0.085
0.73
0.9
0.355
0.165
0.045
-0.025
-0.065
-0.065
-0.06
-0.055
-0.08
-0.105
-0.125
-0.13
-0.125
-0.095
-0.135
-0.155
-0.22
-0.24
-0.285
-0.335
-0.4
-0.415
-0.485
-0.525
-0.52
-0.49
-0.5
-0.465
-0.41
-0.34
-0.29
-0.2
-0.155
-0.095
-0.075
-0.05
-0.045
-0.04
-0.05
0.0
0.01
0.005
-0.015
0.025
0.02
0.01
-0.015
0.0
-0.01
0.025
0.025
0.02
-0.02
0.01
0.0
0.035
0.045
0.03
0.055
0.1
0.09
0.07
0.08
0.115
0.105
0.105
0.08
0.105
0.1
0.09
0.08
0.1
0.07
0.075
0.02
-0.005
-0.05
-0.07
-0.125
-0.15
-0.105
-0.025
0.0
0.045
0.055
0.125
0.12
0.145
0.145
0.165
0.155
0.145
0.115
-0.01
-0.58
-1.38
-1.16
-0.27
0.4
1.075
0.975
0.465
0.24
0.12
0.085
0.05
0.025
0.06
0.025
0.01
-0.005
-0.02
-0.025
-0.03
-0.07
-0.1
-0.13
-0.135
-0.205
-0.185
-0.205
-0.225
-0.285
-0.31
-0.33
-0.345
-0.385
-0.355
-0.3
-0.24
-0.185
-0.11
-0.055
-0.015
0.0
0.045
0.045
0.055
0.065
0.13
0.11
0.105
0.1
0.08
0.05
0.04
0.03
0.015
-0.005
0.01
0.02
0.05
-0.01
-0.005
0.015
0.03
-0.01
-0.025
0.025
0.045
0.055
0.07
0.06
0.065
0.065
0.095
0.08
0.07
0.035
0.01
-0.065
-0.065
-0.1
-0.155
-0.18
-0.09
-0.02
0.015
0.055
0.11
0.145
0.135
0.115
0.145
0.135
0.145
0.105
0.045
-0.33
-1.095
-1.28
-0.45
0.205
0.865
1.06
0.55
0.265
0.16
0.075
0.08
0.015
-0.005
0.01
0.045
0.02
0.015
-0.015
-0.035
-0.045
-0.06
-0.1
-0.105
-0.115
-0.145
-0.175
-0.21
-0.26
-0.3
-0.365
-0.39
-0.385
-0.345
-0.33
-0.28
-0.22
-0.135
-0.09
-0.04
-0.01
0.015
0.035
0.065
0.05
0.075
0.085
0.12
0.09
0.065
0.045
0.02
-0.01
-0.005
-0.035
-0.035
-0.05
-0.06
-0.065
-0.055
-0.065
-0.045
-0.045
-0.025
-0.03
-0.01
-0.025
0.01
0.0
0.03
0.02
0.03
0.035
0.035
0.0
-0.04
-0.085
-0.135
-0.17
-0.205
-0.225
-0.2
-0.15
-0.08
-0.045
0.025
0.055
0.105
0.095
0.125
0.11
0.12
0.095
0.085
-0.145
-0.925
-1.605
-1.03
-0.225
0.47
0.855
0.505
0.245
0.17
0.065
0.045
0.035
0.075
0.07
0.055
0.03
0.01
-0.005
0.005
-0.015
-0.015
-0.055
-0.09
-0.13
-0.16
-0.195
-0.225
-0.275
-0.3
-0.335
-0.34
-0.355
-0.335
-0.315
-0.265
-0.21
-0.13
-0.085
-0.03
0.005
0.04
0.075
0.105
0.09
0.095
0.125
0.16
0.135
0.115
0.095
0.1
0.07
0.075
0.05
0.065
0.035
0.03
0.02
0.015
-0.005
0.01
-0.01
0.025
0.05
0.065
0.065
0.08
0.06
0.06
0.065
0.08
0.07
0.08
0.065
0.07
0.07
0.085
0.055
0.075
0.07
0.08
0.065
0.045
0.005
-0.025
-0.1
-0.12
-0.135
-0.155
-0.145
-0.09
-0.045
-0.005
0.04
0.1
0.1
0.135
0.135
0.135
0.125
0.15
0.095
-0.035
-0.67
-1.52
-1.245
-0.32
0.39
0.91
0.67
0.29
0.175
0.075
0.025
0.02
0.04
0.05
0.015
-0.005
-0.03
-0.015
-0.04
-0.03
-0.035
-0.055
-0.095
-0.11
-0.14
-0.17
-0.22
-0.26
-0.285
-0.31
-0.315
-0.3
-0.32
-0.285
-0.25
-0.17
-0.125
-0.065
-0.05
-0.005
0.025
0.07
0.095
0.105
0.1
0.11
0.12
0.145
0.12
0.115
0.095
0.105
0.1
0.09
0.085
0.075
0.055
0.075
0.08
0.08
0.06
0.055
0.095
0.115
0.105
0.095
0.105
0.12
0.085
0.11
0.13
0.135
0.125
0.145
0.12
0.125
0.11
0.14
0.14
0.135
0.125
0.155
0.115
0.12
0.135
0.15
0.14
0.08
0.035
0.005
-0.05
-0.05
-0.08
-0.08
-0.07
-0.005
0.035
0.095
0.125
0.175
0.185
0.2
0.19
0.2
0.185
0.195
0.13
-0.15
-0.935
-1.355
-0.61
0.135
0.795
1.185
0.715
0.355
0.215
0.15
0.115
0.07
0.06
0.075
0.055
0.045
0.025
0.05
0.03
-0.02
-0.05
-0.05
-0.08
-0.085
-0.115
-0.125
-0.155
-0.19
-0.245
-0.255
-0.275
-0.27
-0.265
-0.195
-0.145
-0.09
-0.03
0.03
0.065
0.1
0.13
0.15
0.145
0.185
0.185
0.22
0.21
0.195
0.155
0.135
0.11
0.11
0.11
0.07
0.05
0.06
0.06
0.055
0.015
0.035
0.07
0.09
0.09
0.07
0.07
0.085
0.08
0.105
0.1
0.115
0.1
0.125
0.12
0.14
0.12
0.12
0.115
0.145
0.1
0.055
-0.005
-0.005
-0.035
-0.06
-0.11
-0.105
-0.015
0.045
0.065
0.14
0.175
0.195
0.195
0.22
0.205
0.185
0.195
0.185
0.01
-0.595
-1.265
-0.79
-0.005
0.66
1.14
0.875
0.45
0.34
0.2
0.16
0.145
0.115
0.115
0.13
0.115
0.115
0.11
0.1
0.055
0.035
-0.01
-0.005
-0.02
-0.06
-0.1
-0.11
-0.14
-0.185
-0.24
-0.25
-0.255
-0.235
-0.225
-0.15
-0.105
-0.045
0.02
0.05
0.07
0.105
0.13
0.17
0.155
0.175
0.195
0.2
0.18
0.165
0.135
0.12
0.09
0.095
0.085
0.075
0.05
0.07
0.04
0.06
0.05
0.08
0.08
0.08
0.085
0.11
0.1
0.115
0.115
0.125
0.11
0.105
0.11
0.105
0.09
0.11
0.095
0.115
0.11
0.11
0.08
0.035
-0.025
-0.045
-0.065
-0.095
-0.095
-0.065
-0.035
0.015
0.055
0.135
0.16
0.185
0.185
0.21
0.2
0.2
0.195
0.125
-0.22
-1.055
-1.465
-0.7
0.055
0.72
0.955
0.515
0.305
0.2
0.105
0.105
0.085
0.11
0.095
0.08
0.025
0.015
0.015
0.005
0.005
-0.015
-0.04
-0.065
-0.1
-0.105
-0.165
-0.185
-0.215
-0.235
-0.26
-0.255
-0.275
-0.23
-0.195
-0.135
-0.075
-0.01
0.035
0.06
0.055
0.105
0.125
0.165
0.155
0.155
0.16
0.18
0.15
0.145
0.11
0.11
0.105
0.09
0.075
0.065
0.045
0.055
0.04
0.04
0.025
0.05
0.065
0.085
0.085
0.11
0.09
0.095
0.095
0.115
0.135
0.135
0.125
0.135
0.13
0.135
0.13
0.125
0.12
0.13
0.125
0.13
0.105
0.13
0.11
0.09
0.03
-0.005
-0.04
-0.05
-0.095
-0.11
-0.08
-0.04
0.005
0.065
0.115
0.155
0.17
0.19
0.185
0.2
0.185
0.195
0.13
-0.17
-1.01
-1.535
-0.775
0.065
0.71
0.975
0.52
0.325
0.215
0.12
0.08
0.105
0.125
0.125
0.085
0.06
0.025
0.05
0.07
0.05
0.01
-0.02
-0.05
-0.07
-0.115
-0.13
-0.165
-0.18
-0.205
-0.205
-0.23
-0.205
-0.19
-0.14
-0.1
-0.03
0.02
0.075
0.105
0.115
0.13
0.155
0.175
0.175
0.17
0.195
0.18
0.175
0.155
0.15
0.12
0.12
0.09
0.085
0.05
0.055
0.025
0.025
0.015
0.03
0.035
0.065
0.065
0.07
0.07
0.085
0.085
0.08
0.065
0.08
0.07
0.095
0.085
0.08
0.085
0.085
0.09
0.095
0.065
0.09
0.06
0.08
0.07
0.07
0.05
0.07
0.045
0.07
0.075
0.075
0.085
0.08
0.075
0.055
-0.01
-0.045
-0.08
-0.1
-0.14
-0.135
-0.085
-0.035
-0.01
0.055
0.095
0.14
0.155
0.17
0.155
0.17
0.17
0.15
0.035
-0.42
-1.34
-1.36
-0.395
0.35
0.925
0.92
0.415
0.265
0.15
0.1
0.1
0.125
0.135
0.11
0.065
0.04
0.035
0.05
0.03
0.03
-0.005
-0.025
-0.055
-0.075
-0.1
-0.125
-0.185
-0.205
-0.21
-0.21
-0.215
-0.185
-0.165
-0.095
-0.055
0.01
0.05
0.09
0.115
0.125
0.135
0.15
0.155
0.155
0.175
0.175
0.155
0.15
0.1
0.085
0.05
0.07
0.055
0.045
0.025
0.02
0.005
0.03
0.025
0.03
0.035
0.05
0.055
0.08
0.085
0.115
0.11
0.125
0.115
0.115
0.13
0.135
0.13
0.15
0.145
0.145
0.125
0.155
0.145
0.14
0.105
0.12
0.1
0.12
0.11
0.115
0.125
0.13
0.13
0.125
0.115
0.125
0.115
0.125
0.115
0.13
0.11
0.145
0.125
0.1
0.07
0.02
-0.025
-0.025
-0.08
-0.105
-0.085
-0.015
0.025
0.05
0.095
0.145
0.16
0.165
0.17
0.185
0.21
0.215
0.125
-0.105
-0.82
-1.405
-0.72
0.12
0.725
1.135
0.75
0.385
0.245
0.155
0.12
0.115
0.14
0.135
0.11
0.08
0.035
0.05
0.03
0.04
0.015
0.01
-0.035
-0.06
-0.075
-0.075
-0.09
-0.115
-0.145
-0.155
-0.175
-0.135
-0.115
-0.065
-0.03
0.035
0.08
0.15
0.145
0.16
0.175
0.18
0.17
0.195
0.215
0.21
0.175
0.175
0.165
0.145
0.1
0.115
0.08
0.065
0.055
0.055
0.055
0.05
0.055
0.07
0.065
0.09
0.105
0.115
0.105
0.105
0.13
0.16
0.135
0.17
0.155
0.15
0.18
0.195
0.155
0.185
0.14
0.145
0.155
0.155
0.165
0.185
0.15
0.15
0.125
0.13
0.1
0.06
0.01
-0.005
-0.035
-0.08
-0.08
0.005
0.03
0.075
0.135
0.18
0.195
0.215
0.2
0.195
0.195
0.195
0.17
0.015
-0.62
-1.22
-0.72
0.065
0.63
1.135
0.85
0.42
0.255
0.18
0.125
0.1
0.115
0.105
0.08
0.1
0.085
0.07
0.04
0.04
0.0
-0.035
-0.07
-0.065
-0.11
-0.13
-0.15
-0.165
-0.2
-0.22
-0.235
-0.205
-0.19
-0.15
-0.08
-0.025
0.025
0.085
0.095
0.13
0.105
0.125
0.14
0.135
0.16
0.16
0.135
0.135
0.095
0.075
0.055
0.04
0.005
0.015
-0.01
-0.01
-0.025
-0.01
0.005
0.005
0.02
0.02
0.02
0.035
0.04
0.045
0.055
0.065
0.08
0.08
0.07
0.08
0.075
0.08
0.08
0.085
0.065
0.08
0.075
0.06
0.01
-0.03
-0.075
-0.11
-0.135
-0.135
-0.125
-0.055
0.0
0.04
0.08
0.135
0.165
0.17
0.17
0.195
0.2
0.195
0.14
-0.245
-1.14
-1.43
-0.555
0.21
0.82
1.01
0.515
0.315
0.205
0.15
0.115
0.125
0.125
0.13
0.1
0.06
0.04
0.035
0.04
0.025
-0.015
-0.045
-0.09
-0.1
-0.125
-0.14
-0.185
-0.195
-0.23
-0.24
-0.23
-0.19
-0.165
-0.11
-0.045
0.025
0.07
0.115
0.13
0.165
0.15
0.17
0.165
0.185
0.195
0.21
0.2
0.185
0.125
0.09
0.09
0.095
0.08
0.065
0.04
0.045
0.015
0.03
0.015
0.03
0.04
0.05
0.06
0.085
0.08
0.115
0.11
0.105
0.11
0.125
0.12
0.14
0.13
0.15
0.125
0.11
0.13
0.115
0.11
0.115
0.095
0.035
0.005
-0.03
-0.07
-0.1
-0.145
-0.125
-0.08
-0.02
-0.015
0.05
0.115
0.145
0.17
0.17
0.165
0.18
0.17
0.13
-0.01
-0.615
-1.455
-1.125
-0.18
0.5
0.995
0.795
0.345
0.24
0.115
0.06
0.055
0.07
0.08
0.055
0.015
-0.015
-0.035
-0.025
-0.045
-0.05
-0.07
-0.105
-0.125
-0.135
-0.185
-0.21
-0.23
-0.24
-0.265
-0.25
-0.24
-0.205
-0.185
-0.135
-0.08
-0.035
0.035
0.08
0.095
0.115
0.095
0.115
0.115
0.135
0.145
0.155
0.125
0.085
0.05
0.035
0.025
0.015
0.005
-0.015
-0.025
-0.02
-0.045
-0.03
-0.03
-0.02
-0.02
0.01
0.005
0.02
0.025
0.02
0.025
0.03
0.035
0.055
0.06
0.065
0.045
0.06
0.055
0.065
0.055
0.055
0.05
0.05
0.035
0.02
0.005
-0.035
-0.095
-0.115
-0.14
-0.165
-0.19
-0.16
-0.095
-0.04
-0.03
0.035
0.08
0.125
0.115
0.105
0.095
0.11
0.1
0.05
-0.325
-1.2
-1.47
-0.535
0.24
0.845
0.99
0.47
0.225
0.13
0.02
0.02
0.025
0.045
0.03
0.015
-0.025
-0.04
-0.04
-0.035
-0.045
-0.07
-0.105
-0.125
-0.155
-0.175
-0.215
-0.23
-0.255
-0.27
-0.285
-0.27
-0.235
-0.19
-0.15
-0.095
-0.045
0.01
0.055
0.1
0.095
0.125
0.12
0.135
0.145
0.155
0.175
0.155
0.115
0.09
0.06
0.06
0.05
0.05
0.015
0.025
0.005
0.0
-0.025
-0.02
-0.005
0.0
0.01
0.045
0.04
0.06
0.05
0.06
0.055
0.07
0.06
0.075
0.08
0.08
0.095
0.075
0.06
0.075
0.085
0.085
0.065
0.065
0.055
0.04
0.035
0.045
0.02
0.015
-0.045
-0.08
-0.115
-0.125
-0.155
-0.14
-0.12
-0.05
-0.02
0.025
0.085
0.105
0.125
0.115
0.115
0.12
0.105
0.11
0.005
-0.515
-1.405
-1.295
-0.265
0.415
0.965
0.905
0.365
0.21
0.085
0.025
0.03
0.05
0.03
0.03
-0.005
-0.035
-0.04
-0.035
-0.05
-0.07
-0.09
-0.12
-0.155
-0.17
-0.205
-0.215
-0.24
-0.25
-0.275
-0.275
-0.265
-0.24
-0.205
-0.155
-0.1
-0.04
-0.01
0.035
0.075
0.09
0.08
0.095
0.1
0.125
0.13
0.13
0.105
0.055
0.035
0.025
0.015
0.01
-0.015
-0.03
-0.04
-0.05
-0.06
-0.05
-0.055
-0.045
-0.055
-0.015
-0.01
0.01
-0.005
0.015
0.005
0.04
0.025
0.03
0.03
0.035
0.045
0.065
0.045
0.05
0.03
0.035
0.025
0.02
0.0
0.01
0.005
0.0
-0.01
-0.015
-0.005
0.01
0.01
-0.005
-0.06
-0.08
-0.135
-0.145
-0.18
-0.2
-0.165
-0.1
-0.07
-0.04
0.015
0.065
0.085
0.1
0.095
0.095
0.08
0.085
0.04
-0.31
-1.185
-1.485
-0.56
0.225
0.805
1.015
0.48
0.225
0.115
0.035
-0.005
0.01
-0.005
0.005
-0.01
-0.05
-0.06
-0.06
-0.055
-0.045
-0.085
-0.105
-0.13
-0.17
-0.185
-0.2
-0.225
-0.23
-0.265
-0.265
-0.27
-0.26
-0.215
-0.165
-0.13
-0.065
-0.025
0.035
0.07
0.095
0.105
0.12
0.125
0.135
0.135
0.175
0.135
0.115
0.095
0.07
0.045
0.05
0.035
0.025
-0.005
-0.01
-0.01
0.01
-0.01
0.02
0.02
0.025
0.01
0.035
0.055
0.055
0.065
0.065
0.055
0.085
0.07
0.07
0.09
0.09
0.07
0.065
0.05
0.075
0.07
0.07
0.07
0.065
0.075
0.085
0.05
0.055
0.055
0.06
0.005
-0.03
-0.065
-0.08
-0.11
-0.145
-0.1
-0.015
0.03
0.055
0.11
0.185
0.175
0.19
0.195
0.19
0.18
0.18
0.135
-0.13
-0.905
-1.255
-0.435
0.305
0.88
1.23
0.76
0.39
0.24
0.155
0.13
0.135
0.125
0.125
0.11
0.085
0.055
0.07
0.03
0.02
-0.01
-0.025
-0.045
-0.045
-0.095
-0.11
-0.135
-0.155
-0.195
-0.185
-0.19
-0.16
-0.15
-0.1
-0.045
0.015
0.09
0.135
0.155
0.15
0.16
0.165
0.165
0.195
0.185
0.185
0.16
0.16
0.11
0.11
0.09
0.095
0.055
0.06
0.055
0.045
0.005
0.025
0.03
0.04
0.075
0.07
0.04
0.055
0.065
0.085
0.085
0.1
0.1
0.08
0.09
0.115
0.115
0.09
0.08
0.115
0.085
0.085
0.085
0.095
0.075
0.05
0.005
-0.035
-0.04
-0.065
-0.145
-0.155
-0.105
-0.025
-0.01
0.025
0.085
0.125
0.15
0.16
0.145
0.135
0.145
0.15
0.07
-0.235
-1.005
-1.145
-0.3
0.35
0.88
1.125
0.615
0.275
0.15
0.09
0.045
0.04
0.045
0.065
0.03
0.015
-0.005
-0.02
-0.03
-0.03
-0.06
-0.105
-0.125
-0.12
-0.165
-0.175
-0.175
-0.185
-0.255
-0.265
-0.275
-0.24
-0.22
-0.17
-0.145
-0.045
0.02
0.045
0.065
0.09
0.08
0.125
0.145
0.16
0.155
0.175
0.165
0.14
0.105
0.105
0.095
0.055
0.025
0.03
0.005
0.025
0.0
0.015
-0.015
-0.015
0.01
0.055
0.025
0.025
0.055
0.08
0.06
0.07
0.06
0.06
0.065
0.08
0.055
0.075
0.06
0.065
0.035
-0.01
-0.045
-0.095
-0.115
-0.13
-0.195
-0.155
-0.08
-0.01
0.0
0.05
0.095
0.14
0.105
0.135
0.14
0.12
0.105
0.09
-0.13
-0.795
-1.27
-0.6
0.115
0.725
1.115
0.73
0.345
0.22
0.1
0.085
0.04
0.04
0.02
0.03
0.01
0.005
-0.025
-0.025
-0.045
-0.055
-0.105
-0.14
-0.165
-0.165
-0.19
-0.225
-0.28
-0.305
-0.325
-0.325
-0.34
-0.305
-0.28
-0.205
-0.165
-0.075
-0.025
0.015
0.015
0.015
0.025
0.06
0.07
0.075
0.06
0.065
0.035
0.025
-0.035
-0.02
-0.07
-0.07
-0.08
-0.075
-0.09
-0.115
-0.115
-0.08
-0.085
-0.065
-0.065
-0.045
-0.045
-0.025
-0.03
-0.015
-0.025
-0.005
-0.01
0.005
-0.01
-0.005
-0.02
0.01
-0.025
-0.06
-0.105
-0.13
-0.17
-0.195
-0.23
-0.21
-0.135
-0.085
-0.065
0.005
0.045
0.075
0.065
0.09
0.07
0.085
0.07
0.025
-0.325
-1.18
-1.52
-0.645
0.105
0.725
0.92
0.445
0.205
0.12
0.02
-0.005
-0.035
-0.005
-0.015
-0.025
-0.055
-0.07
-0.1
-0.095
-0.115
-0.125
-0.155
-0.18
-0.215
-0.235
-0.295
-0.32
-0.36
-0.37
-0.39
-0.395
-0.39
-0.37
-0.31
-0.25
-0.185
-0.105
-0.065
-0.03
-0.005
0.03
0.03
0.075
0.075
0.08
0.08
0.115
0.095
0.08
0.03
0.015
0.015
0.02
0.0
-0.005
-0.035
-0.025
-0.045
-0.025
-0.045
-0.03
-0.04
-0.025
-0.015
-0.01
-0.015
0.005
-0.01
0.005
-0.005
0.005
-0.015
0.01
-0.02
-0.005
-0.02
-0.015
-0.025
-0.01
-0.045
-0.095
-0.145
-0.175
-0.2
-0.23
-0.25
-0.21
-0.165
-0.1
-0.085
-0.01
0.025
0.07
0.07
0.085
0.07
0.075
0.065
0.0
-0.415
-1.295
-1.49
-0.53
0.195
0.815
0.91
0.385
0.175
0.085
-0.01
-0.03
-0.05
-0.03
-0.015
-0.035
-0.08
-0.08
-0.11
-0.085
-0.105
-0.125
-0.165
-0.19
-0.24
-0.255
-0.285
-0.315
-0.36
-0.39
-0.415
-0.395
-0.405
-0.37
-0.345
-0.275
-0.225
-0.155
-0.1
-0.065
-0.05
-0.015
0.005
0.035
0.04
0.045
0.055
0.075
0.05
0.025
-0.03
-0.01
-0.025
-0.02
-0.03
-0.05
-0.07
-0.065
-0.075
-0.065
-0.08
-0.07
-0.045
-0.015
-0.01
-0.005
-0.015
0.005
0.0
0.03
0.025
0.015
0.015
0.02
0.015
0.02
-0.005
0.02
-0.005
0.01
-0.005
0.015
0.0
0.01
-0.015
-0.04
-0.1
-0.12
-0.155
-0.18
-0.21
-0.22
-0.19
-0.135
-0.095
-0.04
-0.005
0.05
0.08
0.08
0.08
0.085
0.06
0.055
0.01
-0.285
-1.105
-1.525
-0.69
0.14
0.745
1.025
0.505
0.215
0.12
0.035
-0.005
0.01
-0.005
0.015
-0.015
-0.045
-0.06
-0.06
-0.07
-0.075
-0.115
-0.125
-0.17
-0.185
-0.225
-0.24
-0.295
-0.315
-0.365
-0.375
-0.4
-0.385
-0.375
-0.35
-0.29
-0.23
-0.19
-0.11
-0.07
-0.025
-0.01
0.015
0.02
0.045
0.045
0.08
0.095
0.08
0.055
0.035
-0.005
0.005
0.005
0.03
-0.015
-0.005
-0.02
-0.03
-0.025
0.01
-0.015
0.0
-0.01
-0.005
-0.005
0.015
0.02
0.045
0.05
0.06
0.045
0.055
0.055
0.075
0.075
0.1
0.075
0.075
0.05
0.055
0.03
0.035
0.045
0.055
0.04
0.055
0.045
0.035
-0.005
0.015
-0.01
-0.03
-0.07
-0.07
-0.12
-0.175
-0.205
-0.14
-0.075
-0.035
-0.02
0.065
0.085
0.085
0.065
0.09
0.08
0.085
0.085
0.045
-0.18
-0.835
-1.39
-0.77
0.0
0.64
1.115
0.77
0.325
0.17
0.03
0.03
0.025
0.02
-0.005
-0.02
-0.055
-0.035
-0.065
-0.035
-0.07
-0.115
-0.14
-0.155
-0.18
-0.19
-0.225
-0.245
-0.255
-0.26
-0.33
-0.355
-0.36
-0.33
-0.315
-0.275
-0.24
-0.16
-0.1
-0.04
-0.035
-0.025
-0.02
0.035
0.05
0.07
0.08
0.08
0.055
0.045
0.025
0.02
-0.025
-0.03
-0.04
-0.045
-0.075
-0.07
-0.085
-0.075
-0.08
-0.065
-0.07
-0.05
-0.025
-0.015
-0.035
-0.035
-0.04
0.0
-0.01
0.015
0.0
0.02
0.02
0.04
0.015
0.005
0.02
0.025
0.035
0.055
0.035
0.025
-0.035
-0.045
-0.095
-0.105
-0.16
-0.21
-0.195
-0.1
-0.075
-0.05
0.005
0.075
0.09
0.115
0.095
0.13
0.115
0.115
0.06
-0.025
-0.44
-1.175
-1.14
-0.23
0.39
0.985
1.04
0.47
0.225
0.125
0.05
0.045
-0.005
0.03
0.035
0.025
-0.025
-0.005
-0.01
-0.02
-0.08
-0.08
-0.12
-0.11
-0.13
-0.145
-0.18
-0.205
-0.235
-0.27
-0.33
-0.33
-0.345
-0.305
-0.285
-0.23
-0.16
-0.06
-0.01
0.04
0.04
0.07
0.095
0.115
0.135
0.185
0.165
0.185
0.17
0.155
0.12
0.125
0.105
0.095
0.075
0.08
0.055
0.05
0.06
0.06
0.065
0.055
0.055
0.085
0.085
0.085
0.065
0.09
0.105
0.125
0.085
0.11
0.105
0.105
0.095
0.085
0.08
0.085
0.03
-0.005
-0.055
-0.055
-0.12
-0.155
-0.16
-0.06
0.005
0.035
0.085
0.11
0.12
0.155
0.15
0.155
0.15
0.16
0.105
-0.055
-0.695
-1.24
-0.74
0.035
0.655
1.17
0.825
0.365
0.235
0.125
0.065
0.065
0.035
0.055
0.06
0.055
0.025
0.04
0.025
0.01
-0.03
-0.065
-0.105
-0.11
-0.13
-0.145
-0.19
-0.24
-0.31
-0.33
-0.365
-0.375
-0.38
-0.36
-0.31
-0.22
-0.185
-0.09
-0.06
-0.025
0.005
0.03
0.035
0.055
0.065
0.1
0.105
0.1
0.08
0.06
0.03
0.025
-0.01
0.01
-0.025
-0.025
-0.045
-0.045
-0.04
-0.045
-0.04
-0.035
-0.025
-0.025
-0.015
0.0
0.0
0.01
0.005
0.015
0.01
0.04
0.03
0.03
-0.005
-0.045
-0.095
-0.125
-0.145
-0.17
-0.18
-0.14
-0.085
-0.04
-0.01
0.065
0.09
0.125
0.115
0.13
0.13
0.135
0.115
0.05
-0.425
-1.315
-1.35
-0.43
0.26
0.855
0.855
0.375
0.24
0.155
0.08
0.08
0.06
0.09
0.08
0.08
0.05
0.035
0.025
0.03
-0.005
-0.015
-0.04
-0.09
-0.125
-0.17
-0.22
-0.255
-0.305
-0.32
-0.365
-0.35
-0.35
-0.315
-0.27
-0.225
-0.175
-0.105
-0.05
0.0
0.035
0.055
0.085
0.105
0.095
0.105
0.115
0.155
0.13
0.105
0.08
0.08
0.065
0.08
0.05
0.06
0.055
0.045
0.025
0.04
0.03
0.025
0.015
0.03
0.015
0.04
0.045
0.06
0.045
0.05
0.055
0.06
0.055
0.055
0.06
0.045
0.015
-0.03
-0.08
-0.1
-0.13
-0.14
-0.165
-0.095
-0.06
-0.03
0.005
0.08
0.09
0.115
0.11
0.11
0.115
0.125
0.09
-0.075
-0.74
-1.48
-1.045
-0.135
0.51
0.98
0.675
0.27
0.2
0.095
0.05
0.045
0.055
0.065
0.04
0.035
-0.005
0.005
-0.015
-0.015
-0.045
-0.065
-0.1
-0.11
-0.155
-0.175
-0.22
-0.27
-0.32
-0.36
-0.375
-0.39
-0.385
-0.365
-0.33
-0.25
-0.195
-0.12
-0.075
-0.015
0.015
0.05
0.035
0.06
0.055
0.08
0.1
0.115
0.11
0.085
0.06
0.065
0.045
0.04
0.035
0.03
0.01
0.02
0.015
0.005
-0.005
0.025
0.03
0.05
0.055
0.05
0.045
0.06
0.045
0.065
0.045
0.055
0.04
0.035
0.03
0.055
0.04
0.005
-0.025
-0.045
-0.06
-0.115
-0.155
-0.15
-0.125
-0.045
-0.03
0.035
0.09
0.12
0.16
0.19
0.175
0.17
0.145
0.145
0.05
-0.445
-1.27
-1.135
-0.17
0.51
1.075
1.05
0.515
0.325
0.195
0.12
0.085
0.08
0.06
0.065
0.035
0.035
0.025
0.025
-0.005
-0.025
-0.05
-0.055
-0.095
-0.11
-0.17
-0.215
-0.25
-0.265
-0.33
-0.36
-0.375
-0.38
-0.39
-0.33
-0.275
-0.195
-0.135
-0.065
0.0
0.045
0.07
0.095
0.09
0.105
0.125
0.155
0.175
0.155
0.14
0.14
0.105
0.125
0.095
0.1
0.08
0.085
0.07
0.08
0.06
0.065
0.05
0.05
0.045
0.055
0.075
0.07
0.045
0.07
0.05
0.055
0.065
0.09
0.07
0.07
0.025
-0.025
-0.06
-0.08
-0.12
-0.18
-0.2
-0.11
-0.07
-0.03
0.01
0.08
0.075
0.09
0.105
0.12
0.115
0.1
0.055
0.03
-0.23
-0.91
-1.18
-0.385
0.29
0.89
1.2
0.695
0.275
0.13
0.025
0.025
0.01
-0.005
-0.025
-0.015
-0.025
-0.025
-0.025
-0.03
-0.08
-0.075
-0.115
-0.145
-0.17
-0.165
-0.21
-0.285
-0.315
-0.35
-0.38
-0.415
-0.445
-0.425
-0.385
-0.325
-0.26
-0.18
-0.125
-0.035
-0.005
0.015
0.045
0.06
0.08
0.095
0.115
0.13
0.105
0.105
0.09
0.085
0.055
0.07
0.055
0.03
-0.015
-0.01
0.025
0.055
0.03
0.01
0.025
0.025
0.025
0.05
0.08
0.08
0.055
0.055
0.055
0.085
0.06
0.04
0.005
-0.04
-0.105
-0.11
-0.13
-0.16
-0.19
-0.11
-0.025
-0.005
0.015
0.08
0.095
0.115
0.13
0.135
0.115
0.13
0.1
-0.03
-0.525
-1.165
-0.92
-0.105
0.525
1.14
1.02
0.47
0.245
0.125
0.09
0.07
0.02
0.03
0.005
0.02
0.025
0.015
0.005
-0.015
-0.065
-0.08
-0.095
-0.1
-0.145
-0.18
-0.21
-0.26
-0.305
-0.355
-0.4
-0.4
-0.425
-0.425
-0.395
-0.325
-0.255
-0.19
-0.145
-0.08
-0.065
-0.025
-0.01
0.005
0.0
0.03
0.015
0.025
0.015
0.01
-0.02
-0.025
-0.015
-0.025
-0.035
-0.035
-0.035
-0.055
-0.08
-0.095
-0.09
-0.07
-0.08
-0.08
-0.075
-0.06
-0.06
-0.05
-0.03
-0.025
-0.04
-0.005
-0.015
-0.035
-0.08
-0.13
-0.18
-0.175
-0.23
-0.235
-0.235
-0.155
-0.105
-0.08
-0.03
0.015
0.03
0.04
0.045
0.06
0.06
0.04
-0.05
-0.475
-1.375
-1.46
-0.575
0.13
0.725
0.815
0.315
0.17
0.065
0.015
-0.035
-0.025
-0.02
-0.025
-0.025
-0.035
-0.08
-0.085
-0.08
-0.085
-0.115
-0.13
-0.16
-0.19
-0.23
-0.265
-0.325
-0.37
-0.415
-0.435
-0.46
-0.45
-0.445
-0.39
-0.36
-0.285
-0.21
-0.145
-0.08
-0.03
-0.025
0.0
0.015
0.015
0.03
0.045
0.075
0.07
0.055
0.05
0.03
0.035
0.025
0.02
0.01
0.025
-0.015
-0.02
-0.03
-0.025
-0.02
-0.01
-0.01
0.005
-0.005
0.005
-0.005
0.0
-0.01
0.02
0.025
0.02
0.0
-0.015
-0.01
0.01
0.005
-0.005
-0.01
-0.04
-0.105
-0.145
-0.215
-0.22
-0.23
-0.23
-0.21
-0.15
-0.105
-0.08
-0.035
0.04
0.06
0.07
0.07
0.065
0.055
0.055
-0.035
-0.43
-1.33
-1.53
-0.64
0.115
0.72
0.82
0.315
0.15
0.035
-0.035
-0.07
-0.08
-0.08
-0.08
-0.105
-0.115
-0.15
-0.13
-0.135
-0.15
-0.17
-0.19
-0.22
-0.25
-0.295
-0.32
-0.35
-0.395
-0.43
-0.44
-0.47
-0.47
-0.48
-0.435
-0.395
-0.33
-0.265
-0.21
-0.17
-0.12
-0.1
-0.08
-0.075
-0.075
-0.045
-0.01
-0.005
0.0
-0.03
-0.05
-0.06
-0.06
-0.07
-0.07
-0.095
-0.1
-0.11
-0.12
-0.105
-0.09
-0.08
-0.08
-0.065
-0.03
-0.065
-0.04
-0.01
0.025
0.06
0.055
0.055
0.055
0.065
0.065
0.08
0.095
0.095
0.065
0.055
0.065
0.05
0.08
0.025
-0.045
-0.06
-0.12
-0.14
-0.155
-0.225
-0.215
-0.15
-0.085
-0.045
-0.01
0.045
0.065
0.085
0.14
0.145
0.13
0.11
0.11
0.015
-0.425
-1.21
-1.215
-0.3
0.385
1.0
1.13
0.545
0.275
0.135
0.085
0.035
0.02
0.02
0.03
0.01
-0.015
-0.035
-0.03
-0.03
-0.075
-0.08
-0.11
-0.165
-0.185
-0.175
-0.19
-0.265
-0.29
-0.345
-0.38
-0.4
-0.4
-0.39
-0.355
-0.325
-0.24
-0.15
-0.095
-0.03
-0.01
0.015
0.05
0.055
0.095
0.105
0.13
0.125
0.125
0.12
0.11
0.08
0.035
0.03
0.065
0.09
0.06
0.03
0.03
-0.005
0.03
0.03
0.045
0.035
0.06
0.055
0.06
0.065
0.09
0.08
0.09
0.08
0.065
0.075
0.075
0.08
0.095
0.055
0.005
-0.03
-0.075
-0.09
-0.11
-0.175
-0.13
-0.08
-0.01
0.025
0.06
0.12
0.14
0.135
0.195
0.19
0.175
0.165
0.135
0.005
-0.455
-1.135
-0.905
-0.075
0.565
1.145
1.065
0.51
0.29
0.165
0.095
0.065
0.055
0.05
0.05
0.035
0.04
-0.005
0.01
-0.005
-0.045
-0.08
-0.095
-0.115
-0.145
-0.165
-0.195
-0.235
-0.28
-0.355
-0.38
-0.415
-0.425
-0.4
-0.335
-0.27
-0.19
-0.12
-0.055
0.015
0.065
0.08
0.105
0.13
0.16
0.185
0.205
0.19
0.195
0.155
0.13
0.115
0.135
0.13
0.115
0.105
0.065
0.065
0.095
0.08
0.08
0.08
0.095
0.07
0.085
0.12
0.13
0.115
0.135
0.13
0.125
0.12
0.125
0.115
0.1
0.105
0.115
0.08
0.02
-0.035
-0.08
-0.115
-0.165
-0.21
-0.175
-0.12
-0.055
-0.035
-0.005
0.035
0.055
0.07
0.08
0.055
0.065
0.055
0.015
-0.205
-0.835
-1.415
-0.895
-0.12
0.55
0.95
0.61
0.245
0.125
0.005
-0.02
-0.04
-0.04
-0.035
-0.045
-0.055
-0.055
-0.085
-0.09
-0.11
-0.13
-0.175
-0.195
-0.225
-0.245
-0.285
-0.32
-0.37
-0.4
-0.445
-0.455
-0.445
-0.435
-0.4
-0.35
-0.28
-0.195
-0.14
-0.08
-0.04
0.005
0.03
0.055
0.06
0.08
0.08
0.115
0.115
0.1
0.08
0.06
0.025
0.015
-0.005
0.015
-0.01
-0.005
-0.02
-0.02
-0.035
-0.025
-0.03
-0.015
-0.01
-0.01
0.015
0.015
0.025
0.035
0.025
0.035
0.05
0.055
0.04
0.04
0.035
0.035
0.03
0.05
0.045
0.035
0.015
-0.055
-0.07
-0.09
-0.12
-0.16
-0.175
-0.185
-0.145
-0.08
-0.06
0.015
0.03
0.07
0.08
0.08
0.055
0.08
0.075
0.015
-0.255
-1.04
-1.605
-0.94
-0.115
0.585
0.9
0.46
0.195
0.125
0.025
0.01
-0.02
0.015
0.02
0.01
-0.035
-0.06
-0.07
-0.08
-0.09
-0.11
-0.145
-0.15
-0.185
-0.195
-0.235
-0.27
-0.33
-0.37
-0.4
-0.42
-0.435
-0.42
-0.4
-0.37
-0.315
-0.25
-0.175
-0.135
-0.11
-0.08
-0.065
-0.035
-0.03
-0.025
-0.02
0.01
0.045
0.04
-0.01
-0.025
-0.045
-0.055
-0.07
-0.075
-0.065
-0.07
-0.08
-0.095
-0.11
-0.105
-0.09
-0.08
-0.08
-0.06
-0.08
-0.07
-0.075
-0.07
-0.07
-0.065
-0.045
-0.055
-0.055
-0.03
-0.045
-0.04
-0.055
-0.03
-0.05
-0.035
-0.05
-0.05
-0.07
-0.065
-0.07
-0.095
-0.12
-0.175
-0.22
-0.235
-0.275
-0.29
-0.265
-0.23
-0.18
-0.165
-0.11
-0.05
-0.035
0.015
-0.005
0.0
-0.015
0.015
0.02
-0.06
-0.49
-1.34
-1.39
-0.445
0.27
0.855
0.935
0.445
0.29
0.175
0.105
0.115
0.085
0.09
0.07
0.055
-0.005
-0.015
-0.05
-0.07
-0.07
-0.08
-0.105
-0.145
-0.185
-0.2
-0.24
-0.27
-0.33
-0.37
-0.4
-0.42
-0.445
-0.43
-0.385
-0.315
-0.27
-0.2
-0.12
-0.07
-0.055
-0.005
0.025
0.035
0.04
0.05
0.095
0.11
0.085
0.09
0.065
0.09
0.045
0.03
0.005
-0.01
-0.005
-0.005
-0.015
0.015
-0.005
-0.01
-0.025
0.0
0.03
0.065
0.025
0.03
0.06
0.07
0.035
0.055
0.07
0.08
0.055
0.06
0.08
0.08
0.05
0.085
0.085
0.07
0.055
0.015
-0.01
-0.02
-0.075
-0.08
-0.15
-0.155
-0.135
-0.065
-0.01
0.06
0.09
0.115
0.135
0.115
0.15
0.175
0.15
0.155
0.095
-0.13
-0.77
-1.17
-0.45
0.26
0.855
1.255
0.765
0.365
0.21
0.115
0.07
0.05
0.055
0.045
0.045
0.055
-0.005
-0.005
-0.005
0.01
-0.04
-0.105
-0.125
-0.1
-0.14
-0.165
-0.205
-0.24
-0.275
-0.305
-0.345
-0.385
-0.365
-0.305
-0.255
-0.205
-0.165
-0.06
-0.01
0.05
0.06
0.105
0.115
0.14
0.185
0.185
0.17
0.18
0.175
0.15
0.12
0.125
0.08
0.095
0.085
0.07
0.065
0.045
0.055
0.095
0.085
0.065
0.075
0.105
0.09
0.08
0.1
0.125
0.095
0.13
0.105
0.1
0.095
0.12
0.115
0.06
0.03
-0.01
-0.04
-0.065
-0.105
-0.125
-0.03
0.03
0.055
0.145
0.165
0.16
0.175
0.23
0.215
0.215
0.18
0.155
0.03
-0.4
-1.015
-0.77
0.005
0.635
1.165
1.04
0.525
0.315
0.205
0.165
0.1
0.08
0.08
0.1
0.08
0.085
0.03
0.035
0.0
-0.02
-0.05
-0.08
-0.13
-0.18
-0.205
-0.225
-0.295
-0.33
-0.395
-0.425
-0.47
-0.47
-0.475
-0.425
-0.375
-0.29
-0.23
-0.145
-0.105
-0.065
-0.045
-0.015
-0.005
0.03
0.055
0.08
0.095
0.115
0.09
0.08
0.05
0.065
0.045
0.05
0.03
0.045
0.025
0.035
0.02
0.015
0.035
0.04
0.045
0.055
0.07
0.07
0.05
0.065
0.08
0.095
0.085
0.08
0.07
0.035
-0.02
-0.05
-0.075
-0.095
-0.125
-0.095
-0.055
-0.01
-0.005
0.08
0.155
0.18
0.17
0.18
0.17
0.15
0.13
0.11
-0.175
-0.91
-1.46
-0.835
-0.07
0.575
0.84
0.405
0.155
0.105
0.045
0.025
0.01
0.035
0.035
0.025
-0.02
-0.035
-0.07
-0.055
-0.08
-0.095
-0.135
-0.145
-0.16
-0.19
-0.235
-0.265
-0.305
-0.34
-0.355
-0.4
-0.48
-0.48
-0.49
-0.435
-0.4
-0.315
-0.25
-0.195
-0.185
-0.14
-0.13
-0.105
-0.1
-0.09
-0.105
-0.065
-0.08
-0.105
-0.155
-0.165
-0.19
-0.185
-0.195
-0.205
-0.22
-0.21
-0.245
-0.24
-0.26
-0.28
-0.285
-0.27
-0.28
-0.245
-0.265
-0.25
-0.27
-0.265
-0.265
-0.27
-0.29
-0.285
-0.29
-0.28
-0.365
-0.4
-0.45
-0.485
-0.52
-0.55
-0.545
-0.49
-0.46
-0.425
-0.375
-0.325
-0.3
-0.3
-0.33
-0.33
-0.345
-0.335
-0.395
-0.55
-1.25
-1.945
-1.495
-0.61
0.04
0.505
0.195
-0.225
-0.365
-0.49
-0.53
-0.585
-0.605
-0.585
-0.625
-0.66
-0.7
-0.7
-0.71
-0.72
-0.76
-0.775
-0.805
-0.83
-0.88
-0.915
-0.99
-0.99
-1.005
-1.015
-1.025
-1.045
-1.085
-1.05
-0.975
-0.88
-0.78
-0.65
-0.52
-0.415
-0.4
-0.37
-0.355
-0.385
-0.465
-0.39
-0.325
-0.3
-0.3
-0.325
-0.33
-0.34
-0.39
-0.365
-0.39
-0.395
-0.365
-0.375
-0.4
-0.39
-0.4
-0.37
-0.375
-0.345
-0.375
-0.335
-0.325
-0.315
-0.295
-0.275
-0.29
-0.285
-0.285
-0.285
-0.285
-0.285
-0.27
-0.31
-0.38
-0.43
-0.475
-0.46
-0.525
-0.51
-0.455
-0.4
-0.41
-0.31
-0.275
-0.24
-0.21
-0.215
-0.255
-0.22
-0.25
-0.265
-0.34
-0.755
-1.45
-1.285
-0.4
0.24
0.835
0.82
0.2
-0.03
-0.205
-0.255
-0.27
-0.28
-0.285
-0.325
-0.34
-0.29
-0.275
-0.285
-0.345
-0.355
-0.365
-0.4
-0.415
-0.39
-0.43
-0.47
-0.525
-0.59
-0.67
-0.695
-0.765
-0.79
-0.79
-0.725
-0.685
-0.575
-0.49
-0.425
-0.375
-0.33
-0.285
-0.265
-0.27
-0.215
-0.21
-0.205
-0.205
-0.22
-0.24
-0.245
-0.265
-0.26
-0.275
-0.285
-0.33
-0.305
-0.33
-0.33
-0.35
-0.345
-0.39
-0.355
-0.34
-0.325
-0.34
-0.38
-0.4
-0.405
-0.425
-0.395
-0.42
-0.5
-0.55
-0.585
-0.635
-0.69
-0.72
-0.645
-0.595
-0.55
-0.54
-0.46
-0.45
-0.455
-0.49
-0.455
-0.495
-0.51
-0.555
-0.67
-1.11
-1.805
-1.805
-0.92
-0.295
0.245
0.195
-0.4
-0.65
-0.785
-0.865
-0.9
-0.935
-0.93
-0.94
-0.92
-0.915
-0.915
-0.95
-0.955
-0.98
-0.98
-0.995
-0.98
-1.0
-0.995
-1.05
-1.065
-1.1
-1.15
-1.185
-1.165
-1.17
-1.15
-1.095
-0.995
-0.915
-0.78
-0.675
-0.615
-0.55
-0.48
-0.445
-0.405
-0.415
-0.4
-0.41
-0.39
-0.45
-0.49
-0.485
-0.505
-0.54
-0.525
-0.525
-0.49
-0.49
-0.47
-0.48
-0.455
-0.455
-0.425
-0.44
-0.42
-0.405
-0.375
-0.385
-0.345
-0.325
-0.315
-0.37
-0.39
-0.43
-0.48
-0.515
-0.52
-0.53
-0.425
-0.315
-0.255
-0.215
-0.13
-0.095
-0.065
-0.075
-0.025
-0.035
0.01
0.035
-0.09
-0.63
-1.465
-1.345
-0.435
0.195
0.805
0.69
0.155
-0.02
-0.15
-0.235
-0.175
-0.325
-0.4
-0.315
-0.285
-0.38
-0.395
-0.295
-0.285
-0.39
-0.45
-0.325
-0.4
-0.515
-0.555
-0.51
-0.525
-0.675
-0.735
-0.675
-0.665
-0.755
-0.75
-0.685
-0.545
-0.59
-0.545
-0.45
-0.34
-0.365
-0.35
-0.335
-0.315
-0.28
-0.305
-0.35
-0.315
-0.235
-0.195
-0.185
-0.21
-0.245
-0.145
-0.175
-0.135
-0.15
-0.13
-0.105
-0.09
-0.115
-0.155
-0.125
-0.175
-0.125
-0.14
-0.215
-0.225
-0.365
-0.39
-0.41
-0.43
-0.49
-0.525
-0.495
-0.45
-0.395
-0.35
-0.34
-0.305
-0.325
-0.325
-0.36
-0.375
-0.44
-0.425
-0.48
-1.08
-2.025
-1.945
-1.085
-0.25
0.545
0.56
0.14
0.03
-0.11
-0.165
-0.195
-0.205
-0.19
-0.24
-0.325
-0.345
-0.385
-0.36
-0.415
-0.43
-0.455
-0.495
-0.505
-0.49
-0.525
-0.525
-0.615
-0.66
-0.705
-0.715
-0.755
-0.79
-0.805
-0.735
-0.615
-0.435
-0.345
-0.235
-0.18
-0.135
-0.085
-0.045
-0.03
-0.005
0.015
0.025
0.015
0.045
0.055
0.065
0.07
0.08
0.04
0.025
-0.01
0.005
-0.025
-0.015
-0.035
-0.035
-0.025
0.01
-0.015
0.01
-0.02
-0.025
-0.09
-0.11
-0.12
-0.145
-0.185
-0.15
-0.12
-0.055
0.005
0.095
0.11
0.135
0.155
0.18
0.175
0.185
0.17
0.085
-0.58
-1.625
-1.615
-0.755
0.115
0.895
0.86
0.44
0.285
0.205
0.125
0.12
0.085
0.11
0.09
0.085
0.05
0.055
0.045
0.045
0.015
0.005
-0.015
-0.025
-0.04
-0.065
-0.14
-0.195
-0.235
-0.27
-0.315
-0.35
-0.365
-0.345
-0.305
-0.205
-0.14
-0.035
0.03
0.105
0.135
0.18
0.18
0.22
0.2
0.235
0.22
0.245
0.25
0.26
0.255
0.24
0.24
0.24
0.225
0.23
0.22
0.21
0.19
0.185
0.175
0.17
0.16
0.15
0.14
0.155
0.13
0.135
0.13
0.115
0.065
0.055
-0.005
-0.015
-0.065
-0.075
-0.08
-0.045
-0.02
0.01
0.07
0.11
0.115
0.12
0.105
0.09
0.09
0.085
0.0
-0.43
-1.36
-1.545
-0.64
0.11
0.72
0.83
0.29
0.135
0.035
0.005
-0.025
-0.02
-0.05
-0.01
-0.01
0.0
0.02
0.04
0.025
0.03
-0.005
-0.045
-0.09
-0.08
-0.07
-0.1
-0.17
-0.265
-0.305
-0.365
-0.445
-0.445
-0.455
-0.405
-0.375
-0.305
-0.185
-0.07
-0.06
0.01
0.055
0.055
0.085
0.08
0.1
0.14
0.135
0.18
0.155
0.145
0.14
0.155
0.13
0.12
0.155
0.145
0.14
0.165
0.105
0.105
0.1
0.11
0.095
0.135
0.135
0.11
0.13
0.14
0.12
0.115
0.065
0.055
0.02
-0.035
-0.075
-0.08
-0.085
-0.04
-0.03
-0.005
-0.005
0.135
0.155
0.14
0.125
0.135
0.11
0.095
0.085
-0.01
-0.705
-1.695
-1.595
-0.735
0.155
0.98
0.905
0.405
0.25
0.16
0.085
0.09
0.08
0.085
0.095
0.065
0.01
0.055
0.03
0.02
-0.025
-0.035
-0.05
-0.095
-0.155
-0.185
-0.24
-0.265
-0.37
-0.4
-0.44
-0.49
-0.51
-0.5
-0.45
-0.355
-0.26
-0.145
-0.1
0.005
0.075
0.11
0.08
0.08
0.085
0.135
0.155
0.175
0.165
0.18
0.15
0.135
0.165
0.205
0.155
0.15
0.155
0.135
0.13
0.125
0.095
0.13
0.105
0.1
0.085
0.125
0.11
0.115
0.1
0.105
0.07
0.05
-0.02
-0.055
-0.1
-0.12
-0.12
-0.07
-0.045
0.03
0.07
0.13
0.175
0.19
0.18
0.185
0.16
0.175
0.12
-0.33
-1.42
-1.94
-1.185
-0.235
0.63
0.97
0.465
0.24
0.13
0.06
0.015
0.01
-0.015
-0.01
-0.05
-0.045
-0.07
-0.07
-0.07
-0.075
-0.105
-0.12
-0.155
-0.19
-0.235
-0.28
-0.325
-0.385
-0.45
-0.495
-0.55
-0.56
-0.56
-0.525
-0.475
-0.395
-0.31
-0.22
-0.16
-0.09
-0.075
-0.035
-0.025
-0.005
0.0
0.015
0.01
0.015
0.02
0.015
0.01
0.015
0.005
0.015
-0.005
-0.005
-0.025
-0.025
-0.05
-0.06
-0.07
-0.07
-0.085
-0.075
-0.075
-0.08
-0.095
-0.08
-0.1
-0.08
-0.08
-0.065
-0.08
-0.08
-0.08
-0.06
-0.08
-0.08
-0.135
-0.155
-0.215
-0.225
-0.23
-0.255
-0.275
-0.235
-0.205
-0.16
-0.145
-0.075
-0.055
-0.03
-0.02
-0.01
-0.02
0.01
-0.03
-0.11
-0.555
-1.52
-1.66
-0.74
0.0
0.665
0.67
0.2
0.065
-0.02
-0.095
-0.115
-0.11
-0.085
-0.1
-0.13
-0.165
-0.18
-0.185
-0.175
-0.205
-0.215
-0.24
-0.285
-0.34
-0.38
-0.4
-0.435
-0.455
-0.455
-0.475
-0.47
-0.425
-0.41
-0.445
-0.395
-0.345
-0.27
-0.21
-0.08
0.01
0.045
0.015
0.055
0.05
0.065
0.055
0.055
0.08
0.105
0.14
0.135
0.08
0.06
0.065
0.08
0.035
0.03
0.03
0.015
-0.015
-0.035
-0.055
-0.035
-0.055
-0.005
0.01
-0.02
-0.025
0.015
0.005
-0.02
-0.045
-0.005
0.03
0.025
0.025
0.015
-0.05
-0.085
-0.14
-0.115
-0.15
-0.175
-0.17
-0.12
-0.075
-0.04
-0.02
0.08
0.1
0.1
0.07
0.08
0.09
0.085
0.065
-0.24
-1.215
-1.835
-1.215
-0.39
0.465
1.01
0.58
0.27
0.135
0.045
0.05
0.065
0.055
0.005
-0.035
0.005
0.02
-0.005
-0.005
0.015
-0.02
-0.045
-0.11
-0.16
-0.165
-0.165
-0.25
-0.275
-0.33
-0.35
-0.42
-0.445
-0.44
-0.395
-0.325
-0.215
-0.16
-0.075
-0.015
0.07
0.13
0.14
0.15
0.145
0.155
0.22
0.195
0.205
0.24
0.255
0.195
0.18
0.2
0.205
0.185
0.155
0.135
0.2
0.135
0.135
0.135
0.16
0.145
0.165
0.175
0.18
0.145
0.15
0.18
0.215
0.165
0.17
0.19
0.15
0.07
0.055
0.055
0.02
-0.02
0.01
0.045
0.115
0.135
0.18
0.185
0.215
0.21
0.215
0.22
0.255
0.24
0.145
-0.535
-1.665
-1.7
-0.755
0.215
1.075
0.975
0.47
0.33
0.255
0.195
0.19
0.16
0.155
0.145
0.155
0.125
0.14
0.115
0.105
0.07
0.055
0.035
0.025
-0.025
-0.055
-0.11
-0.135
-0.205
-0.245
-0.295
-0.305
-0.295
-0.28
-0.24
-0.165
-0.1
0.005
0.06
0.13
0.155
0.2
0.21
0.245
0.255
0.27
0.28
0.3
0.29
0.285
0.275
0.265
0.255
0.24
0.225
0.225
0.195
0.205
0.185
0.195
0.175
0.185
0.175
0.195
0.19
0.195
0.18
0.19
0.195
0.195
0.195
0.195
0.18
0.185
0.18
0.18
0.185
0.18
0.175
0.135
0.075
0.06
0.0
0.005
-0.025
-0.03
-0.01
0.02
0.055
0.09
0.155
0.215
0.215
0.24
0.24
0.235
0.245
0.225
0.145
-0.205
-1.16
-1.565
-0.75
0.095
0.755
0.94
0.47
0.335
0.255
0.185
0.14
0.135
0.11
0.12
0.12
0.1
0.09
0.105
0.08
0.06
0.035
0.045
0.01
-0.005
-0.045
-0.075
-0.12
-0.165
-0.205
-0.24
-0.27
-0.275
-0.27
-0.24
-0.19
-0.135
-0.075
0.01
0.04
0.095
0.115
0.14
0.16
0.185
0.18
0.185
0.2
0.21
0.205
0.21
0.19
0.19
0.195
0.17
0.175
0.17
0.135
0.145
0.135
0.135
0.135
0.13
0.13
0.145
0.13
0.145
0.135
0.155
0.135
0.145
0.135
0.13
0.13
0.125
0.13
0.145
0.14
0.115
0.055
0.02
-0.005
-0.025
-0.065
-0.07
-0.08
-0.02
0.025
0.08
0.115
0.145
0.16
0.195
0.215
0.215
0.205
0.24
0.195
-0.095
-1.005
-1.47
-0.635
0.17
0.88
1.145
0.65
0.425
0.34
0.245
0.17
0.15
0.15
0.15
0.155
0.175
0.115
0.145
0.145
0.11
0.08
0.04
0.005
-0.035
-0.065
-0.07
-0.15
-0.215
-0.23
-0.295
-0.345
-0.33
-0.33
-0.335
-0.29
-0.215
-0.155
-0.09
-0.005
0.05
0.08
0.115
0.085
0.105
0.105
0.14
0.175
0.15
0.155
0.165
0.13
0.13
0.13
0.13
0.125
0.135
0.1
0.115
0.11
0.08
0.085
0.085
0.1
0.105
0.095
0.11
0.09
0.08
0.08
0.095
0.1
0.1
0.065
0.035
-0.045
-0.06
-0.065
-0.095
-0.12
-0.075
-0.005
0.03
0.065
0.105
0.13
0.16
0.175
0.145
0.145
0.135
0.115
-0.08
-0.945
-1.725
-1.23
-0.405
0.415
1.09
0.795
0.36
0.205
0.14
0.11
0.08
0.08
0.09
0.055
0.03
0.05
0.055
0.035
0.005
0.005
-0.045
-0.105
-0.11
-0.12
-0.17
-0.215
-0.24
-0.305
-0.33
-0.35
-0.34
-0.335
-0.31
-0.21
-0.14
-0.075
0.025
0.05
0.13
0.175
0.205
0.215
0.24
0.275
0.295
0.305
0.305
0.255
0.225
0.24
0.245
0.22
0.195
0.17
0.15
0.135
0.15
0.145
0.17
0.155
0.145
0.155
0.16
0.165
0.19
0.155
0.155
0.155
0.145
0.1
0.065
0.035
0.0
-0.055
-0.07
-0.04
0.005
0.05
0.09
0.135
0.17
0.21
0.205
0.195
0.215
0.21
0.185
0.095
-0.51
-1.59
-1.63
-0.71
0.155
0.935
0.945
0.435
0.28
0.185
0.135
0.115
0.09
0.08
0.085
0.07
0.045
0.05
0.035
0.02
0.0
-0.025
-0.05
-0.075
-0.095
-0.125
-0.165
-0.215
-0.255
-0.295
-0.315
-0.335
-0.33
-0.32
-0.255
-0.18
-0.11
-0.035
0.015
0.05
0.095
0.115
0.145
0.165
0.175
0.195
0.205
0.215
0.19
0.175
0.155
0.145
0.145
0.1
0.09
0.075
0.09
0.085
0.075
0.07
0.085
0.07
0.09
0.075
0.1
0.105
0.095
0.12
0.105
0.11
0.12
0.095
0.105
0.075
0.03
-0.005
-0.045
-0.06
-0.105
-0.12
-0.08
-0.025
0.01
0.055
0.1
0.135
0.155
0.17
0.17
0.155
0.165
0.14
0.04
-0.49
-1.46
-1.45
-0.47
0.275
0.925
0.855
0.37
0.235
0.12
0.06
0.03
0.02
0.02
0.01
0.005
0.01
-0.005
-0.01
-0.025
-0.035
-0.065
-0.08
-0.115
-0.145
-0.165
-0.205
-0.225
-0.29
-0.335
-0.35
-0.355
-0.355
-0.335
-0.295
-0.23
-0.19
-0.1
-0.055
-0.02
0.01
0.05
0.085
0.1
0.095
0.105
0.125
0.135
0.145
0.12
0.11
0.095
0.085
0.085
0.07
0.05
0.045
0.035
0.03
0.01
0.015
0.035
0.025
0.035
0.04
0.045
0.045
0.055
0.065
0.08
0.065
0.065
0.05
0.055
0.045
0.01
-0.035
-0.075
-0.085
-0.125
-0.145
-0.14
-0.08
-0.04
-0.015
0.055
0.09
0.115
0.13
0.135
0.155
0.145
0.135
0.11
-0.11
-0.86
-1.57
-0.95
-0.025
0.68
1.1
0.695
0.315
0.2
0.08
0.055
0.04
0.015
0.015
0.025
-0.005
-0.02
-0.04
-0.035
-0.03
-0.045
-0.075
-0.105
-0.135
-0.18
-0.215
-0.25
-0.305
-0.345
-0.35
-0.385
-0.39
-0.38
-0.355
-0.295
-0.22
-0.15
-0.1
-0.04
0.005
0.035
0.065
0.1
0.09
0.125
0.155
0.155
0.155
0.135
0.125
0.115
0.09
0.105
0.13
0.125
0.115
0.085
0.08
0.065
0.08
0.095
0.115
0.135
0.125
0.125
0.135
0.15
0.15
0.145
0.13
0.125
0.13
0.14
0.135
0.145
0.145
0.13
0.1
0.075
0.05
-0.005
-0.045
-0.05
-0.1
-0.095
-0.015
0.03
0.065
0.11
0.135
0.18
0.195
0.2
0.21
0.2
0.185
0.175
0.07
-0.495
-1.345
-1.095
-0.19
0.47
1.125
1.055
0.49
0.295
0.17
0.105
0.08
0.08
0.085
0.065
0.065
0.05
0.025
0.005
-0.005
-0.03
-0.07
-0.09
-0.115
-0.125
-0.155
-0.205
-0.225
-0.255
-0.29
-0.31
-0.355
-0.35
-0.32
-0.27
-0.195
-0.15
-0.08
-0.035
0.025
0.07
0.1
0.115
0.105
0.15
0.175
0.195
0.19
0.13
0.09
0.105
0.09
0.055
0.05
0.05
0.015
0.035
0.03
0.03
0.04
0.015
-0.01
0.05
0.065
0.08
0.08
0.065
0.08
0.055
0.05
0.085
0.105
0.095
0.08
0.08
0.095
0.04
-0.03
-0.05
-0.075
-0.105
-0.14
-0.1
-0.06
-0.005
0.065
0.115
0.135
0.185
0.165
0.185
0.18
0.17
0.18
0.16
0.015
-0.595
-1.32
-0.905
-0.09
0.56
1.145
0.935
0.465
0.27
0.16
0.165
0.11
0.08
0.09
0.1
0.075
0.07
0.06
0.035
0.015
-0.02
-0.06
-0.07
-0.085
-0.095
-0.14
-0.18
-0.23
-0.24
-0.295
-0.32
-0.345
-0.325
-0.305
-0.25
-0.165
-0.095
-0.03
0.025
0.07
0.1
0.13
0.17
0.17
0.175
0.19
0.19
0.19
0.155
0.11
0.11
0.075
0.08
0.06
0.08
0.035
0.02
0.01
0.02
0.0
0.02
0.015
0.025
0.025
0.045
0.045
0.075
0.065
0.065
0.06
0.05
0.06
0.075
0.08
0.07
0.065
0.07
0.015
-0.03
-0.075
-0.065
-0.105
-0.13
-0.14
-0.08
-0.035
0.005
0.035
0.095
0.125
0.145
0.15
0.155
0.165
0.17
0.135
0.035
-0.54
-1.425
-1.285
-0.395
0.3
0.875
0.745
0.35
0.255
0.155
0.1
0.105
0.115
0.13
0.09
0.065
0.025
0.04
0.035
0.05
0.01
-0.015
-0.05
-0.06
-0.1
-0.135
-0.165
-0.195
-0.21
-0.24
-0.26
-0.27
-0.265
-0.23
-0.19
-0.115
-0.08
0.015
0.06
0.105
0.11
0.155
0.185
0.2
0.21
0.225
0.22
0.24
0.225
0.215
0.19
0.185
0.165
0.155
0.12
0.125
0.105
0.105
0.08
0.085
0.095
0.11
0.095
0.12
0.125
0.14
0.125
0.135
0.145
0.16
0.15
0.155
0.155
0.155
0.14
0.175
0.15
0.155
0.14
0.14
0.145
0.145
0.14
0.155
0.155
0.17
0.16
0.145
0.135
0.145
0.15
0.145
0.07
0.05
-0.005
-0.015
-0.055
-0.08
-0.065
-0.005
0.025
0.07
0.13
0.185
0.19
0.205
0.21
0.215
0.215
0.215
0.17
0.01
-0.695
-1.465
-1.06
-0.145
0.57
1.015
0.705
0.375
0.27
0.17
0.135
0.145
0.13
0.13
0.115
0.085
0.06
0.075
0.055
0.05
0.035
0.005
-0.04
-0.055
-0.09
-0.085
-0.13
-0.13
-0.185
-0.195
-0.205
-0.2
-0.19
-0.165
-0.115
-0.045
-0.005
0.055
0.09
0.11
0.13
0.165
0.175
0.195
0.195
0.215
0.19
0.2
0.175
0.17
0.145
0.145
0.135
0.12
0.085
0.08
0.05
0.055
0.05
0.06
0.07
0.065
0.065
0.09
0.09
0.105
0.09
0.105
0.095
0.11
0.1
0.11
0.095
0.1
0.095
0.115
0.105
0.1
0.095
0.11
0.11
0.115
0.1
0.115
0.1
0.115
0.1
0.115
0.095
0.105
0.11
0.11
0.085
0.105
0.095
0.095
0.095
0.105
0.095
0.075
0.025
-0.01
-0.045
-0.07
-0.12
-0.115
-0.105
-0.045
-0.01
0.015
0.08
0.13
0.135
0.165
0.145
0.16
0.155
0.155
0.105
-0.125
-0.885
-1.555
-0.965
-0.065
0.645
1.01
0.605
0.305
0.205
0.125
0.065
0.065
0.05
0.06
0.03
0.01
-0.025
0.0
0.0
-0.01
-0.055
-0.08
-0.12
-0.115
-0.14
-0.155
-0.18
-0.215
-0.24
-0.265
-0.27
-0.255
-0.235
-0.185
-0.135
-0.07
-0.005
0.045
0.065
0.08
0.07
0.115
0.095
0.13
0.135
0.16
0.155
0.14
0.11
0.1
0.085
0.08
0.065
0.055
0.025
0.005
0.015
0.015
0.005
0.015
0.01
0.025
0.02
0.045
0.04
0.07
0.05
0.08
0.07
0.08
0.06
0.09
0.065
0.085
0.065
0.08
0.07
0.085
0.08
0.07
0.06
0.065
0.07
0.075
0.055
0.055
0.05
0.06
0.06
0.06
0.03
0.06
0.045
0.06
0.045
0.065
0.055
0.07
0.065
0.055
0.05
0.03
-0.02
-0.055
-0.08
-0.105
-0.14
-0.145
-0.09
-0.035
-0.015
0.045
0.07
0.12
0.125
0.145
0.135
0.145
0.13
0.125
-0.015
-0.575
-1.48
-1.25
-0.27
0.49
1.0
0.825
0.375
0.265
0.135
0.095
0.085
0.115
0.125
0.09
0.05
0.04
0.035
0.045
0.02
0.0
-0.045
-0.06
-0.1
-0.105
-0.14
-0.155
-0.205
-0.205
-0.24
-0.23
-0.225
-0.175
-0.15
-0.095
-0.045
0.035
0.075
0.105
0.11
0.115
0.115
0.14
0.13
0.115
0.145
0.15
0.13
0.08
0.03
0.015
0.015
0.04
0.015
0.015
-0.025
-0.05
-0.065
-0.05
-0.055
-0.035
-0.05
-0.015
-0.015
0.005
0.005
0.025
0.02
0.03
0.03
0.055
0.065
0.065
0.05
0.05
0.04
0.045
0.04
0.03
0.03
0.035
0.03
0.025
-0.005
0.015
0.0
0.015
-0.005
0.015
-0.005
0.015
0.01
0.01
0.01
0.025
0.01
0.015
0.02
0.03
0.025
0.025
0.005
-0.025
-0.07
-0.135
-0.17
-0.18
-0.215
-0.21
-0.165
-0.115
-0.11
-0.04
0.0
0.055
0.045
0.06
0.055
0.08
0.055
0.035
-0.165
-0.845
-1.615
-1.085
-0.145
0.565
0.995
0.665
0.29
0.185
0.045
0.025
0.03
0.06
0.055
0.005
-0.04
-0.055
-0.04
-0.015
-0.065
-0.095
-0.12
-0.125
-0.165
-0.185
-0.22
-0.215
-0.25
-0.255
-0.28
-0.275
-0.265
-0.21
-0.165
-0.105
-0.045
0.025
0.08
0.095
0.095
0.105
0.115
0.105
0.085
0.1
0.1
0.1
0.075
0.055
0.01
0.01
-0.015
-0.015
-0.05
-0.075
-0.095
-0.08
-0.09
-0.08
-0.09
-0.06
-0.045
-0.04
-0.035
-0.025
-0.015
0.01
-0.015
0.005
0.015
0.015
0.005
0.01
0.005
0.03
0.015
0.02
0.0
0.025
0.005
0.015
0.03
0.035
0.005
0.015
0.02
0.03
0.01
0.02
0.02
0.03
0.03
0.015
-0.01
0.005
0.01
0.015
0.01
-0.035
-0.06
-0.105
-0.135
-0.145
-0.19
-0.195
-0.135
-0.07
-0.05
0.005
0.035
0.065
0.06
0.085
0.055
0.08
0.06
0.04
-0.225
-1.02
-1.535
-0.75
0.04
0.665
1.035
0.64
0.295
0.155
0.065
0.03
0.015
0.01
-0.005
-0.01
-0.02
-0.035
-0.015
0.005
-0.045
-0.075
-0.115
-0.12
-0.155
-0.145
-0.17
-0.205
-0.24
-0.27
-0.285
-0.265
-0.24
-0.195
-0.155
-0.09
-0.02
0.035
0.085
0.13
0.15
0.145
0.125
0.155
0.16
0.175
0.18
0.195
0.14
0.08
0.045
0.055
0.02
0.01
-0.005
0.01
-0.005
0.015
-0.005
-0.01
-0.005
0.035
0.045
0.08
0.045
0.07
0.065
0.08
0.08
0.08
0.09
0.1
0.075
0.105
0.085
0.08
0.07
0.065
0.08
0.09
0.08
0.085
0.08
0.085
0.075
0.09
0.065
0.055
0.015
-0.03
-0.07
-0.07
-0.135
-0.13
-0.115
-0.075
-0.035
0.015
0.075
0.13
0.14
0.135
0.13
0.145
0.13
0.115
0.05
-0.395
-1.255
-1.165
-0.27
0.325
0.905
0.95
0.435
0.245
0.13
0.085
0.045
0.025
0.02
0.025
-0.01
-0.005
-0.02
-0.015
-0.03
-0.055
-0.105
-0.11
-0.135
-0.14
-0.175
-0.2
-0.215
-0.225
-0.25
-0.25
-0.23
-0.195
-0.17
-0.105
-0.05
0.02
0.055
0.105
0.11
0.125
0.135
0.13
0.13
0.15
0.13
0.13
0.11
0.085
0.075
0.08
0.04
0.025
0.01
0.01
0.025
0.03
0.01
0.005
0.02
0.035
0.035
0.04
0.04
0.08
0.055
0.075
0.06
0.065
0.06
0.08
0.08
0.09
0.08
0.095
0.095
0.1
0.095
0.085
0.09
0.09
0.095
0.105
0.1
0.07
0.02
-0.005
-0.045
-0.065
-0.105
-0.11
-0.07
-0.005
0.01
0.07
0.105
0.155
0.18
0.185
0.18
0.17
0.16
0.145
-0.025
-0.705
-1.475
-1.02
-0.11
0.54
1.015
0.74
0.34
0.255
0.13
0.115
0.095
0.09
0.08
0.09
0.06
0.06
0.035
0.035
0.02
-0.005
-0.025
-0.055
-0.06
-0.08
-0.11
-0.13
-0.15
-0.16
-0.185
-0.185
-0.165
-0.135
-0.095
-0.02
0.035
0.09
0.13
0.17
0.175
0.185
0.18
0.19
0.195
0.2
0.195
0.19
0.155
0.14
0.125
0.11
0.09
0.08
0.065
0.07
0.03
0.045
0.03
0.045
0.05
0.055
0.06
0.08
0.07
0.08
0.08
0.07
0.08
0.085
0.1
0.105
0.085
0.11
0.105
0.11
0.105
0.115
0.095
0.1
0.09
0.09
0.03
0.005
-0.045
-0.06
-0.095
-0.125
-0.105
-0.035
0.01
0.055
0.095
0.15
0.15
0.17
0.18
0.185
0.16
0.15
0.035
-0.455
-1.38
-1.255
-0.255
0.43
1.015
0.935
0.39
0.24
0.14
0.08
0.07
0.08
0.07
0.06
0.01
-0.025
-0.05
-0.025
-0.025
-0.03
-0.085
-0.12
-0.165
-0.165
-0.195
-0.21
-0.24
-0.285
-0.315
-0.3
-0.27
-0.23
-0.205
-0.155
-0.095
-0.01
0.015
0.065
0.095
0.115
0.095
0.11
0.1
0.115
0.145
0.16
0.12
0.08
0.04
0.035
0.02
0.015
-0.015
-0.02
-0.035
-0.025
-0.04
-0.04
-0.045
-0.025
-0.015
0.015
0.005
0.035
0.04
0.03
0.035
0.045
0.04
0.045
0.06
0.075
0.08
0.08
0.05
0.05
0.03
0.025
-0.045
-0.075
-0.125
-0.15
-0.195
-0.195
-0.15
-0.1
-0.07
-0.025
0.03
0.08
0.09
0.105
0.12
0.11
0.11
0.085
-0.07
-0.675
-1.47
-1.05
-0.11
0.525
1.035
0.81
0.29
0.19
0.065
0.005
-0.01
0.03
0.035
0.02
-0.035
-0.09
-0.115
-0.085
-0.09
-0.11
-0.145
-0.17
-0.195
-0.215
-0.255
-0.28
-0.31
-0.32
-0.345
-0.33
-0.325
-0.295
-0.255
-0.19
-0.13
-0.055
-0.025
0.025
0.035
0.035
0.05
0.05
0.06
0.08
0.09
0.065
0.025
-0.02
-0.05
-0.06
-0.075
-0.085
-0.115
-0.105
-0.125
-0.13
-0.125
-0.095
-0.09
-0.08
-0.07
-0.065
-0.07
-0.05
-0.05
-0.03
-0.035
-0.035
-0.025
-0.025
-0.025
-0.015
-0.025
-0.005
-0.01
-0.025
-0.08
-0.125
-0.165
-0.185
-0.235
-0.225
-0.17
-0.11
-0.095
-0.04
0.01
0.04
0.05
0.055
0.055
0.055
0.055
0.035
-0.205
-0.945
-1.52
-0.735
0.09
0.715
1.085
0.65
0.24
0.15
0.045
0.005
-0.005
0.02
0.005
-0.015
-0.045
-0.085
-0.095
-0.095
-0.105
-0.125
-0.185
-0.195
-0.235
-0.26
-0.305
-0.315
-0.34
-0.355
-0.385
-0.355
-0.345
-0.305
-0.265
-0.21
-0.135
-0.075
-0.03
0.01
0.025
0.04
0.055
0.07
0.09
0.105
0.095
0.08
0.025
0.02
-0.015
-0.025
-0.035
-0.045
-0.06
-0.065
-0.075
-0.065
-0.085
-0.05
-0.045
-0.045
-0.03
-0.015
-0.005
0.015
0.01
0.03
0.02
0.045
0.05
0.055
0.045
0.05
0.045
0.065
0.04
0.03
-0.02
-0.08
-0.105
-0.13
-0.165
-0.195
-0.175
-0.115
-0.075
-0.04
0.005
0.06
0.085
0.11
0.12
0.13
0.11
0.12
0.035
-0.395
-1.285
-1.27
-0.26
0.405
0.97
0.995
0.415
0.215
0.125
0.04
0.01
0.005
0.005
0.025
-0.025
-0.055
-0.085
-0.07
-0.08
-0.08
-0.135
-0.16
-0.21
-0.215
-0.255
-0.27
-0.295
-0.31
-0.325
-0.335
-0.32
-0.29
-0.24
-0.19
-0.145
-0.075
-0.02
0.015
0.035
0.06
0.055
0.095
0.09
0.125
0.12
0.105
0.065
0.035
-0.015
-0.005
-0.02
-0.025
-0.06
-0.065
-0.095
-0.095
-0.085
-0.08
-0.08
-0.065
-0.045
-0.025
-0.01
-0.005
0.01
0.02
0.02
0.045
0.025
0.05
0.035
0.055
0.055
0.065
0.055
0.06
0.04
0.055
0.015
-0.025
-0.08
-0.1
-0.12
-0.175
-0.18
-0.12
-0.065
-0.03
0.025
0.08
0.11
0.115
0.11
0.13
0.13
0.135
0.08
-0.005
-0.51
-1.31
-1.085
-0.05
0.545
1.09
1.025
0.475
0.275
0.16
0.095
0.08
0.095
0.085
0.09
0.08
0.02
-0.015
-0.025
-0.015
-0.035
-0.045
-0.09
-0.09
-0.135
-0.16
-0.185
-0.18
-0.225
-0.265
-0.28
-0.25
-0.225
-0.18
-0.145
-0.06
0.005
0.03
0.055
0.125
0.15
0.165
0.17
0.185
0.185
0.195
0.185
0.165
0.13
0.105
0.08
0.075
0.065
0.06
0.045
0.035
0.03
0.05
0.035
0.055
0.065
0.075
0.075
0.125
0.11
0.135
0.135
0.125
0.12
0.13
0.135
0.155
0.145
0.15
0.125
0.08
0.04
0.015
-0.005
-0.065
-0.105
-0.07
-0.005
0.04
0.08
0.14
0.155
0.185
0.185
0.19
0.195
0.225
0.19
0.11
-0.31
-1.12
-1.085
-0.11
0.49
1.075
1.17
0.605
0.335
0.215
0.15
0.14
0.12
0.12
0.11
0.105
0.065
0.055
0.04
0.04
0.03
-0.025
-0.095
-0.12
-0.145
-0.145
-0.175
-0.21
-0.235
-0.27
-0.3
-0.27
-0.23
-0.185
-0.165
-0.08
-0.035
0.045
0.08
0.11
0.13
0.15
0.135
0.165
0.19
0.205
0.185
0.175
0.135
0.12
0.1
0.065
0.035
0.05
0.025
0.025
0.01
0.02
0.025
0.02
0.02
0.03
0.02
0.05
0.05
0.075
0.08
0.08
0.085
0.09
0.095
0.1
0.1
0.09
0.045
0.0
-0.05
-0.065
-0.08
-0.125
-0.135
-0.06
-0.03
0.02
0.055
0.12
0.13
0.145
0.145
0.17
0.16
0.155
0.115
-0.14
-0.93
-1.385
-0.585
0.17
0.795
1.15
0.685
0.35
0.215
0.145
0.105
0.09
0.08
0.09
0.095
0.07
0.02
0.02
0.015
0.005
-0.025
-0.075
-0.11
-0.135
-0.175
-0.185
-0.2
-0.235
-0.265
-0.265
-0.265
-0.25
-0.23
-0.175
-0.12
-0.035
0.015
0.05
0.08
0.11
0.13
0.155
0.165
0.175
0.185
0.195
0.17
0.15
0.105
0.09
0.05
0.05
0.025
0.01
-0.005
-0.005
-0.005
-0.005
0.0
0.01
0.02
0.03
0.03
0.04
0.045
0.055
0.065
0.09
0.08
0.085
0.07
0.085
0.07
0.07
0.035
-0.01
-0.055
-0.08
-0.11
-0.135
-0.165
-0.13
-0.08
-0.025
0.005
0.065
0.1
0.115
0.105
0.13
0.12
0.105
0.095
-0.005
-0.495
-1.37
-1.26
-0.255
0.41
0.995
0.925
0.4
0.23
0.135
0.06
0.055
0.035
0.045
0.05
0.04
0.035
0.015
0.015
0.01
-0.01
-0.05
-0.07
-0.09
-0.125
-0.15
-0.195
-0.22
-0.265
-0.28
-0.295
-0.285
-0.255
-0.225
-0.18
-0.115
-0.06
0.01
0.035
0.08
0.105
0.125
0.15
0.155
0.175
0.185
0.18
0.17
0.16
0.13
0.115
0.115
0.11
0.1
0.07
0.07
0.045
0.055
0.05
0.05
0.06
0.08
0.07
0.08
0.085
0.095
0.105
0.11
0.115
0.11
0.125
0.135
0.115
0.13
0.12
0.1
0.055
0.01
-0.03
-0.05
-0.08
-0.095
-0.075
-0.025
0.025
0.08
0.12
0.155
0.165
0.17
0.185
0.195
0.18
0.155
0.105
-0.21
-1.055
-1.39
-0.49
0.275
0.885
1.15
0.61
0.315
0.205
0.115
0.075
0.055
0.055
0.035
0.03
0.01
-0.015
-0.005
-0.015
-0.025
-0.065
-0.08
-0.125
-0.135
-0.17
-0.205
-0.23
-0.29
-0.31
-0.335
-0.335
-0.31
-0.3
-0.25
-0.205
-0.14
-0.075
-0.015
0.035
0.05
0.06
0.095
0.115
0.145
0.155
0.165
0.155
0.145
0.115
0.095
0.06
0.055
0.04
0.03
0.015
0.0
0.0
0.005
-0.005
0.03
0.025
0.025
0.03
0.05
0.05
0.035
0.04
0.06
0.065
0.07
0.075
0.07
0.075
0.065
0.08
0.085
0.06
0.065
0.025
-0.005
-0.035
-0.08
-0.1
-0.145
-0.14
-0.125
-0.08
-0.02
0.005
0.06
0.095
0.11
0.1
0.125
0.125
0.125
0.115
0.07
-0.2
-0.985
-1.455
-0.655
0.15
0.79
1.115
0.655
0.28
0.18
0.08
0.05
0.035
0.035
0.05
0.045
-0.01
-0.04
-0.04
-0.04
-0.06
-0.09
-0.13
-0.145
-0.205
-0.225
-0.24
-0.26
-0.28
-0.315
-0.33
-0.345
-0.335
-0.315
-0.275
-0.215
-0.17
-0.11
-0.06
-0.005
0.015
0.055
0.065
0.095
0.105
0.135
0.15
0.135
0.115
0.09
0.07
0.08
0.055
0.045
0.02
0.025
0.025
0.01
-0.005
-0.01
-0.01
0.025
0.02
0.025
0.035
0.055
0.055
0.06
0.06
0.08
0.07
0.08
0.065
0.07
0.075
0.085
0.09
0.085
0.075
0.095
0.085
0.08
0.055
0.07
0.07
0.05
-0.01
-0.04
-0.06
-0.06
-0.105
-0.135
-0.07
-0.01
0.02
0.045
0.085
0.145
0.17
0.185
0.175
0.185
0.195
0.205
0.12
-0.285
-1.145
-1.2
-0.265
0.375
1.005
1.175
0.61
0.31
0.195
0.14
0.12
0.13
0.13
0.125
0.09
0.045
0.01
0.02
0.0
-0.025
-0.035
-0.07
-0.115
-0.135
-0.165
-0.175
-0.205
-0.23
-0.28
-0.285
-0.28
-0.275
-0.235
-0.175
-0.115
-0.06
-0.01
0.06
0.095
0.13
0.145
0.155
0.15
0.19
0.17
0.195
0.175
0.145
0.125
0.11
0.095
0.105
0.08
0.05
0.03
0.045
0.03
0.04
0.065
0.06
0.065
0.08
0.06
0.115
0.125
0.115
0.105
0.13
0.135
0.13
0.14
0.175
0.14
0.135
0.12
0.14
0.125
0.13
0.12
0.13
0.12
0.135
0.14
0.09
0.035
0.02
-0.025
-0.05
-0.08
-0.08
-0.1
-0.05
-0.005
0.06
0.115
0.15
0.15
0.16
0.165
0.165
0.165
0.17
0.125
-0.15
-0.91
-1.305
-0.55
0.17
0.755
1.175
0.72
0.33
0.205
0.11
0.08
0.05
0.01
0.03
0.03
0.025
-0.01
-0.025
-0.055
-0.065
-0.13
-0.145
-0.175
-0.195
-0.215
-0.225
-0.275
-0.31
-0.34
-0.365
-0.365
-0.335
-0.33
-0.31
-0.275
-0.195
-0.105
-0.05
-0.02
0.015
0.03
0.05
0.05
0.07
0.1
0.12
0.09
0.065
0.045
0.035
-0.01
-0.005
-0.05
-0.025
-0.03
-0.03
-0.035
-0.05
-0.07
-0.055
-0.045
-0.005
0.005
0.0
0.01
0.015
0.025
0.04
0.01
0.015
0.015
0.025
0.005
-0.01
0.005
0.005
0.01
0.005
0.0
0.02
-0.005
-0.045
-0.095
-0.135
-0.19
-0.19
-0.24
-0.215
-0.14
-0.095
-0.08
-0.03
0.025
0.055
0.06
0.09
0.08
0.085
0.05
0.045
-0.11
-0.67
-1.375
-1.02
-0.21
0.435
1.005
0.845
0.335
0.155
0.05
0.005
-0.005
-0.005
-0.02
-0.015
-0.05
-0.05
-0.07
-0.095
-0.13
-0.14
-0.195
-0.215
-0.235
-0.25
-0.255
-0.295
-0.34
-0.37
-0.42
-0.42
-0.445
-0.425
-0.4
-0.33
-0.275
-0.205
-0.16
-0.12
-0.1
-0.08
-0.05
-0.035
-0.035
-0.005
0.02
0.035
0.02
0.01
-0.045
-0.045
-0.08
-0.1
-0.105
-0.115
-0.12
-0.125
-0.135
-0.13
-0.13
-0.135
-0.135
-0.12
-0.095
-0.07
-0.085
-0.05
-0.06
-0.045
-0.05
-0.03
-0.05
-0.04
-0.035
-0.03
-0.045
-0.035
-0.05
-0.045
-0.075
-0.12
-0.17
-0.185
-0.19
-0.225
-0.255
-0.21
-0.16
-0.11
-0.07
-0.005
0.03
0.05
0.045
0.06
0.07
0.07
0.05
-0.075
-0.63
-1.465
-1.325
-0.375
0.29
0.865
0.735
0.29
0.175
0.055
0.0
0.0
-0.01
-0.005
-0.01
-0.025
-0.035
-0.035
-0.04
-0.045
-0.065
-0.095
-0.155
-0.165
-0.19
-0.215
-0.265
-0.295
-0.34
-0.365
-0.395
-0.395
-0.385
-0.335
-0.285
-0.235
-0.175
-0.095
-0.06
-0.015
0.005
0.03
0.05
0.075
0.09
0.11
0.105
0.11
0.09
0.085
0.08
0.065
0.055
0.055
0.02
0.035
-0.005
-0.005
-0.02
-0.005
0.005
0.01
0.015
0.03
0.025
0.04
0.03
0.03
0.05
0.045
0.045
0.06
0.055
0.055
0.045
0.05
0.05
0.055
0.045
0.05
0.035
0.035
0.045
0.055
0.04
0.005
-0.045
-0.075
-0.12
-0.12
-0.165
-0.155
-0.11
-0.045
-0.015
0.03
0.07
0.1
0.125
0.125
0.12
0.115
0.115
0.12
0.015
-0.43
-1.34
-1.37
-0.43
0.285
0.89
0.89
0.365
0.24
0.115
0.035
0.035
0.04
0.055
0.065
0.02
-0.005
-0.03
-0.005
-0.005
-0.03
-0.065
-0.1
-0.14
-0.155
-0.19
-0.21
-0.25
-0.275
-0.315
-0.33
-0.355
-0.325
-0.31
-0.26
-0.215
-0.15
-0.095
-0.025
0.015
0.05
0.055
0.08
0.08
0.115
0.105
0.135
0.14
0.125
0.09
0.095
0.095
0.1
0.105
0.09
0.05
0.045
0.035
0.03
0.035
0.045
0.04
0.08
0.08
0.095
0.085
0.095
0.095
0.095
0.105
0.105
0.11
0.11
0.095
0.095
0.095
0.095
0.08
0.09
0.08
0.085
0.07
0.065
0.05
0.055
0.05
0.06
0.05
0.055
0.05
0.045
0.035
0.045
0.025
0.0
-0.05
-0.08
-0.105
-0.12
-0.155
-0.125
-0.085
-0.035
-0.03
0.045
0.08
0.105
0.105
0.12
0.11
0.13
0.105
0.06
-0.175
-0.9
-1.5
-0.855
-0.02
0.655
1.045
0.645
0.295
0.185
0.085
0.065
0.07
0.11
0.12
0.105
0.06
0.025
-0.01
-0.005
-0.03
-0.065
-0.09
-0.095
-0.125
-0.135
-0.185
-0.19
-0.24
-0.27
-0.29
-0.3
-0.325
-0.3
-0.275
-0.235
-0.165
-0.08
-0.025
0.035
0.06
0.085
0.095
0.12
0.12
0.145
0.135
0.14
0.15
0.145
0.095
0.08
0.085
0.085
0.045
0.035
0.015
-0.01
-0.01
0.01
-0.005
0.015
0.005
0.045
0.045
0.04
0.04
0.055
0.045
0.06
0.065
0.07
0.065
0.085
0.09
0.095
0.08
0.06
0.05
0.07
0.055
0.065
0.05
0.035
0.03
0.025
0.025
0.03
0.025
0.035
0.02
0.025
0.02
-0.025
-0.06
-0.065
-0.1
-0.14
-0.195
-0.165
-0.105
-0.05
-0.03
-0.005
0.045
0.095
0.11
0.115
0.1
0.085
0.07
0.065
-0.02
-0.47
-1.265
-1.16
-0.255
0.395
0.995
0.965
0.42
0.24
0.085
0.02
0.02
0.035
0.005
0.0
-0.025
-0.03
-0.075
-0.07
-0.06
-0.105
-0.145
-0.19
-0.225
-0.24
-0.235
-0.235
-0.29
-0.345
-0.4
-0.385
-0.385
-0.36
-0.37
-0.31
-0.25
-0.175
-0.13
-0.065
-0.015
0.01
0.01
0.01
-0.005
0.05
0.095
0.11
0.095
0.085
0.03
0.02
-0.01
-0.035
-0.04
-0.04
-0.065
-0.07
-0.06
-0.07
-0.07
-0.045
-0.055
-0.035
-0.045
-0.025
-0.03
0.01
0.0
0.005
0.0
-0.005
0.02
0.04
0.015
0.035
0.04
0.03
0.025
0.025
0.02
0.05
0.05
0.05
0.02
-0.005
-0.055
-0.08
-0.125
-0.15
-0.19
-0.215
-0.2
-0.12
-0.065
-0.025
0.01
0.08
0.08
0.085
0.085
0.08
0.07
0.065
0.035
-0.205
-0.94
-1.345
-0.65
0.055
0.67
1.11
0.67
0.3
0.155
0.08
0.045
0.015
0.015
0.02
0.005
0.0
-0.04
-0.05
-0.06
-0.09
-0.135
-0.145
-0.19
-0.21
-0.23
-0.24
-0.265
-0.285
-0.355
-0.395
-0.445
-0.45
-0.415
-0.38
-0.335
-0.235
-0.175
-0.11
-0.08
-0.06
-0.055
-0.035
-0.01
0.055
0.045
0.035
0.05
0.085
0.04
-0.01
-0.025
-0.03
-0.045
-0.045
-0.06
-0.075
-0.095
-0.07
-0.09
-0.085
-0.085
-0.065
-0.045
-0.05
-0.055
-0.025
-0.02
-0.01
-0.01
-0.015
-0.03
-0.01
0.0
-0.015
-0.025
0.005
-0.01
-0.01
-0.015
-0.04
-0.085
-0.115
-0.17
-0.205
-0.265
-0.28
-0.245
-0.195
-0.15
-0.105
-0.065
-0.01
0.005
0.015
0.02
0.015
0.01
-0.005
-0.07
-0.415
-1.2
-1.465
-0.675
0.03
0.65
0.925
0.425
0.155
0.035
-0.05
-0.08
-0.09
-0.095
-0.08
-0.085
-0.115
-0.145
-0.145
-0.155
-0.17
-0.235
-0.27
-0.295
-0.33
-0.37
-0.385
-0.415
-0.455
-0.505
-0.53
-0.535
-0.525
-0.505
-0.465
-0.415
-0.315
-0.255
-0.175
-0.135
-0.095
-0.07
-0.025
-0.01
-0.005
0.015
0.04
0.055
0.05
0.01
-0.01
-0.04
-0.045
-0.07
-0.065
-0.07
-0.075
-0.09
-0.095
-0.1
-0.1
-0.08
-0.065
-0.075
-0.055
-0.07
-0.045
-0.04
-0.02
-0.04
-0.02
-0.02
-0.015
-0.02
-0.015
0.01
-0.005
-0.005
0.005
-0.005
-0.005
-0.045
-0.08
-0.135
-0.14
-0.17
-0.185
-0.185
-0.145
-0.115
-0.07
-0.035
0.025
0.045
0.085
0.075
0.085
0.095
0.1
0.07
-0.03
-0.56
-1.43
-1.355
-0.425
0.26
0.82
0.71
0.265
0.2
0.105
0.02
0.005
-0.005
0.05
0.04
0.025
-0.035
-0.065
-0.06
-0.05
-0.07
-0.09
-0.125
-0.155
-0.19
-0.215
-0.245
-0.28
-0.33
-0.345
-0.385
-0.395
-0.385
-0.365
-0.315
-0.26
-0.2
-0.115
-0.05
-0.01
0.025
0.055
0.065
0.095
0.09
0.09
0.12
0.13
0.12
0.115
0.09
0.08
0.085
0.085
0.07
0.055
0.04
0.045
0.025
0.025
0.01
0.01
0.015
0.04
0.05
0.06
0.065
0.08
0.075
0.08
0.085
0.105
0.09
0.095
0.075
0.085
0.09
0.09
0.07
0.08
0.07
0.06
0.06
0.04
0.04
0.005
-0.04
-0.055
-0.105
-0.12
-0.14
-0.125
-0.095
-0.035
-0.01
0.05
0.1
0.145
0.155
0.155
0.15
0.165
0.145
0.135
0.035
-0.435
-1.325
-1.32
-0.385
0.31
0.9
0.89
0.4
0.265
0.15
0.07
0.045
0.06
0.08
0.08
0.055
0.025
-0.005
0.02
-0.015
-0.015
-0.04
-0.06
-0.095
-0.135
-0.165
-0.19
-0.235
-0.27
-0.32
-0.35
-0.36
-0.345
-0.33
-0.275
-0.225
-0.165
-0.09
-0.04
0.01
0.045
0.08
0.095
0.095
0.115
0.115
0.145
0.14
0.16
0.125
0.135
0.115
0.1
0.105
0.1
0.085
0.07
0.015
0.015
0.025
0.045
0.045
0.055
0.08
0.115
0.115
0.135
0.105
0.095
0.115
0.15
0.145
0.14
0.135
0.13
0.13
0.12
0.12
0.125
0.115
0.14
0.12
0.135
0.125
0.125
0.125
0.135
0.11
0.095
0.11
0.12
0.105
0.07
0.025
-0.005
-0.05
-0.045
-0.105
-0.115
-0.055
0.01
0.03
0.09
0.13
0.175
0.195
0.175
0.195
0.205
0.19
0.17
0.1
-0.305
-1.155
-1.2
-0.305
0.355
0.985
1.13
0.59
0.315
0.2
0.125
0.105
0.105
0.1
0.095
0.085
0.08
0.055
0.045
0.025
-0.005
-0.045
-0.065
-0.12
-0.115
-0.125
-0.15
-0.195
-0.23
-0.275
-0.305
-0.35
-0.33
-0.285
-0.25
-0.205
-0.12
-0.08
-0.03
0.015
0.035
0.08
0.12
0.095
0.115
0.12
0.16
0.19
0.16
0.135
0.085
0.08
0.095
0.07
0.06
0.03
0.02
0.005
0.025
-0.005
0.02
0.025
0.03
0.04
0.065
0.045
0.065
0.06
0.08
0.1
0.085
0.06
0.08
0.095
0.1
0.075
0.07
0.07
0.095
0.09
0.1
0.055
0.01
-0.035
-0.07
-0.095
-0.125
-0.175
-0.175
-0.1
-0.015
0.005
0.055
0.08
0.12
0.13
0.13
0.145
0.175
0.15
0.115
-0.03
-0.595
-1.235
-0.855
-0.09
0.545
1.095
0.89
0.4
0.255
0.135
0.105
0.055
0.05
0.035
0.04
0.05
0.065
0.035
-0.01
-0.03
-0.045
-0.065
-0.095
-0.13
-0.14
-0.155
-0.19
-0.235
-0.275
-0.335
-0.38
-0.395
-0.39
-0.365
-0.315
-0.255
-0.165
-0.075
-0.015
0.005
0.04
0.09
0.12
0.145
0.16
0.185
0.195
0.195
0.225
0.16
0.14
0.125
0.11
0.125
0.1
0.055
0.065
0.06
0.055
0.055
0.045
0.07
0.08
0.055
0.105
0.095
0.095
0.095
0.11
0.145
0.13
0.115
0.12
0.11
0.12
0.125
0.095
0.05
0.03
-0.02
-0.045
-0.105
-0.12
-0.08
-0.045
0.02
0.105
0.115
0.13
0.17
0.17
0.175
0.185
0.145
0.14
0.105
-0.22
-1.005
-1.2
-0.405
0.265
0.87
1.125
0.62
0.345
0.225
0.13
0.11
0.085
0.045
0.07
0.065
0.065
0.03
0.01
-0.02
-0.025
-0.085
-0.11
-0.145
-0.165
-0.165
-0.185
-0.245
-0.31
-0.375
-0.42
-0.455
-0.455
-0.445
-0.4
-0.355
-0.255
-0.175
-0.1
-0.075
-0.035
-0.005
0.025
0.055
0.075
0.055
0.08
0.1
0.09
0.07
0.06
0.03
0.03
0.0
0.005
-0.005
-0.01
-0.015
-0.01
-0.035
-0.03
-0.035
-0.035
-0.035
-0.015
-0.015
0.005
0.0
0.015
0.025
0.035
0.03
0.04
0.035
0.035
-0.01
-0.035
-0.09
-0.115
-0.115
-0.155
-0.165
-0.11
-0.05
-0.005
0.05
0.105
0.135
0.16
0.14
0.15
0.145
0.145
0.11
-0.095
-0.805
-1.51
-1.03
-0.19
0.47
0.905
0.555
0.265
0.205
0.115
0.07
0.055
0.07
0.09
0.085
0.065
0.035
0.025
0.02
0.03
0.01
-0.01
-0.055
-0.065
-0.11
-0.12
-0.17
-0.22
-0.265
-0.315
-0.345
-0.355
-0.355
-0.33
-0.285
-0.23
-0.145
-0.065
-0.01
0.045
0.06
0.1
0.11
0.135
0.15
0.155
0.175
0.2
0.195
0.16
0.14
0.135
0.115
0.115
0.095
0.11
0.095
0.09
0.085
0.085
0.075
0.095
0.09
0.105
0.115
0.125
0.115
0.11
0.12
0.13
0.135
0.15
0.125
0.15
0.145
0.14
0.13
0.115
0.06
0.03
-0.005
-0.025
-0.05
-0.06
-0.035
0.03
0.06
0.08
0.125
0.175
0.185
0.195
0.19
0.205
0.195
0.2
0.13
-0.19
-1.025
-1.415
-0.615
0.155
0.775
1.015
0.515
0.31
0.22
0.165
0.125
0.12
0.11
0.105
0.085
0.07
0.05
0.05
0.04
0.02
-0.005
-0.03
-0.05
-0.075
-0.11
-0.14
-0.19
-0.21
-0.27
-0.31
-0.325
-0.345
-0.345
-0.31
-0.255
-0.145
-0.08
-0.01
0.04
0.065
0.105
0.135
0.14
0.165
0.145
0.17
0.19
0.185
0.2
0.195
0.185
0.18
0.14
0.0
0.03
0.14
0.135
0.145
0.145
0.17
0.155
0.16
0.135
0.155
0.145
0.17
0.18
0.185
0.175
0.16
0.17
0.175
0.17
0.17
0.17
0.19
0.19
0.215
0.245
0.27
0.245
0.195
0.155
0.16
0.115
0.08
0.08
0.12
0.13
0.205
0.24
0.31
0.33
0.335
0.315
0.315
0.31
0.295
0.285
0.185
-0.16
-0.93
-1.195
-0.345
0.335
0.965
1.28
0.785
0.43
0.305
0.23
0.21
0.185
0.195
0.17
0.155
0.12
0.105
0.09
0.105
0.05
0.04
0.015
-0.035
-0.075
-0.08
-0.135
-0.155
-0.185
-0.26
-0.31
-0.35
-0.345
-0.33
-0.355
-0.275
-0.19
-0.095
-0.04
0.015
0.045
0.1
0.125
0.16
0.165
0.19
0.21
0.23
0.225
0.225
0.18
0.19
0.155
0.18
0.175
0.135
0.11
0.135
0.12
0.105
0.09
0.11
0.15
0.135
0.11
0.135
0.115
0.155
0.145
0.13
0.135
0.175
0.18
0.155
0.145
0.11
0.055
0.035
-0.01
-0.045
-0.1
-0.08
-0.03
0.05
0.09
0.105
0.185
0.205
0.225
0.22
0.195
0.24
0.225
0.2
0.11
-0.235
-0.985
-1.07
-0.225
0.415
1.025
1.23
0.685
0.345
0.22
0.18
0.155
0.135
0.09
0.115
0.085
0.095
0.085
0.09
0.065
0.035
-0.02
-0.035
-0.06
-0.1
-0.105
-0.135
-0.19
-0.22
-0.295
-0.34
-0.405
-0.4
-0.375
-0.36
-0.305
-0.225
-0.15
-0.07
-0.02
0.02
0.07
0.125
0.13
0.135
0.14
0.17
0.17
0.195
0.195
0.155
0.13
0.115
0.11
0.125
0.1
0.095
0.08
0.05
0.065
0.1
0.065
0.09
0.07
0.105
0.105
0.065
0.09
0.115
0.125
0.145
0.105
0.12
0.105
0.09
0.045
-0.01
-0.055
-0.045
-0.09
-0.12
-0.08
-0.005
0.04
0.065
0.125
0.17
0.195
0.2
0.195
0.185
0.17
0.155
0.08
-0.265
-0.99
-1.15
-0.34
0.31
0.935
1.185
0.65
0.355
0.19
0.155
0.13
0.085
0.07
0.105
0.08
0.07
0.055
0.05
0.035
0.005
-0.015
-0.055
-0.08
-0.095
-0.14
-0.15
-0.205
-0.275
-0.335
-0.375
-0.43
-0.455
-0.455
-0.43
-0.39
-0.31
-0.235
-0.165
-0.11
-0.045
-0.015
0.015
0.01
0.015
0.035
0.055
0.08
0.08
0.07
0.035
0.03
0.025
0.025
0.025
0.01
0.01
0.005
0.015
0.01
0.02
0.005
0.005
0.015
0.045
0.05
0.055
0.055
0.055
0.08
0.085
0.085
0.095
0.08
0.025
-0.015
-0.06
-0.07
-0.08
-0.125
-0.125
-0.06
-0.005
0.035
0.105
0.14
0.185
0.19
0.205
0.205
0.205
0.2
0.17
-0.03
-0.7
-1.395
-0.925
-0.12
0.55
0.985
0.665
0.34
0.285
0.185
0.145
0.125
0.13
0.145
0.165
0.145
0.13
0.11
0.1
0.085
0.065
0.03
0.015
-0.03
-0.06
-0.095
-0.135
-0.165
-0.205
-0.235
-0.265
-0.29
-0.29
-0.28
-0.235
-0.175
-0.105
-0.025
0.03
0.075
0.115
0.155
0.175
0.185
0.2
0.205
0.25
0.24
0.24
0.24
0.225
0.195
0.21
0.205
0.205
0.185
0.18
0.165
0.145
0.155
0.155
0.145
0.16
0.185
0.19
0.18
0.175
0.175
0.19
0.19
0.19
0.17
0.175
0.195
0.195
0.19
0.15
0.095
0.07
0.04
0.02
-0.005
-0.005
0.01
0.06
0.1
0.155
0.22
0.25
0.265
0.265
0.26
0.245
0.24
0.215
0.17
-0.205
-1.075
-1.3
-0.465
0.25
0.855
0.99
0.49
0.33
0.24
0.18
0.145
0.13
0.125
0.12
0.105
0.11
0.12
0.125
0.12
0.125
0.105
0.065
0.035
0.03
-0.03
-0.07
-0.125
-0.165
-0.195
-0.23
-0.265
-0.265
-0.26
-0.22
-0.185
-0.11
-0.05
0.015
0.095
0.115
0.135
0.175
0.19
0.215
0.21
0.22
0.23
0.23
0.23
0.255
0.255
0.21
0.165
0.14
0.13
0.145
0.115
0.13
0.11
0.095
0.095
0.105
0.095
0.1
0.09
0.09
0.09
0.09
0.09
0.085
0.08
0.095
0.085
0.085
0.08
0.105
0.09
0.07
0.08
0.075
-0.01
-0.06
-0.065
-0.075
-0.145
-0.105
0.005
0.085
0.11
0.15
0.21
0.245
0.27
0.275
0.265
0.28
0.255
0.275
0.205
-0.225
-1.065
-1.245
-0.345
0.4
1.045
1.265
0.73
0.45
0.375
0.32
0.295
0.34
0.365
0.35
0.33
0.335
0.31
0.265
0.24
0.21
0.165
0.095
0.06
0.02
-0.025
-0.075
-0.135
-0.19
-0.285
-0.33
-0.38
-0.4
-0.435
-0.4
-0.36
-0.295
-0.235
-0.175
-0.12
-0.06
0.005
0.09
0.105
0.075
0.07
0.135
0.15
0.2
0.175
0.17
0.17
0.195
0.18
0.145
0.145
0.18
0.17
0.165
0.165
0.155
0.155
0.2
0.18
0.19
0.175
0.155
0.155
0.19
0.21
0.2
0.175
0.175
0.185
0.165
0.125
0.065
0.01
0.015
-0.05
-0.04
0.05
0.11
0.12
0.18
0.235
0.27
0.27
0.27
0.285
0.28
0.27
0.235
0.135
-0.195
-0.915
-0.995
-0.135
0.5
1.11
1.305
0.7
0.4
0.275
0.215
0.175
0.125
0.125
0.12
0.13
0.13
0.1
0.11
0.07
0.07
0.025
-0.015
-0.055
-0.06
-0.065
-0.105
-0.155
-0.2
-0.265
-0.315
-0.325
-0.325
-0.36
-0.345
-0.29
-0.19
-0.115
-0.015
0.05
0.115
0.13
0.175
0.175
0.175
0.22
0.25
0.25
0.225
0.215
0.21
0.185
0.19
0.16
0.145
0.13
0.15
0.135
0.13
0.115
0.125
0.145
0.11
0.115
0.17
0.145
0.155
0.155
0.175
0.165
0.155
0.135
0.14
0.11
0.09
0.04
-0.005
-0.05
-0.065
-0.07
-0.04
0.03
0.08
0.145
0.175
0.18
0.22
0.225
0.245
0.235
0.24
0.21
0.105
-0.255
-0.92
-1.075
-0.275
0.365
1.01
1.2
0.645
0.345
0.215
0.13
0.09
0.055
0.035
0.025
0.015
-0.025
-0.03
-0.075
-0.105
-0.14
-0.175
-0.185
-0.21
-0.24
-0.265
-0.3
-0.33
-0.4
-0.445
-0.485
-0.51
-0.535
-0.51
-0.47
-0.39
-0.315
-0.23
-0.135
-0.075
-0.045
0.005
0.04
0.06
0.08
0.105
0.125
0.15
0.125
0.12
0.095
0.09
0.065
0.08
0.065
0.065
0.025
0.025
0.015
-0.005
-0.005
0.005
0.015
0.035
0.025
0.05
0.035
0.055
0.065
0.065
0.06
0.04
-0.025
-0.06
-0.085
-0.105
-0.145
-0.155
-0.095
-0.02
0.015
0.08
0.12
0.15
0.155
0.165
0.17
0.195
0.155
0.145
-0.03
-0.69
-1.435
-1.055
-0.19
0.475
0.935
0.685
0.335
0.255
0.155
0.105
0.085
0.105
0.09
0.115
0.08
0.035
0.025
0.035
0.015
-0.01
-0.03
-0.045
-0.08
-0.115
-0.145
-0.2
-0.25
-0.265
-0.33
-0.4
-0.485
-0.485
-0.445
-0.355
-0.285
-0.185
-0.115
-0.06
-0.01
0.03
0.055
0.085
0.085
0.07
0.055
0.095
0.115
0.115
0.09
0.09
0.075
0.085
0.055
0.03
0.045
0.025
0.03
0.055
0.03
-0.005
-0.025
-0.04
-0.035
-0.045
-0.06
-0.05
-0.055
-0.06
-0.065
-0.04
-0.055
-0.045
-0.07
-0.1
-0.15
-0.19
-0.25
-0.275
-0.295
-0.295
-0.275
-0.23
-0.2
-0.17
-0.13
-0.09
-0.08
-0.09
-0.095
-0.09
-0.11
-0.11
-0.195
-0.535
-1.39
-1.68
-0.88
-0.155
0.48
0.645
0.145
-0.075
-0.18
-0.27
-0.3
-0.345
-0.34
-0.335
-0.36
-0.37
-0.405
-0.4
-0.425
-0.45
-0.475
-0.47
-0.505
-0.54
-0.595
-0.625
-0.665
-0.705
-0.77
-0.83
-0.845
-0.83
-0.815
-0.775
-0.72
-0.66
-0.545
-0.46
-0.385
-0.32
-0.27
-0.2
-0.17
-0.135
-0.075
0.0
-0.02
-0.01
-0.025
-0.04
-0.075
-0.135
-0.15
-0.105
-0.125
-0.13
-0.145
-0.14
-0.125
-0.115
-0.13
-0.125
-0.13
-0.145
-0.135
-0.135
-0.15
-0.12
-0.125
-0.135
-0.105
-0.105
-0.12
-0.095
-0.08
-0.1
-0.14
-0.18
-0.225
-0.235
-0.295
-0.29
-0.235
-0.165
-0.155
-0.13
-0.05
-0.005
0.005
0.005
-0.01
-0.01
-0.015
-0.01
-0.105
-0.355
-1.025
-1.37
-0.63
0.105
0.685
1.095
0.62
0.21
0.075
-0.005
-0.05
-0.06
-0.085
-0.08
-0.055
-0.065
-0.1
-0.1
-0.115
-0.135
-0.19
-0.205
-0.22
-0.235
-0.26
-0.285
-0.325
-0.38
-0.425
-0.47
-0.495
-0.505
-0.54
-0.515
-0.445
-0.38
-0.315
-0.205
-0.155
-0.105
-0.075
-0.045
-0.01
0.015
0.025
0.04
0.08
0.08
0.02
0.03
0.035
0.015
0.02
0.01
-0.015
-0.025
-0.01
-0.025
-0.035
-0.015
-0.02
0.01
-0.005
0.005
0.0
0.01
0.01
0.02
0.04
0.035
0.015
0.015
-0.035
-0.105
-0.155
-0.145
-0.165
-0.23
-0.21
-0.11
-0.035
-0.01
0.03
0.105
0.115
0.11
0.125
0.125
0.105
0.085
0.06
-0.08
-0.61
-1.14
-0.745
-0.01
0.615
1.15
0.91
0.39
0.195
0.115
0.04
0.015
0.015
0.005
-0.025
0.005
-0.035
-0.005
-0.035
-0.055
-0.07
-0.095
-0.155
-0.145
-0.17
-0.21
-0.24
-0.275
-0.315
-0.385
-0.47
-0.475
-0.47
-0.455
-0.425
-0.32
-0.25
-0.145
-0.065
-0.005
0.035
0.08
0.08
0.105
0.115
0.145
0.17
0.17
0.145
0.17
0.155
0.165
0.135
0.12
0.11
0.11
0.1
0.115
0.085
0.115
0.09
0.08
0.085
0.095
0.11
0.095
0.075
0.08
0.08
0.1
0.045
-0.025
-0.07
-0.115
-0.17
-0.19
-0.25
-0.25
-0.175
-0.115
-0.085
-0.045
-0.03
-0.01
-0.02
-0.015
-0.03
-0.015
-0.025
-0.065
-0.275
-0.87
-1.445
-0.955
-0.175
0.495
0.93
0.575
0.195
0.1
-0.005
-0.015
-0.03
-0.03
-0.025
0.005
-0.025
-0.04
-0.04
-0.04
-0.045
-0.075
-0.11
-0.12
-0.155
-0.19
-0.245
-0.29
-0.34
-0.385
-0.43
-0.415
-0.44
-0.415
-0.435
-0.385
-0.31
-0.25
-0.215
-0.1
-0.025
0.015
0.055
0.035
0.055
0.08
0.045
-0.03
-0.01
0.07
0.065
0.055
0.03
0.025
-0.01
-0.015
-0.06
-0.05
-0.075
-0.075
-0.035
-0.035
-0.1
-0.105
-0.11
-0.115
-0.11
-0.11
-0.12
-0.125
-0.13
-0.155
-0.22
-0.255
-0.325
-0.35
-0.405
-0.425
-0.43
-0.385
-0.345
-0.285
-0.255
-0.21
-0.205
-0.23
-0.23
-0.21
-0.245
-0.255
-0.29
-0.455
-1.145
-1.875
-1.495
-0.685
-0.05
0.425
0.135
-0.2
-0.29
-0.395
-0.43
-0.445
-0.485
-0.495
-0.51
-0.505
-0.495
-0.53
-0.625
-0.655
-0.7
-0.71
-0.8
-0.825
-0.87
-0.91
-0.965
-1.01
-1.11
-1.18
-1.24
-1.28
-1.325
-1.34
-1.29
-1.23
-1.13
-1.05
-1.04
-0.975
-0.885
-0.785
-0.785
-0.79
-0.76
-0.68
-0.615
-0.54
-0.485
-0.425
-0.425
-0.37
-0.365
-0.37
-0.44
-0.45
-0.38
-0.345
-0.31
-0.335
-0.4
-0.395
-0.395
-0.365
-0.37
-0.345
-0.365
-0.36
-0.365
-0.345
-0.355
-0.335
-0.335
-0.325
-0.345
-0.33
-0.385
-0.4
-0.415
-0.415
-0.46
-0.49
-0.455
-0.355
-0.305
-0.265
-0.24
-0.175
-0.135
-0.145
-0.14
-0.135
-0.195
-0.155
-0.23
-0.41
-0.985
-1.57
-1.135
-0.335
0.26
0.835
0.565
0.035
-0.15
-0.29
-0.355
-0.4
-0.43
-0.4
-0.41
-0.39
-0.44
-0.47
-0.455
-0.43
-0.455
-0.515
-0.525
-0.49
-0.575
-0.585
-0.585
-0.685
-0.78
-0.735
-0.83
-0.935
-0.895
-0.845
-0.95
-0.785
-0.665
-0.715
-0.695
-0.535
-0.45
-0.56
-0.505
-0.385
-0.42
-0.505
-0.44
-0.28
-0.37
-0.515
-0.48
-0.4
-0.45
-0.555
-0.56
-0.46
-0.47
-0.575
-0.615
-0.4
-0.385
-0.56
-0.525
-0.385
-0.38
-0.485
-0.605
-0.61
-0.59
-0.56
-0.61
-0.675
-0.715
-0.675
-0.75
-0.845
-0.86
-0.79
-0.755
-0.7
-0.645
-0.61
-0.575
-0.54
-0.48
-0.51
-0.62
-0.6
-0.56
-0.68
-1.12
-1.945
-2.22
-1.69
-1.085
-0.165
0.005
-0.435
-0.63
-0.775
-0.92
-1.025
-1.085
-1.11
-1.165
-1.195
-1.23
-1.24
-1.225
-1.165
-1.165
-1.19
-1.21
-1.26
-1.33
-1.335
-1.4
-1.445
-1.535
-1.595
-1.67
-1.71
-1.75
-1.725
-1.675
-1.605
-1.52
-1.435
-1.31
-1.215
-1.145
-1.075
-1.06
-1.075
-1.09
-1.015
-0.99
-0.955
-0.945
-0.92
-0.945
-0.94
-0.965
-0.95
-0.985
-0.985
-1.01
-1.005
-1.055
-1.075
-1.12
-1.16
-1.19
-1.135
-1.07
-1.06
-1.05
-1.025
-1.04
-1.065
-1.12
-1.13
-1.175
-1.175
-1.22
-1.2
-1.185
-1.125
-1.07
-0.985
-0.95
-0.895
-0.885
-0.875
-0.855
-0.81
-0.825
-0.85
-1.075
-1.915
-2.74
-2.285
-1.505
-0.635
-0.055
-0.345
-0.64
-0.715
-0.81
-0.835
-0.86
-0.845
-0.85
-0.835
-0.845
-0.85
-0.85
-0.835
-0.85
-0.85
-0.865
-0.89
-0.915
-0.92
-0.955
-0.97
-1.025
-1.065
-1.105
-1.105
-1.135
-1.105
-1.09
-0.99
-0.915
-0.805
-0.715
-0.615
-0.56
-0.485
-0.47
-0.425
-0.4
-0.38
-0.355
-0.32
-0.315
-0.3
-0.31
-0.285
-0.29
-0.275
-0.275
-0.255
-0.265
-0.25
-0.26
-0.255
-0.26
-0.245
-0.24
-0.22
-0.235
-0.205
-0.215
-0.18
-0.19
-0.185
-0.19
-0.22
-0.26
-0.27
-0.29
-0.285
-0.295
-0.285
-0.235
-0.18
-0.14
-0.025
0.02
0.055
0.03
0.01
0.015
0.03
-0.005
-0.085
-0.58
-1.455
-1.485
-0.58
0.08
0.72
0.69
0.24
0.1
0.02
-0.04
-0.06
-0.075
-0.065
-0.07
-0.05
-0.08
-0.06
-0.085
-0.08
-0.08
-0.08
-0.115
-0.12
-0.08
-0.115
-0.16
-0.18
-0.245
-0.285
-0.325
-0.33
-0.375
-0.375
-0.35
-0.3
-0.205
-0.09
0.005
0.04
0.03
0.08
0.13
0.185
0.17
0.16
0.17
0.195
0.185
0.205
0.21
0.195
0.175
0.17
0.185
0.205
0.19
0.18
0.175
0.2
0.19
0.195
0.175
0.16
0.18
0.195
0.17
0.205
0.21
0.215
0.18
0.17
0.085
0.06
0.08
0.08
0.045
0.03
0.07
0.135
0.185
0.255
0.275
0.295
0.29
0.315
0.255
0.23
0.25
0.225
-0.3
-1.34
-1.54
-0.68
0.125
0.955
1.065
0.58
0.4
0.315
0.27
0.24
0.22
0.23
0.19
0.19
0.175
0.225
0.215
0.185
0.135
0.14
0.09
0.1
0.085
0.02
-0.025
-0.045
-0.145
-0.195
-0.225
-0.28
-0.315
-0.315
-0.26
-0.175
-0.09
0.005
0.085
0.18
0.225
0.25
0.28
0.32
0.29
0.32
0.38
0.4
0.37
0.36
0.355
0.365
0.37
0.375
0.32
0.325
0.36
0.315
0.29
0.285
0.24
0.245
0.27
0.29
0.265
0.26
0.265
0.245
0.23
0.215
0.165
0.115
0.095
0.08
0.005
0.005
0.055
0.105
0.16
0.23
0.25
0.295
0.3
0.315
0.315
0.315
0.29
0.29
0.105
-0.645
-1.67
-1.495
-0.625
0.295
1.05
0.84
0.415
0.29
0.165
0.145
0.125
0.105
0.06
0.08
0.045
0.02
0.005
-0.005
-0.055
-0.07
-0.08
-0.105
-0.17
-0.2
-0.255
-0.31
-0.375
-0.42
-0.495
-0.54
-0.57
-0.585
-0.56
-0.505
-0.44
-0.34
-0.26
-0.19
-0.13
-0.075
-0.05
-0.02
-0.015
0.01
0.005
0.025
0.025
0.04
0.035
0.03
0.015
0.0
-0.005
-0.005
-0.02
-0.03
-0.035
-0.06
-0.075
-0.075
-0.07
-0.075
-0.08
-0.085
-0.08
-0.095
-0.09
-0.08
-0.09
-0.08
-0.08
-0.08
-0.105
-0.14
-0.17
-0.205
-0.235
-0.24
-0.29
-0.285
-0.27
-0.23
-0.195
-0.155
-0.105
-0.07
-0.06
-0.07
-0.06
-0.075
-0.065
-0.1
-0.24
-0.855
-1.75
-1.515
-0.655
0.065
0.63
0.425
0.045
-0.015
-0.16
-0.205
-0.225
-0.235
-0.245
-0.265
-0.28
-0.295
-0.305
-0.315
-0.335
-0.35
-0.365
-0.385
-0.39
-0.42
-0.49
-0.52
-0.495
-0.52
-0.55
-0.6
-0.685
-0.725
-0.7
-0.59
-0.515
-0.455
-0.4
-0.315
-0.27
-0.21
-0.175
-0.155
-0.13
-0.135
-0.08
-0.06
-0.065
-0.07
-0.065
-0.05
-0.065
-0.08
-0.065
-0.045
-0.07
-0.065
-0.115
-0.13
-0.115
-0.125
-0.135
-0.125
-0.135
-0.145
-0.125
-0.12
-0.095
-0.085
-0.125
-0.09
-0.04
-0.055
-0.13
-0.205
-0.19
-0.205
-0.23
-0.2
-0.16
-0.12
-0.07
-0.015
0.02
0.07
0.08
0.08
0.09
0.115
0.09
0.04
-0.195
-1.025
-1.815
-1.355
-0.535
0.305
0.97
0.635
0.28
0.185
0.045
0.035
0.015
-0.01
0.005
-0.02
-0.03
0.015
0.025
-0.02
-0.01
-0.035
-0.08
-0.095
-0.145
-0.17
-0.19
-0.23
-0.255
-0.305
-0.385
-0.455
-0.465
-0.46
-0.435
-0.34
-0.26
-0.215
-0.115
-0.005
0.03
0.07
0.145
0.18
0.16
0.195
0.195
0.21
0.245
0.23
0.23
0.21
0.21
0.24
0.215
0.21
0.2
0.205
0.19
0.21
0.2
0.165
0.2
0.215
0.155
0.15
0.195
0.245
0.225
0.195
0.175
0.15
0.105
0.075
0.075
0.005
-0.015
0.005
0.03
0.085
0.115
0.21
0.26
0.29
0.285
0.28
0.295
0.28
0.265
0.225
-0.205
-1.305
-1.87
-1.105
-0.175
0.785
1.115
0.585
0.36
0.255
0.17
0.16
0.15
0.15
0.15
0.125
0.115
0.13
0.105
0.075
0.09
0.06
0.025
0.015
-0.01
-0.05
-0.085
-0.125
-0.19
-0.245
-0.29
-0.315
-0.35
-0.345
-0.3
-0.255
-0.175
-0.085
-0.01
0.05
0.105
0.135
0.165
0.18
0.19
0.2
0.225
0.24
0.25
0.25
0.22
0.225
0.22
0.205
0.19
0.185
0.165
0.15
0.135
0.135
0.13
0.13
0.11
0.1
0.115
0.125
0.12
0.1
0.105
0.095
0.115
0.12
0.12
0.12
0.09
0.05
0.015
-0.02
-0.035
-0.055
-0.105
-0.1
-0.06
-0.025
-0.005
0.07
0.105
0.155
0.165
0.14
0.125
0.145
0.125
0.1
-0.145
-1.0
-1.895
-1.47
-0.58
0.285
0.865
0.565
0.23
0.12
0.035
0.015
0.01
-0.01
-0.04
-0.055
-0.07
-0.06
-0.065
-0.075
-0.095
-0.125
-0.15
-0.17
-0.2
-0.21
-0.255
-0.285
-0.315
-0.375
-0.42
-0.465
-0.48
-0.465
-0.435
-0.4
-0.34
-0.265
-0.2
-0.125
-0.075
-0.04
-0.025
-0.005
0.035
0.035
0.05
0.06
0.055
0.055
0.04
0.03
0.045
0.025
0.01
0.01
0.0
-0.015
-0.03
-0.045
-0.03
-0.04
-0.025
-0.03
-0.035
-0.03
-0.03
-0.025
-0.04
-0.045
-0.03
-0.035
-0.04
-0.035
-0.045
-0.03
-0.035
-0.075
-0.095
-0.145
-0.145
-0.175
-0.21
-0.21
-0.175
-0.145
-0.11
-0.07
-0.025
0.015
0.015
0.025
0.04
0.045
0.03
0.005
-0.105
-0.685
-1.635
-1.54
-0.6
0.13
0.74
0.615
0.195
0.115
0.01
-0.05
-0.035
-0.015
-0.01
-0.04
-0.065
-0.09
-0.11
-0.09
-0.08
-0.09
-0.1
-0.155
-0.185
-0.2
-0.265
-0.335
-0.365
-0.385
-0.4
-0.43
-0.48
-0.505
-0.475
-0.43
-0.365
-0.275
-0.2
-0.155
-0.11
-0.065
-0.015
-0.01
-0.015
0.02
0.045
0.04
0.025
0.055
0.045
0.005
-0.005
0.02
0.015
0.01
-0.025
-0.025
-0.025
-0.015
-0.005
-0.01
0.0
-0.01
-0.035
-0.05
-0.035
-0.005
0.015
-0.015
-0.005
0.015
0.005
0.005
0.02
-0.005
-0.025
-0.055
-0.1
-0.13
-0.15
-0.185
-0.195
-0.18
-0.135
-0.08
-0.05
-0.005
0.035
0.06
0.065
0.08
0.085
0.085
0.065
0.015
-0.4
-1.435
-1.765
-0.995
-0.275
0.575
0.94
0.485
0.23
0.1
0.04
0.035
-0.01
-0.015
-0.025
-0.035
-0.035
-0.025
-0.05
-0.055
-0.075
-0.105
-0.105
-0.145
-0.195
-0.235
-0.25
-0.265
-0.32
-0.35
-0.37
-0.45
-0.49
-0.425
-0.355
-0.3
-0.255
-0.175
-0.08
-0.04
0.015
0.065
0.08
0.09
0.1
0.1
0.145
0.175
0.165
0.105
0.08
0.065
0.05
0.075
0.095
0.05
0.01
0.02
0.015
-0.01
0.02
0.065
0.075
0.08
0.055
0.065
0.055
0.055
0.08
0.08
0.09
0.045
0.01
-0.035
-0.045
-0.065
-0.125
-0.145
-0.095
-0.065
-0.005
0.045
0.08
0.145
0.155
0.165
0.145
0.14
0.17
0.165
0.055
-0.555
-1.655
-1.71
-0.855
0.045
0.93
0.915
0.425
0.275
0.16
0.115
0.105
0.095
0.08
0.065
0.065
0.085
0.045
0.025
0.04
0.015
-0.03
-0.06
-0.08
-0.11
-0.145
-0.175
-0.215
-0.265
-0.305
-0.345
-0.385
-0.37
-0.32
-0.27
-0.22
-0.14
-0.07
-0.005
0.065
0.115
0.135
0.16
0.17
0.19
0.21
0.215
0.225
0.22
0.19
0.165
0.155
0.15
0.13
0.105
0.1
0.085
0.055
0.065
0.065
0.08
0.085
0.09
0.09
0.105
0.12
0.13
0.13
0.125
0.12
0.115
0.125
0.12
0.105
0.08
0.03
-0.005
-0.015
-0.045
-0.07
-0.015
0.025
0.05
0.12
0.17
0.21
0.225
0.215
0.24
0.225
0.22
0.18
-0.015
-0.76
-1.635
-1.23
-0.355
0.42
0.945
0.675
0.36
0.26
0.17
0.115
0.11
0.09
0.105
0.1
0.085
0.055
0.045
0.035
0.035
0.02
-0.005
-0.025
-0.055
-0.085
-0.125
-0.145
-0.19
-0.25
-0.28
-0.295
-0.33
-0.325
-0.29
-0.235
-0.175
-0.11
-0.05
-0.01
0.04
0.085
0.12
0.145
0.165
0.18
0.18
0.17
0.16
0.165
0.175
0.165
0.15
0.135
0.13
0.11
0.1
0.105
0.1
0.095
0.085
0.1
0.11
0.105
0.105
0.115
0.125
0.125
0.125
0.105
0.12
0.125
0.13
0.11
0.11
0.075
0.045
0.015
-0.015
-0.025
-0.075
-0.08
-0.06
-0.005
0.02
0.05
0.105
0.16
0.175
0.17
0.19
0.175
0.175
0.16
0.115
-0.21
-1.105
-1.565
-0.745
0.075
0.76
0.995
0.51
0.31
0.2
0.115
0.1
0.09
0.08
0.07
0.045
0.05
0.05
0.04
0.035
0.015
0.01
-0.025
-0.04
-0.06
-0.09
-0.125
-0.165
-0.21
-0.25
-0.26
-0.305
-0.31
-0.3
-0.27
-0.21
-0.135
-0.065
-0.005
0.045
0.075
0.115
0.14
0.17
0.17
0.175
0.195
0.2
0.19
0.19
0.17
0.17
0.16
0.15
0.14
0.13
0.115
0.105
0.11
0.105
0.105
0.11
0.12
0.12
0.11
0.13
0.12
0.125
0.12
0.13
0.125
0.135
0.12
0.135
0.14
0.135
0.135
0.12
0.11
0.08
0.025
-0.02
-0.035
-0.075
-0.095
-0.09
-0.055
0.005
0.03
0.095
0.145
0.175
0.185
0.195
0.17
0.19
0.195
0.205
0.125
-0.345
-1.25
-1.315
-0.38
0.335
0.975
1.045
0.54
0.335
0.21
0.15
0.15
0.145
0.13
0.125
0.115
0.095
0.08
0.09
0.065
0.065
0.045
-0.005
-0.055
-0.05
-0.085
-0.13
-0.16
-0.205
-0.235
-0.275
-0.285
-0.285
-0.28
-0.23
-0.17
-0.1
-0.03
0.045
0.07
0.105
0.12
0.185
0.19
0.195
0.22
0.225
0.195
0.215
0.215
0.18
0.135
0.115
0.115
0.12
0.115
0.105
0.115
0.075
0.055
0.07
0.095
0.125
0.125
0.14
0.14
0.14
0.12
0.135
0.13
0.155
0.16
0.16
0.15
0.16
0.17
0.155
0.145
0.095
0.05
0.015
-0.02
-0.07
-0.095
-0.055
-0.02
0.03
0.08
0.135
0.15
0.14
0.175
0.225
0.21
0.23
0.19
0.12
-0.34
-1.325
-1.465
-0.565
0.095
0.855
1.065
0.595
0.385
0.22
0.16
0.115
0.11
0.16
0.135
0.085
0.07
0.075
0.065
0.09
0.055
-0.005
-0.04
-0.07
-0.09
-0.09
-0.125
-0.185
-0.245
-0.25
-0.285
-0.325
-0.33
-0.295
-0.24
-0.15
-0.07
0.005
0.07
0.11
0.105
0.17
0.195
0.21
0.225
0.245
0.245
0.235
0.19
0.185
0.16
0.09
0.085
0.11
0.11
0.115
0.075
0.09
0.09
0.08
0.11
0.115
0.095
0.1
0.125
0.145
0.165
0.145
0.145
0.155
0.115
0.135
0.165
0.165
0.13
0.08
0.02
-0.01
-0.025
-0.045
-0.075
-0.05
0.015
0.06
0.115
0.155
0.195
0.205
0.18
0.19
0.185
0.205
0.175
0.005
-0.76
-1.625
-1.27
-0.465
0.31
1.025
0.79
0.36
0.235
0.125
0.075
0.035
0.035
0.05
0.035
0.02
0.025
0.015
0.01
-0.01
-0.05
-0.05
-0.08
-0.11
-0.145
-0.165
-0.215
-0.255
-0.305
-0.315
-0.335
-0.325
-0.29
-0.265
-0.225
-0.14
-0.075
-0.005
0.045
0.07
0.1
0.14
0.155
0.165
0.175
0.18
0.17
0.17
0.155
0.14
0.085
0.07
0.045
0.055
0.04
0.03
0.0
0.015
0.01
0.025
0.035
0.04
0.055
0.06
0.075
0.11
0.11
0.095
0.115
0.11
0.105
0.115
0.11
0.125
0.12
0.13
0.09
0.045
-0.005
-0.03
-0.05
-0.085
-0.11
-0.075
-0.025
0.03
0.055
0.11
0.135
0.155
0.165
0.165
0.155
0.155
0.14
0.065
-0.505
-1.475
-1.405
-0.45
0.27
0.89
0.825
0.39
0.255
0.15
0.1
0.075
0.04
0.05
0.03
0.04
0.03
0.02
-0.005
-0.005
-0.015
-0.03
-0.045
-0.08
-0.1
-0.12
-0.165
-0.2
-0.24
-0.28
-0.305
-0.305
-0.295
-0.27
-0.245
-0.16
-0.1
-0.06
-0.01
0.045
0.08
0.11
0.11
0.14
0.14
0.165
0.155
0.155
0.13
0.11
0.095
0.08
0.06
0.055
0.045
0.04
0.025
0.035
0.025
0.015
0.03
0.035
0.04
0.055
0.05
0.05
0.055
0.06
0.065
0.085
0.075
0.08
0.075
0.085
0.08
0.065
0.065
0.09
0.075
0.045
-0.01
-0.05
-0.08
-0.085
-0.125
-0.13
-0.105
-0.045
-0.005
0.04
0.08
0.125
0.135
0.145
0.145
0.155
0.13
0.135
0.07
-0.315
-1.265
-1.49
-0.56
0.215
0.865
0.995
0.46
0.27
0.165
0.08
0.06
0.04
0.03
0.015
0.015
-0.005
-0.025
-0.02
-0.025
-0.03
-0.05
-0.07
-0.095
-0.135
-0.17
-0.185
-0.235
-0.255
-0.31
-0.325
-0.34
-0.33
-0.32
-0.255
-0.19
-0.125
-0.07
-0.025
-0.005
0.04
0.07
0.095
0.115
0.125
0.15
0.135
0.125
0.12
0.1
0.08
0.08
0.07
0.04
0.05
0.025
0.03
0.02
0.025
0.02
0.025
0.035
0.04
0.04
0.04
0.045
0.05
0.06
0.055
0.05
0.05
0.05
0.045
0.055
0.055
0.05
0.05
0.045
0.065
0.07
0.08
0.065
0.03
-0.03
-0.05
-0.09
-0.105
-0.14
-0.145
-0.105
-0.045
-0.025
0.01
0.085
0.11
0.14
0.145
0.155
0.15
0.145
0.125
0.075
-0.285
-1.185
-1.45
-0.53
0.24
0.89
1.055
0.505
0.275
0.15
0.095
0.055
0.045
0.035
0.035
0.025
0.02
0.0
-0.005
-0.005
-0.02
-0.045
-0.08
-0.115
-0.14
-0.15
-0.195
-0.22
-0.25
-0.275
-0.285
-0.295
-0.285
-0.27
-0.215
-0.16
-0.09
-0.065
0.0
0.035
0.08
0.095
0.125
0.135
0.16
0.155
0.165
0.155
0.125
0.11
0.09
0.08
0.065
0.05
0.04
0.025
0.005
-0.005
0.005
-0.01
0.0
0.01
0.035
0.04
0.04
0.05
0.08
0.06
0.06
0.05
0.055
0.045
0.055
0.06
0.07
0.065
0.065
0.065
0.065
0.065
0.08
0.08
0.07
0.025
-0.02
-0.045
-0.09
-0.11
-0.145
-0.15
-0.115
-0.07
-0.025
0.005
0.08
0.1
0.13
0.125
0.13
0.135
0.135
0.125
0.08
-0.185
-0.985
-1.5
-0.725
0.11
0.76
1.08
0.62
0.29
0.17
0.065
0.035
0.02
0.02
0.02
-0.01
-0.025
-0.025
-0.02
-0.045
-0.055
-0.07
-0.095
-0.1
-0.13
-0.165
-0.185
-0.22
-0.25
-0.28
-0.295
-0.3
-0.275
-0.26
-0.225
-0.155
-0.095
-0.035
0.02
0.055
0.085
0.12
0.12
0.135
0.15
0.18
0.19
0.18
0.13
0.08
0.06
0.08
0.05
0.035
0.02
-0.01
-0.015
-0.01
-0.005
0.005
0.005
0.01
0.02
0.025
0.035
0.055
0.065
0.065
0.08
0.08
0.075
0.065
0.05
0.065
0.06
0.08
0.065
0.08
0.08
0.08
0.055
0.06
0.055
0.06
0.055
0.03
-0.02
-0.035
-0.07
-0.085
-0.145
-0.155
-0.115
-0.04
-0.01
0.03
0.085
0.125
0.15
0.155
0.115
0.13
0.125
0.12
0.04
-0.41
-1.32
-1.335
-0.365
0.295
0.91
0.995
0.475
0.26
0.125
0.065
0.03
0.03
0.015
0.01
-0.01
-0.005
-0.02
-0.01
-0.035
-0.06
-0.065
-0.08
-0.145
-0.14
-0.165
-0.21
-0.235
-0.265
-0.305
-0.285
-0.29
-0.27
-0.23
-0.18
-0.095
-0.03
-0.005
0.04
0.05
0.135
0.16
0.17
0.155
0.165
0.175
0.195
0.18
0.16
0.135
0.11
0.085
0.07
0.065
0.06
0.055
0.05
0.04
0.075
0.065
0.085
0.085
0.095
0.095
0.1
0.095
0.135
0.11
0.125
0.13
0.145
0.14
0.135
0.135
0.15
0.165
0.15
0.15
0.125
0.09
0.055
0.02
0.015
-0.025
-0.065
-0.055
0.005
0.055
0.09
0.12
0.175
0.18
0.215
0.21
0.21
0.195
0.205
0.175
-0.02
-0.755
-1.36
-0.715
0.01
0.595
1.115
0.805
0.405
0.255
0.17
0.135
0.11
0.08
0.085
0.05
0.06
0.045
0.045
0.01
-0.005
-0.035
-0.045
-0.09
-0.125
-0.15
-0.175
-0.195
-0.22
-0.25
-0.25
-0.26
-0.24
-0.215
-0.175
-0.115
-0.03
0.01
0.08
0.095
0.115
0.12
0.155
0.165
0.195
0.165
0.155
0.145
0.15
0.115
0.095
0.065
0.055
0.035
0.03
0.005
0.015
-0.015
0.02
0.015
0.02
0.015
0.035
0.05
0.085
0.05
0.07
0.08
0.09
0.08
0.085
0.08
0.08
0.08
0.09
0.09
0.095
0.09
0.1
0.08
0.05
-0.02
-0.045
-0.075
-0.095
-0.135
-0.135
-0.11
-0.04
-0.005
0.04
0.095
0.125
0.14
0.145
0.13
0.135
0.145
0.125
0.02
-0.455
-1.385
-1.31
-0.355
0.345
0.91
0.86
0.36
0.235
0.12
0.055
0.045
0.04
0.03
0.03
-0.005
-0.005
-0.01
-0.02
-0.025
-0.035
-0.06
-0.075
-0.115
-0.12
-0.155
-0.185
-0.215
-0.22
-0.27
-0.275
-0.265
-0.22
-0.2
-0.145
-0.075
-0.02
0.015
0.06
0.09
0.115
0.12
0.16
0.17
0.18
0.18
0.185
0.165
0.145
0.105
0.12
0.08
0.065
0.045
0.055
0.04
0.03
0.015
0.025
0.03
0.04
0.06
0.08
0.075
0.095
0.095
0.1
0.11
0.115
0.11
0.125
0.1
0.12
0.105
0.105
0.105
0.115
0.1
0.13
0.115
0.07
0.02
-0.035
-0.05
-0.07
-0.12
-0.12
-0.05
0.01
0.025
0.085
0.135
0.18
0.18
0.195
0.185
0.2
0.18
0.175
0.025
-0.575
-1.41
-1.045
-0.115
0.575
1.09
0.855
0.4
0.275
0.16
0.1
0.075
0.08
0.06
0.065
0.035
0.035
0.02
0.025
-0.01
-0.005
-0.04
-0.045
-0.08
-0.095
-0.125
-0.15
-0.2
-0.215
-0.235
-0.235
-0.225
-0.2
-0.16
-0.085
-0.035
-0.005
0.045
0.085
0.105
0.13
0.15
0.18
0.175
0.205
0.19
0.195
0.145
0.145
0.11
0.125
0.1
0.08
0.055
0.06
0.045
0.055
0.05
0.045
0.055
0.07
0.08
0.085
0.08
0.09
0.085
0.1
0.095
0.115
0.095
0.105
0.09
0.11
0.1
0.1
0.105
0.135
0.125
0.115
0.08
0.045
0.005
-0.025
-0.06
-0.095
-0.115
-0.07
-0.015
0.02
0.035
0.105
0.13
0.165
0.155
0.18
0.17
0.155
0.125
0.08
-0.34
-1.235
-1.355
-0.365
0.34
0.945
1.04
0.495
0.275
0.16
0.075
0.055
0.035
0.04
0.015
0.01
-0.015
-0.02
-0.03
-0.03
-0.055
-0.07
-0.105
-0.11
-0.155
-0.18
-0.2
-0.215
-0.265
-0.285
-0.29
-0.285
-0.265
-0.205
-0.175
-0.11
-0.055
0.005
0.045
0.07
0.08
0.12
0.115
0.135
0.135
0.155
0.125
0.115
0.08
0.085
0.065
0.055
0.035
0.04
0.015
0.01
-0.005
0.005
-0.01
-0.005
0.0
0.025
0.025
0.045
0.05
0.045
0.045
0.06
0.045
0.05
0.04
0.045
0.045
0.06
0.045
0.05
0.025
0.06
0.04
0.005
-0.035
-0.065
-0.11
-0.125
-0.175
-0.17
-0.125
-0.08
-0.035
0.015
0.045
0.085
0.115
0.125
0.11
0.12
0.105
0.095
-0.015
-0.555
-1.415
-1.175
-0.19
0.47
1.005
0.88
0.355
0.2
0.06
0.0
-0.025
-0.025
-0.015
-0.03
-0.05
-0.06
-0.07
-0.055
-0.075
-0.095
-0.12
-0.14
-0.165
-0.165
-0.225
-0.24
-0.27
-0.3
-0.33
-0.325
-0.325
-0.27
-0.25
-0.2
-0.14
-0.085
-0.035
0.015
0.025
0.055
0.07
0.09
0.095
0.095
0.115
0.115
0.08
0.05
0.04
0.015
0.01
0.005
-0.015
-0.005
-0.01
-0.01
-0.015
-0.01
-0.02
0.01
-0.005
0.02
0.0
0.01
0.035
0.04
0.02
0.045
0.03
0.035
0.055
0.065
0.06
0.06
0.035
-0.005
-0.06
-0.105
-0.125
-0.16
-0.19
-0.155
-0.11
-0.055
-0.025
0.03
0.065
0.085
0.075
0.09
0.085
0.08
0.065
0.02
-0.35
-1.205
-1.31
-0.38
0.215
0.775
0.97
0.48
0.21
0.085
0.005
-0.01
-0.035
-0.04
-0.065
-0.055
-0.08
-0.08
-0.105
-0.115
-0.15
-0.165
-0.19
-0.195
-0.23
-0.26
-0.285
-0.315
-0.35
-0.355
-0.375
-0.37
-0.325
-0.3
-0.235
-0.185
-0.135
-0.065
-0.025
0.02
0.055
0.065
0.065
0.085
0.09
0.095
0.08
0.06
0.05
0.04
-0.015
-0.025
-0.05
-0.055
-0.06
-0.065
-0.075
-0.055
-0.06
-0.055
-0.04
-0.035
-0.025
-0.005
0.005
0.005
0.0
0.005
0.01
0.015
0.005
0.015
0.015
0.025
0.025
0.02
0.0
-0.04
-0.105
-0.125
-0.15
-0.175
-0.19
-0.165
-0.11
-0.05
-0.03
0.04
0.07
0.085
0.095
0.1
0.085
0.1
0.09
-0.015
-0.535
-1.41
-1.24
-0.225
0.425
1.0
0.895
0.355
0.2
0.085
0.035
0.02
0.005
-0.005
-0.01
-0.025
-0.05
-0.05
-0.065
-0.07
-0.085
-0.11
-0.14
-0.145
-0.185
-0.195
-0.225
-0.26
-0.305
-0.305
-0.33
-0.315
-0.3
-0.255
-0.19
-0.125
-0.065
0.0
0.04
0.065
0.085
0.105
0.14
0.15
0.145
0.155
0.14
0.13
0.085
0.08
0.05
0.045
0.015
0.015
-0.015
-0.015
-0.02
0.005
-0.005
0.02
0.025
0.035
0.05
0.065
0.07
0.085
0.08
0.075
0.08
0.08
0.08
0.08
0.07
0.07
0.055
0.065
0.06
0.03
-0.02
-0.045
-0.09
-0.1
-0.14
-0.14
-0.105
-0.04
-0.015
0.045
0.085
0.115
0.125
0.13
0.14
0.14
0.135
0.11
-0.04
-0.69
-1.415
-0.94
-0.02
0.63
1.105
0.815
0.345
0.22
0.12
0.075
0.025
0.025
0.02
0.015
0.0
-0.005
-0.025
-0.03
-0.05
-0.07
-0.09
-0.12
-0.145
-0.165
-0.205
-0.235
-0.27
-0.295
-0.31
-0.315
-0.3
-0.26
-0.24
-0.19
-0.115
-0.05
-0.015
0.05
0.055
0.105
0.13
0.145
0.145
0.15
0.135
0.145
0.12
0.085
0.075
0.055
0.055
0.045
0.025
0.01
0.02
0.025
0.035
0.05
0.045
0.06
0.08
0.085
0.085
0.095
0.085
0.1
0.095
0.105
0.095
0.11
0.105
0.125
0.11
0.125
0.125
0.125
0.09
0.04
-0.02
-0.035
-0.075
-0.095
-0.09
-0.04
0.01
0.06
0.095
0.165
0.19
0.19
0.19
0.205
0.195
0.205
0.165
0.04
-0.545
-1.315
-0.95
0.005
0.615
1.155
0.935
0.41
0.265
0.15
0.095
0.07
0.06
0.055
0.05
0.025
0.01
0.01
-0.005
-0.025
-0.04
-0.055
-0.09
-0.105
-0.15
-0.16
-0.205
-0.24
-0.27
-0.295
-0.31
-0.28
-0.265
-0.23
-0.175
-0.1
-0.045
0.04
0.07
0.095
0.13
0.145
0.175
0.19
0.185
0.19
0.175
0.175
0.145
0.115
0.085
0.09
0.08
0.05
0.04
0.04
0.04
0.045
0.03
0.055
0.06
0.065
0.07
0.08
0.095
0.12
0.12
0.12
0.125
0.125
0.125
0.13
0.1
0.12
0.12
0.12
0.105
0.085
0.025
-0.025
-0.05
-0.065
-0.09
-0.09
-0.045
0.015
0.05
0.095
0.13
0.155
0.17
0.17
0.165
0.175
0.165
0.155
0.02
-0.57
-1.34
-0.96
0.0
0.625
1.135
0.915
0.395
0.255
0.135
0.085
0.065
0.065
0.065
0.055
0.025
0.02
0.025
0.01
-0.015
-0.025
-0.065
-0.1
-0.125
-0.145
-0.17
-0.2
-0.245
-0.265
-0.29
-0.295
-0.3
-0.27
-0.235
-0.175
-0.125
-0.06
-0.01
0.05
0.085
0.105
0.125
0.155
0.17
0.175
0.195
0.185
0.165
0.15
0.12
0.095
0.08
0.065
0.045
0.045
0.035
0.04
0.035
0.055
0.045
0.065
0.045
0.055
0.065
0.065
0.075
0.065
0.07
0.09
0.09
0.09
0.095
0.085
0.09
0.09
0.065
0.085
0.085
0.08
0.055
0.025
-0.045
-0.065
-0.1
-0.13
-0.16
-0.135
-0.075
-0.03
-0.01
0.035
0.09
0.11
0.105
0.095
0.105
0.11
0.11
0.06
-0.25
-1.07
-1.415
-0.51
0.24
0.85
1.105
0.595
0.27
0.165
0.065
0.035
0.01
0.0
0.01
-0.005
-0.035
-0.03
-0.035
-0.045
-0.07
-0.075
-0.11
-0.115
-0.155
-0.185
-0.22
-0.24
-0.28
-0.31
-0.33
-0.315
-0.305
-0.275
-0.225
-0.17
-0.11
-0.05
-0.01
0.04
0.065
0.1
0.125
0.145
0.135
0.14
0.15
0.135
0.12
0.115
0.09
0.08
0.055
0.04
0.025
0.015
0.015
0.03
0.025
0.035
0.03
0.045
0.06
0.09
0.085
0.09
0.085
0.11
0.105
0.095
0.115
0.125
0.115
0.095
0.095
0.09
0.105
0.105
0.095
0.09
0.08
0.05
0.015
-0.025
-0.06
-0.08
-0.13
-0.095
-0.04
0.015
0.045
0.09
0.135
0.165
0.165
0.165
0.185
0.175
0.155
0.135
-0.03
-0.68
-1.35
-0.775
0.05
0.62
1.095
0.835
0.375
0.22
0.115
0.085
0.04
0.045
0.04
0.03
0.01
-0.015
-0.03
-0.045
-0.065
-0.08
-0.105
-0.12
-0.14
-0.18
-0.22
-0.235
-0.27
-0.315
-0.355
-0.34
-0.325
-0.285
-0.27
-0.22
-0.15
-0.075
-0.03
0.03
0.055
0.07
0.11
0.125
0.155
0.16
0.15
0.145
0.13
0.11
0.08
0.065
0.045
0.055
0.02
0.01
0.005
0.01
-0.01
0.005
0.0
0.02
0.025
0.025
0.035
0.03
0.045
0.06
0.05
0.045
0.045
0.05
0.045
0.07
0.065
0.065
0.04
0.04
0.045
0.035
-0.015
-0.04
-0.09
-0.105
-0.15
-0.175
-0.135
-0.06
-0.02
0.01
0.06
0.085
0.12
0.135
0.13
0.13
0.115
0.12
0.065
-0.265
-1.095
-1.335
-0.475
0.21
0.78
1.105
0.63
0.305
0.175
0.1
0.055
0.045
0.03
0.015
-0.005
0.01
-0.02
-0.02
-0.045
-0.055
-0.08
-0.11
-0.14
-0.165
-0.185
-0.22
-0.24
-0.275
-0.295
-0.315
-0.31
-0.29
-0.27
-0.215
-0.155
-0.08
-0.045
0.005
0.025
0.085
0.105
0.145
0.15
0.155
0.145
0.15
0.135
0.115
0.095
0.075
0.055
0.04
0.02
0.005
0.0
-0.005
-0.005
0.01
0.015
0.04
0.03
0.04
0.035
0.045
0.045
0.06
0.065
0.065
0.07
0.08
0.07
0.07
0.055
0.065
0.06
0.07
0.08
0.085
0.08
0.08
0.015
-0.015
-0.06
-0.08
-0.1
-0.13
-0.115
-0.045
0.0
0.03
0.08
0.13
0.135
0.165
0.145
0.175
0.165
0.175
0.115
-0.115
-0.87
-1.485
-0.81
0.03
0.655
1.05
0.65
0.29
0.195
0.105
0.065
0.055
0.035
0.045
0.045
0.04
-0.005
0.005
-0.025
-0.025
-0.05
-0.075
-0.12
-0.14
-0.17
-0.19
-0.23
-0.28
-0.32
-0.34
-0.345
-0.32
-0.315
-0.265
-0.2
-0.115
-0.065
0.01
0.025
0.08
0.09
0.115
0.13
0.145
0.145
0.155
0.145
0.14
0.11
0.08
0.065
0.065
0.035
0.045
0.01
0.015
0.01
0.01
0.0
-0.01
0.005
0.02
0.035
0.035
0.04
0.045
0.035
0.05
0.05
0.065
0.05
0.06
0.06
0.06
0.05
0.045
0.04
0.05
0.04
0.045
0.045
0.055
0.045
0.02
-0.03
-0.075
-0.11
-0.125
-0.17
-0.16
-0.125
-0.075
-0.045
0.005
0.06
0.1
0.105
0.115
0.11
0.115
0.1
0.09
-0.04
-0.58
-1.415
-1.195
-0.24
0.42
0.975
0.845
0.34
0.21
0.08
0.025
-0.005
0.005
0.0
0.01
-0.03
-0.03
-0.05
-0.06
-0.075
-0.09
-0.105
-0.135
-0.16
-0.17
-0.21
-0.235
-0.28
-0.31
-0.34
-0.345
-0.35
-0.33
-0.305
-0.245
-0.185
-0.115
-0.075
-0.01
0.035
0.065
0.065
0.095
0.1
0.11
0.115
0.14
0.11
0.105
0.08
0.065
0.055
0.045
0.015
0.005
0.0
0.005
-0.03
-0.015
0.005
0.015
0.0
0.02
0.015
0.035
0.03
0.03
0.025
0.02
0.04
0.05
0.04
0.035
0.03
0.04
0.04
0.055
0.025
0.035
0.035
0.04
0.03
0.025
0.03
-0.02
-0.065
-0.095
-0.13
-0.145
-0.195
-0.165
-0.135
-0.075
-0.055
-0.005
0.035
0.085
0.095
0.1
0.11
0.095
0.09
0.08
-0.06
-0.585
-1.42
-1.19
-0.215
0.44
1.0
0.86
0.335
0.2
0.08
0.015
-0.005
-0.015
-0.01
-0.015
-0.05
-0.055
-0.075
-0.08
-0.095
-0.105
-0.14
-0.14
-0.165
-0.175
-0.205
-0.235
-0.255
-0.29
-0.32
-0.33
-0.325
-0.315
-0.285
-0.215
-0.14
-0.075
-0.035
0.025
0.05
0.1
0.115
0.135
0.15
0.175
0.175
0.175
0.165
0.16
0.135
0.13
0.12
0.11
0.095
0.095
0.06
0.07
0.08
0.07
0.07
0.065
0.085
0.11
0.095
0.115
0.12
0.115
0.115
0.12
0.105
0.125
0.125
0.135
0.115
0.115
0.105
0.115
0.095
0.105
0.105
0.095
0.095
0.085
0.105
0.09
0.025
-0.005
-0.06
-0.075
-0.105
-0.14
-0.125
-0.04
-0.005
0.025
0.08
0.115
0.13
0.13
0.135
0.14
0.115
0.125
0.08
-0.145
-0.915
-1.43
-0.695
0.11
0.69
1.095
0.685
0.31
0.165
0.07
0.035
0.03
0.03
0.02
0.01
0.0
-0.025
-0.04
-0.055
-0.045
-0.075
-0.08
-0.105
-0.125
-0.165
-0.2
-0.225
-0.265
-0.32
-0.335
-0.31
-0.3
-0.275
-0.265
-0.215
-0.13
-0.085
-0.03
0.015
0.05
0.07
0.105
0.125
0.125
0.135
0.155
0.145
0.12
0.1
0.09
0.07
0.085
0.05
0.035
0.015
0.01
0.005
0.02
0.01
