signal
-0.155
-0.175
-0.155
-0.14
-0.15
-0.13
-0.115
-0.14
-0.185
-0.245
-0.22
-0.23
-0.225
-0.215
-0.265
0.02
0.835
1.575
1.24
0.415
-0.16
-0.14
-0.13
-0.16
-0.16
-0.155
-0.16
-0.16
-0.13
-0.13
-0.125
-0.12
-0.09
-0.08
-0.06
-0.035
0.0
0.025
0.085
0.165
0.225
0.315
0.425
0.525
0.615
0.66
0.655
0.525
0.4
0.22
0.115
0.015
-0.025
-0.045
-0.05
-0.06
-0.065
-0.06
-0.05
-0.055
-0.05
-0.045
-0.04
-0.035
-0.035
-0.025
-0.035
-0.035
-0.04
-0.03
-0.045
-0.04
-0.045
-0.045
-0.045
-0.055
-0.055
-0.055
-0.055
-0.06
-0.06
-0.06
-0.065
-0.085
-0.065
-0.08
-0.08
-0.08
-0.1
-0.1
-0.105
-0.09
-0.105
-0.105
-0.115
-0.12
-0.12
-0.135
-0.125
-0.14
-0.12
-0.14
-0.14
-0.155
-0.14
-0.17
-0.155
-0.155
-0.17
-0.175
-0.155
-0.195
-0.135
-0.175
-0.11
-0.155
-0.12
-0.17
-0.2
-0.26
-0.22
-0.235
-0.22
-0.25
-0.215
0.31
1.205
1.79
0.77
0.075
-0.195
-0.12
-0.145
-0.17
-0.15
-0.165
-0.15
-0.15
-0.14
-0.13
-0.115
-0.125
-0.08
-0.09
-0.045
-0.03
0.015
0.03
0.1
0.17
0.265
0.35
0.465
0.555
0.63
0.67
0.615
0.47
0.335
0.175
0.07
-0.005
-0.04
-0.06
-0.045
-0.065
-0.06
-0.055
-0.06
-0.055
-0.05
-0.05
-0.045
-0.045
-0.05
-0.04
-0.025
-0.035
-0.035
-0.045
-0.04
-0.045
-0.045
-0.05
-0.045
-0.055
-0.065
-0.06
-0.055
-0.055
-0.06
-0.06
-0.06
-0.075
-0.07
-0.075
-0.085
-0.075
-0.075
-0.085
-0.075
-0.085
-0.09
-0.09
-0.1
-0.105
-0.105
-0.095
-0.12
-0.12
-0.13
-0.13
-0.14
-0.14
-0.14
-0.14
-0.15
-0.15
-0.17
-0.165
-0.165
-0.175
-0.19
-0.19
-0.14
-0.18
-0.12
-0.14
-0.135
-0.185
-0.25
-0.25
-0.235
-0.24
-0.235
-0.28
-0.1
0.625
1.415
1.52
0.54
-0.12
-0.185
-0.145
-0.17
-0.185
-0.165
-0.17
-0.165
-0.155
-0.14
-0.135
-0.12
-0.115
-0.095
-0.09
-0.045
-0.04
0.005
0.06
0.115
0.195
0.305
0.38
0.49
0.59
0.645
0.65
0.57
0.425
0.275
0.14
0.04
-0.02
-0.04
-0.055
-0.055
-0.06
-0.06
-0.055
-0.055
-0.055
-0.045
-0.035
-0.04
-0.04
-0.035
-0.03
-0.035
-0.035
-0.035
-0.04
-0.04
-0.035
-0.045
-0.05
-0.04
-0.04
-0.06
-0.055
-0.06
-0.065
-0.05
-0.065
-0.06
-0.075
-0.07
-0.065
-0.07
-0.08
-0.065
-0.08
-0.08
-0.07
-0.08
-0.09
-0.1
-0.085
-0.1
-0.12
-0.115
-0.125
-0.125
-0.125
-0.13
-0.14
-0.145
-0.14
-0.145
-0.15
-0.155
-0.15
-0.16
-0.165
-0.16
-0.185
-0.13
-0.155
-0.105
-0.125
-0.125
-0.15
-0.22
-0.225
-0.225
-0.21
-0.215
-0.27
-0.04
0.69
1.455
1.49
0.53
-0.115
-0.145
-0.12
-0.14
-0.155
-0.16
-0.15
-0.135
-0.13
-0.125
-0.115
-0.11
-0.09
-0.08
-0.07
-0.04
-0.015
0.03
0.06
0.145
0.205
0.315
0.415
0.51
0.61
0.67
0.66
0.58
0.43
0.28
0.13
0.04
0.0
-0.04
-0.05
-0.06
-0.065
-0.05
-0.055
-0.05
-0.05
-0.05
-0.04
-0.045
-0.04
-0.04
-0.03
-0.035
-0.035
-0.05
-0.03
-0.035
-0.04
-0.055
-0.05
-0.055
-0.045
-0.05
-0.055
-0.06
-0.05
-0.06
-0.075
-0.065
-0.07
-0.055
-0.08
-0.07
-0.09
-0.09
-0.09
-0.08
-0.095
-0.095
-0.085
-0.11
-0.085
-0.105
-0.11
-0.11
-0.11
-0.13
-0.125
-0.14
-0.13
-0.145
-0.13
-0.15
-0.145
-0.17
-0.155
-0.17
-0.165
-0.15
-0.13
-0.125
-0.095
-0.125
-0.17
-0.23
-0.215
-0.225
-0.205
-0.21
-0.255
0.125
1.0
1.645
1.06
0.34
-0.18
-0.14
-0.12
-0.17
-0.15
-0.16
-0.14
-0.135
-0.125
-0.12
-0.105
-0.11
-0.09
-0.08
-0.055
-0.02
0.005
0.025
0.085
0.16
0.235
0.32
0.43
0.53
0.625
0.66
0.64
0.525
0.375
0.22
0.11
0.01
-0.02
-0.065
-0.06
-0.07
-0.07
-0.055
-0.06
-0.05
-0.04
-0.03
-0.03
-0.025
-0.04
-0.015
-0.03
-0.03
-0.02
-0.025
-0.04
-0.04
-0.035
-0.035
-0.04
-0.045
-0.055
-0.045
-0.065
-0.055
-0.06
-0.05
-0.045
-0.06
-0.05
-0.065
-0.06
-0.065
-0.075
-0.07
-0.08
-0.075
-0.09
-0.085
-0.09
-0.1
-0.09
-0.08
-0.1
-0.09
-0.105
-0.11
-0.125
-0.13
-0.12
-0.145
-0.13
-0.135
-0.145
-0.155
-0.155
-0.16
-0.16
-0.18
-0.115
-0.17
-0.115
-0.13
-0.115
-0.16
-0.22
-0.225
-0.235
-0.22
-0.215
-0.26
-0.11
0.55
1.37
1.65
0.595
-0.065
-0.15
-0.135
-0.145
-0.16
-0.155
-0.15
-0.14
-0.135
-0.12
-0.13
-0.095
-0.085
-0.08
-0.07
-0.035
-0.01
0.02
0.06
0.145
0.205
0.295
0.405
0.51
0.605
0.665
0.67
0.6
0.455
0.29
0.165
0.065
0.0
-0.03
-0.045
-0.05
-0.055
-0.05
-0.04
-0.035
-0.035
-0.04
-0.025
-0.03
-0.035
-0.02
-0.03
-0.03
-0.015
-0.02
-0.03
-0.025
-0.015
-0.03
-0.04
-0.03
-0.035
-0.055
-0.035
-0.045
-0.045
-0.04
-0.045
-0.055
-0.07
-0.055
-0.06
-0.05
-0.065
-0.06
-0.07
-0.07
-0.06
-0.08
-0.06
-0.075
-0.08
-0.085
-0.09
-0.1
-0.095
-0.115
-0.12
-0.11
-0.125
-0.125
-0.115
-0.125
-0.13
-0.14
-0.14
-0.155
-0.145
-0.16
-0.165
-0.185
-0.14
-0.175
-0.105
-0.125
-0.145
-0.185
-0.23
-0.235
-0.235
-0.24
-0.225
-0.28
-0.125
0.52
1.36
1.615
0.57
-0.105
-0.17
-0.135
-0.16
-0.175
-0.165
-0.16
-0.155
-0.15
-0.14
-0.135
-0.11
-0.105
-0.09
-0.085
-0.055
-0.02
0.01
0.055
0.11
0.185
0.29
0.38
0.49
0.585
0.645
0.655
0.58
0.435
0.275
0.14
0.035
0.0
-0.055
-0.07
-0.04
-0.075
-0.05
-0.055
-0.055
-0.05
-0.035
-0.04
-0.03
-0.045
-0.05
-0.035
-0.035
-0.04
-0.02
-0.035
-0.035
-0.04
-0.045
-0.055
-0.05
-0.055
-0.04
-0.035
-0.035
-0.035
-0.03
-0.05
-0.06
-0.065
-0.065
-0.08
-0.095
-0.11
-0.14
-0.13
-0.13
-0.135
-0.14
-0.125
-0.135
-0.135
-0.145
-0.145
-0.155
-0.15
-0.15
-0.175
-0.19
-0.17
-0.205
-0.2
-0.2
-0.19
-0.21
-0.2
-0.145
-0.175
-0.145
-0.12
-0.135
-0.185
-0.24
-0.22
-0.245
-0.22
-0.22
-0.29
0.02
0.86
1.585
1.18
0.35
-0.165
-0.145
-0.135
-0.17
-0.17
-0.17
-0.15
-0.15
-0.14
-0.135
-0.11
-0.115
-0.085
-0.095
-0.065
-0.04
-0.02
0.015
0.085
0.135
0.23
0.335
0.455
0.545
0.62
0.635
0.6
0.53
0.405
0.27
0.15
0.045
-0.01
-0.045
-0.075
-0.1
-0.095
-0.095
-0.08
-0.035
0.03
0.06
-0.045
-0.04
-0.06
-0.095
-0.085
-0.075
-0.075
-0.085
-0.08
-0.08
-0.085
-0.07
-0.095
-0.105
-0.105
-0.1
-0.115
-0.11
-0.115
-0.11
-0.11
-0.11
-0.11
-0.12
-0.12
-0.115
-0.12
-0.13
-0.135
-0.14
-0.145
-0.12
-0.14
-0.14
-0.14
-0.155
-0.145
-0.16
-0.16
-0.17
-0.185
-0.185
-0.18
-0.185
-0.19
-0.2
-0.195
-0.145
-0.175
-0.125
-0.145
-0.16
-0.21
-0.265
-0.27
-0.27
-0.265
-0.245
-0.32
-0.175
0.625
1.39
1.285
0.44
-0.11
-0.24
-0.175
-0.2
-0.195
-0.185
-0.2
-0.18
-0.18
-0.145
-0.135
-0.13
-0.13
-0.095
-0.08
-0.05
-0.035
0.005
0.055
0.115
0.195
0.295
0.385
0.49
0.585
0.675
0.66
0.58
0.42
0.265
0.125
0.025
-0.05
-0.075
-0.085
-0.09
-0.07
-0.065
-0.07
-0.065
-0.055
-0.05
-0.055
-0.04
-0.05
-0.045
-0.04
-0.045
-0.055
-0.065
-0.065
-0.075
-0.08
-0.075
-0.075
-0.08
-0.08
-0.09
-0.08
-0.08
-0.075
-0.09
-0.085
-0.085
-0.085
-0.095
-0.095
-0.105
-0.12
-0.105
-0.12
-0.115
-0.125
-0.135
-0.13
-0.14
-0.135
-0.14
-0.145
-0.145
-0.14
-0.145
-0.16
-0.13
-0.135
-0.07
-0.09
-0.1
-0.145
-0.185
-0.215
-0.21
-0.19
-0.2
-0.27
-0.105
0.72
1.515
1.335
0.44
-0.09
-0.18
-0.1
-0.115
-0.14
-0.12
-0.125
-0.115
-0.105
-0.085
-0.1
-0.065
-0.055
-0.035
-0.01
0.0
0.04
0.07
0.13
0.185
0.27
0.365
0.465
0.58
0.685
0.75
0.735
0.635
0.46
0.33
0.17
0.1
0.02
-0.005
-0.005
-0.015
-0.02
-0.03
-0.015
-0.01
-0.005
-0.01
-0.01
-0.005
-0.02
-0.005
-0.01
-0.015
-0.015
-0.025
-0.025
-0.03
-0.03
-0.04
-0.05
-0.07
-0.065
-0.07
-0.075
-0.085
-0.105
-0.085
-0.095
-0.095
-0.095
-0.135
-0.1
-0.115
-0.13
-0.14
-0.13
-0.155
-0.14
-0.125
-0.145
-0.12
-0.095
-0.165
-0.17
-0.245
-0.2
-0.225
-0.21
-0.19
-0.295
0.02
0.925
1.625
0.97
0.34
-0.17
-0.185
-0.14
-0.165
-0.155
-0.155
-0.09
-0.135
-0.11
-0.14
-0.125
-0.13
-0.19
-0.245
-0.165
-0.18
-0.12
-0.065
-0.005
0.085
0.17
0.27
0.355
0.465
0.545
0.575
0.535
0.39
0.26
0.115
-0.015
-0.08
-0.13
-0.15
-0.155
-0.155
-0.14
-0.13
-0.13
-0.125
-0.12
-0.115
-0.11
-0.105
-0.08
-0.065
-0.08
-0.07
-0.125
-0.085
-0.065
-0.11
-0.14
-0.135
-0.145
-0.14
-0.145
-0.15
-0.18
-0.17
-0.18
-0.15
-0.16
-0.15
-0.155
-0.155
-0.14
-0.12
-0.18
-0.19
-0.165
-0.16
-0.19
-0.17
-0.155
-0.185
-0.165
-0.195
-0.2
-0.165
-0.235
-0.25
-0.29
-0.255
-0.27
-0.335
-0.05
0.835
1.685
1.105
0.18
-0.215
-0.17
-0.16
-0.215
-0.16
-0.185
-0.15
-0.155
-0.135
-0.13
-0.115
-0.05
-0.085
-0.07
-0.025
0.0
0.04
0.07
0.145
0.205
0.29
0.38
0.505
0.6
0.68
0.71
0.685
0.555
0.36
0.2
0.09
0.015
-0.04
-0.08
-0.09
-0.11
-0.125
-0.125
-0.13
-0.135
-0.13
-0.115
-0.105
-0.105
-0.09
-0.095
-0.09
-0.075
-0.075
-0.075
-0.08
-0.08
-0.1
-0.09
-0.095
-0.1
-0.11
-0.1
-0.12
-0.12
-0.12
-0.135
-0.135
-0.12
-0.14
-0.12
-0.14
-0.125
-0.145
-0.135
-0.155
-0.13
-0.135
-0.06
-0.125
-0.08
-0.14
-0.15
-0.225
-0.195
-0.22
-0.185
-0.225
-0.26
0.285
1.27
1.89
0.59
0.035
-0.18
-0.125
-0.105
-0.15
-0.13
-0.14
-0.12
-0.13
-0.11
-0.13
-0.095
-0.1
-0.075
-0.06
-0.025
-0.015
0.05
0.065
0.135
0.2
0.3
0.41
0.515
0.61
0.695
0.685
0.59
0.43
0.265
0.13
0.055
-0.02
-0.045
-0.065
-0.065
-0.07
-0.07
-0.065
-0.07
-0.04
-0.065
-0.06
-0.045
-0.035
-0.05
-0.05
-0.035
-0.035
-0.05
-0.055
-0.055
-0.045
-0.055
-0.055
-0.055
-0.065
-0.06
-0.065
-0.075
-0.08
-0.09
-0.09
-0.085
-0.07
-0.08
-0.1
-0.09
-0.1
-0.1
-0.115
-0.105
-0.125
-0.12
-0.135
-0.125
-0.13
-0.125
-0.145
-0.135
-0.155
-0.15
-0.16
-0.15
-0.175
-0.175
-0.125
-0.12
-0.15
-0.105
-0.155
-0.16
-0.255
-0.225
-0.245
-0.22
-0.235
-0.3
0.085
1.015
1.785
0.845
0.125
-0.195
-0.15
-0.135
-0.165
-0.15
-0.14
-0.145
-0.15
-0.125
-0.13
-0.1
-0.105
-0.07
-0.065
-0.04
-0.02
0.02
0.055
0.105
0.175
0.275
0.38
0.485
0.585
0.675
0.705
0.665
0.53
0.365
0.22
0.1
0.01
-0.02
-0.04
-0.05
-0.055
-0.045
-0.05
-0.045
-0.04
-0.055
-0.045
-0.035
-0.025
-0.035
-0.025
-0.03
-0.03
-0.035
-0.025
-0.03
-0.02
-0.03
-0.04
-0.03
-0.04
-0.045
-0.05
-0.04
-0.055
-0.055
-0.05
-0.05
-0.055
-0.05
-0.06
-0.06
-0.075
-0.075
-0.075
-0.09
-0.09
-0.08
-0.095
-0.1
-0.105
-0.1
-0.105
-0.115
-0.115
-0.12
-0.13
-0.12
-0.14
-0.13
-0.155
-0.145
-0.15
-0.14
-0.175
-0.155
-0.18
-0.155
-0.135
-0.125
-0.13
-0.095
-0.15
-0.16
-0.235
-0.215
-0.245
-0.21
-0.22
-0.285
0.15
1.115
1.82
0.71
0.06
-0.21
-0.155
-0.15
-0.18
-0.16
-0.18
-0.15
-0.17
-0.14
-0.14
-0.115
-0.115
-0.09
-0.085
-0.055
-0.035
0.01
0.035
0.105
0.165
0.26
0.36
0.47
0.565
0.675
0.69
0.655
0.525
0.355
0.205
0.08
-0.005
-0.045
-0.07
-0.08
-0.085
-0.095
-0.085
-0.08
-0.085
-0.08
-0.08
-0.065
-0.065
-0.085
-0.055
-0.05
-0.06
-0.065
-0.06
-0.05
-0.055
-0.06
-0.06
-0.065
-0.075
-0.07
-0.07
-0.085
-0.085
-0.085
-0.09
-0.095
-0.095
-0.09
-0.1
-0.11
-0.115
-0.12
-0.125
-0.12
-0.125
-0.13
-0.135
-0.135
-0.145
-0.14
-0.15
-0.145
-0.165
-0.15
-0.165
-0.145
-0.19
-0.12
-0.14
-0.095
-0.18
-0.115
-0.165
-0.185
-0.25
-0.225
-0.255
-0.22
-0.255
-0.26
0.295
1.27
1.855
0.5
-0.065
-0.225
-0.17
-0.16
-0.185
-0.17
-0.17
-0.145
-0.16
-0.14
-0.14
-0.115
-0.105
-0.08
-0.08
-0.035
-0.035
0.015
0.05
0.135
0.185
0.29
0.38
0.495
0.6
0.685
0.7
0.64
0.495
0.335
0.175
0.075
0.0
-0.035
-0.055
-0.07
-0.065
-0.06
-0.055
-0.06
-0.05
-0.055
-0.055
-0.06
-0.045
-0.045
-0.04
-0.04
-0.045
-0.04
-0.045
-0.035
-0.045
-0.05
-0.045
-0.045
-0.045
-0.06
-0.055
-0.06
-0.06
-0.055
-0.055
-0.075
-0.065
-0.075
-0.075
-0.07
-0.08
-0.085
-0.085
-0.09
-0.095
-0.09
-0.1
-0.105
-0.1
-0.11
-0.115
-0.12
-0.12
-0.14
-0.135
-0.145
-0.135
-0.15
-0.14
-0.145
-0.075
-0.08
-0.11
-0.085
-0.095
-0.115
-0.145
-0.225
-0.22
-0.225
-0.22
-0.2
-0.28
-0.05
0.795
1.63
1.255
0.295
-0.185
-0.17
-0.135
-0.155
-0.145
-0.15
-0.13
-0.13
-0.125
-0.125
-0.11
-0.09
-0.07
-0.06
-0.03
-0.015
0.03
0.055
0.115
0.19
0.265
0.355
0.47
0.57
0.675
0.73
0.72
0.62
0.45
0.29
0.155
0.045
0.01
-0.035
-0.04
-0.05
-0.07
-0.05
-0.05
-0.06
-0.06
-0.065
-0.06
-0.045
-0.075
-0.06
-0.06
-0.07
-0.075
-0.065
-0.075
-0.09
-0.09
-0.09
-0.09
-0.1
-0.105
-0.105
-0.11
-0.13
-0.11
-0.125
-0.13
-0.13
-0.135
-0.15
-0.14
-0.16
-0.145
-0.16
-0.145
-0.18
-0.155
-0.175
-0.155
-0.19
-0.17
-0.17
-0.11
-0.11
-0.11
-0.12
-0.105
-0.165
-0.195
-0.26
-0.245
-0.255
-0.235
-0.245
-0.305
0.07
0.975
1.735
0.9
0.18
-0.225
-0.185
-0.16
-0.195
-0.175
-0.2
-0.145
-0.17
-0.145
-0.15
-0.105
-0.125
-0.09
-0.08
-0.055
-0.05
0.0
0.02
0.095
0.155
0.245
0.34
0.45
0.54
0.64
0.68
0.66
0.53
0.355
0.2
0.075
0.01
-0.04
-0.065
-0.075
-0.09
-0.085
-0.095
-0.095
-0.09
-0.085
-0.09
-0.08
-0.09
-0.085
-0.08
-0.085
-0.085
-0.09
-0.09
-0.09
-0.095
-0.09
-0.105
-0.11
-0.105
-0.11
-0.115
-0.11
-0.12
-0.12
-0.115
-0.125
-0.135
-0.135
-0.135
-0.145
-0.15
-0.15
-0.16
-0.16
-0.16
-0.16
-0.16
-0.165
-0.175
-0.165
-0.16
-0.11
-0.1
-0.125
-0.105
-0.12
-0.135
-0.19
-0.24
-0.25
-0.245
-0.25
-0.235
-0.31
-0.12
0.66
1.525
1.4
0.29
-0.205
-0.21
-0.175
-0.195
-0.19
-0.18
-0.18
-0.18
-0.165
-0.15
-0.14
-0.125
-0.105
-0.095
-0.07
-0.045
-0.03
0.03
0.065
0.135
0.215
0.305
0.41
0.51
0.61
0.685
0.68
0.58
0.415
0.255
0.135
0.03
-0.015
-0.055
-0.065
-0.07
-0.08
-0.08
-0.065
-0.07
-0.065
-0.06
-0.065
-0.06
-0.065
-0.055
-0.045
-0.06
-0.065
-0.065
-0.055
-0.065
-0.065
-0.07
-0.075
-0.085
-0.09
-0.09
-0.09
-0.095
-0.1
-0.11
-0.11
-0.1
-0.11
-0.11
-0.12
-0.1
-0.115
-0.11
-0.115
-0.12
-0.135
-0.125
-0.14
-0.14
-0.145
-0.14
-0.155
-0.15
-0.165
-0.155
-0.18
-0.155
-0.15
-0.105
-0.105
-0.1
-0.145
-0.1
-0.16
-0.19
-0.265
-0.235
-0.26
-0.225
-0.26
-0.31
0.13
1.075
1.81
0.695
0.07
-0.21
-0.16
-0.145
-0.195
-0.16
-0.18
-0.155
-0.165
-0.135
-0.145
-0.11
-0.11
-0.08
-0.07
-0.045
-0.03
0.015
0.04
0.115
0.16
0.26
0.355
0.46
0.555
0.655
0.695
0.675
0.55
0.39
0.225
0.105
0.01
-0.03
-0.055
-0.07
-0.07
-0.065
-0.07
-0.065
-0.055
-0.055
-0.055
-0.055
-0.05
-0.055
-0.05
-0.05
-0.055
-0.05
-0.055
-0.065
-0.06
-0.07
-0.07
-0.075
-0.075
-0.08
-0.075
-0.085
-0.095
-0.085
-0.085
-0.1
-0.09
-0.1
-0.095
-0.11
-0.105
-0.11
-0.1
-0.13
-0.115
-0.125
-0.115
-0.14
-0.135
-0.155
-0.145
-0.155
-0.15
-0.17
-0.145
-0.12
-0.09
-0.11
-0.075
-0.14
-0.11
-0.17
-0.21
-0.255
-0.22
-0.245
-0.215
-0.28
-0.255
0.34
1.32
1.775
0.435
-0.105
-0.21
-0.17
-0.15
-0.2
-0.16
-0.18
-0.155
-0.155
-0.12
-0.13
-0.105
-0.1
-0.07
-0.07
-0.03
-0.015
0.035
0.07
0.145
0.215
0.31
0.41
0.525
0.61
0.705
0.72
0.67
0.52
0.35
0.205
0.1
0.02
-0.015
-0.035
-0.045
-0.05
-0.055
-0.055
-0.05
-0.06
-0.045
-0.05
-0.035
-0.045
-0.035
-0.045
-0.03
-0.05
-0.045
-0.045
-0.05
-0.05
-0.065
-0.065
-0.055
-0.075
-0.075
-0.075
-0.085
-0.09
-0.09
-0.1
-0.105
-0.11
-0.1
-0.12
-0.1
-0.115
-0.11
-0.125
-0.115
-0.14
-0.125
-0.13
-0.13
-0.15
-0.125
-0.16
-0.13
-0.12
-0.075
-0.09
-0.06
-0.11
-0.075
-0.15
-0.16
-0.245
-0.21
-0.235
-0.2
-0.235
-0.3
0.135
1.11
1.815
0.68
0.1
-0.205
-0.155
-0.125
-0.17
-0.15
-0.17
-0.12
-0.145
-0.115
-0.12
-0.085
-0.09
-0.055
-0.055
-0.015
0.0
0.04
0.075
0.15
0.195
0.29
0.385
0.515
0.605
0.705
0.74
0.71
0.57
0.395
0.24
0.115
0.035
-0.015
-0.045
-0.06
-0.055
-0.055
-0.07
-0.06
-0.055
-0.06
-0.07
-0.055
-0.05
-0.05
-0.055
-0.05
-0.055
-0.05
-0.07
-0.075
-0.07
-0.075
-0.085
-0.1
-0.08
-0.1
-0.11
-0.1
-0.11
-0.12
-0.11
-0.125
-0.125
-0.13
-0.125
-0.14
-0.14
-0.155
-0.145
-0.15
-0.15
-0.16
-0.15
-0.17
-0.155
-0.15
-0.105
-0.095
-0.105
-0.125
-0.1
-0.16
-0.2
-0.25
-0.24
-0.25
-0.24
-0.235
-0.32
-0.035
0.84
1.635
1.025
0.24
-0.19
-0.19
-0.155
-0.19
-0.17
-0.175
-0.155
-0.155
-0.14
-0.14
-0.12
-0.115
-0.095
-0.085
-0.065
-0.04
0.0
0.025
0.095
0.14
0.225
0.335
0.435
0.53
0.63
0.68
0.66
0.54
0.375
0.215
0.1
0.005
-0.04
-0.065
-0.075
-0.085
-0.085
-0.08
-0.08
-0.08
-0.075
-0.075
-0.08
-0.075
-0.07
-0.07
-0.075
-0.075
-0.08
-0.09
-0.085
-0.095
-0.1
-0.1
-0.1
-0.105
-0.095
-0.11
-0.11
-0.105
-0.12
-0.11
-0.12
-0.12
-0.12
-0.125
-0.125
-0.135
-0.135
-0.135
-0.145
-0.145
-0.145
-0.15
-0.14
-0.15
-0.135
-0.075
-0.07
-0.09
-0.065
-0.095
-0.085
-0.15
-0.2
-0.205
-0.205
-0.215
-0.185
-0.255
-0.115
0.645
1.56
1.54
0.395
-0.13
-0.14
-0.085
-0.105
-0.105
-0.095
-0.085
-0.08
-0.07
-0.05
-0.05
-0.025
-0.015
0.0
0.025
0.06
0.08
0.13
0.145
0.17
0.225
0.32
0.41
0.52
0.615
0.69
0.67
0.56
0.4
0.235
0.105
0.015
-0.04
-0.07
-0.08
-0.085
-0.085
-0.085
-0.09
-0.075
-0.08
-0.07
-0.05
-0.06
-0.055
-0.06
-0.04
-0.055
-0.05
-0.05
-0.06
-0.055
-0.055
-0.065
-0.065
-0.06
-0.07
-0.065
-0.065
-0.06
-0.07
-0.065
-0.07
-0.08
-0.065
-0.08
-0.085
-0.09
-0.09
-0.1
-0.095
-0.11
-0.105
-0.12
-0.11
-0.125
-0.12
-0.145
-0.13
-0.155
-0.125
-0.16
-0.14
-0.17
-0.155
-0.175
-0.145
-0.14
-0.105
-0.11
-0.09
-0.155
-0.11
-0.17
-0.21
-0.26
-0.235
-0.265
-0.235
-0.265
-0.325
0.12
1.095
1.78
0.615
0.025
-0.245
-0.19
-0.17
-0.21
-0.175
-0.2
-0.175
-0.195
-0.155
-0.17
-0.13
-0.145
-0.105
-0.11
-0.07
-0.05
-0.005
0.005
0.09
0.145
0.245
0.34
0.455
0.555
0.665
0.695
0.675
0.55
0.39
0.215
0.1
0.03
-0.015
-0.05
-0.055
-0.055
-0.06
-0.055
-0.06
-0.05
-0.04
-0.045
-0.04
-0.04
-0.035
-0.035
-0.04
-0.035
-0.045
-0.055
-0.04
-0.045
-0.06
-0.065
-0.07
-0.075
-0.07
-0.075
-0.07
-0.085
-0.09
-0.085
-0.095
-0.105
-0.11
-0.1
-0.115
-0.11
-0.12
-0.11
-0.13
-0.12
-0.135
-0.115
-0.14
-0.135
-0.145
-0.135
-0.16
-0.145
-0.165
-0.14
-0.135
-0.1
-0.115
-0.07
-0.145
-0.11
-0.17
-0.205
-0.25
-0.22
-0.255
-0.215
-0.25
-0.305
0.19
1.19
1.83
0.565
0.025
-0.205
-0.16
-0.14
-0.18
-0.145
-0.175
-0.145
-0.16
-0.13
-0.135
-0.095
-0.105
-0.06
-0.07
-0.025
-0.02
0.025
0.05
0.12
0.18
0.28
0.37
0.485
0.575
0.675
0.7
0.65
0.5
0.325
0.175
0.055
-0.015
-0.05
-0.08
-0.09
-0.095
-0.09
-0.095
-0.08
-0.08
-0.08
-0.075
-0.085
-0.08
-0.08
-0.08
-0.08
-0.08
-0.09
-0.09
-0.095
-0.085
-0.105
-0.1
-0.1
-0.11
-0.12
-0.115
-0.115
-0.115
-0.11
-0.115
-0.125
-0.115
-0.125
-0.12
-0.125
-0.12
-0.145
-0.14
-0.15
-0.135
-0.16
-0.155
-0.155
-0.15
-0.13
-0.11
-0.105
-0.095
-0.14
-0.1
-0.15
-0.185
-0.235
-0.225
-0.24
-0.215
-0.22
-0.3
-0.01
0.875
1.69
1.02
0.225
-0.19
-0.17
-0.15
-0.175
-0.155
-0.165
-0.145
-0.15
-0.12
-0.125
-0.105
-0.09
-0.09
-0.075
-0.045
-0.02
0.01
0.055
0.105
0.17
0.265
0.365
0.47
0.58
0.675
0.72
0.69
0.54
0.385
0.21
0.09
0.01
-0.045
-0.05
-0.085
-0.085
-0.08
-0.085
-0.08
-0.08
-0.06
-0.07
-0.055
-0.055
-0.05
-0.06
-0.045
-0.05
-0.07
-0.055
-0.055
-0.06
-0.065
-0.075
-0.08
-0.08
-0.085
-0.085
-0.085
-0.085
-0.08
-0.09
-0.085
-0.085
-0.095
-0.105
-0.1
-0.105
-0.105
-0.115
-0.11
-0.125
-0.12
-0.13
-0.14
-0.135
-0.13
-0.145
-0.14
-0.155
-0.135
-0.13
-0.09
-0.085
-0.09
-0.14
-0.095
-0.14
-0.185
-0.245
-0.235
-0.24
-0.215
-0.23
-0.305
-0.04
0.805
1.64
1.08
0.24
-0.19
-0.18
-0.15
-0.17
-0.155
-0.165
-0.14
-0.165
-0.13
-0.13
-0.115
-0.11
-0.08
-0.07
-0.045
-0.025
0.01
0.06
0.105
0.18
0.265
0.355
0.475
0.585
0.68
0.74
0.705
0.585
0.41
0.24
0.125
0.03
-0.005
-0.035
-0.04
-0.06
-0.06
-0.06
-0.055
-0.05
-0.05
-0.04
-0.03
-0.04
-0.025
-0.03
-0.035
-0.03
-0.035
-0.035
-0.04
-0.035
-0.04
-0.05
-0.04
-0.04
-0.055
-0.045
-0.05
-0.055
-0.06
-0.055
-0.055
-0.07
-0.07
-0.065
-0.07
-0.07
-0.065
-0.08
-0.095
-0.08
-0.09
-0.085
-0.1
-0.095
-0.105
-0.085
-0.12
-0.1
-0.115
-0.1
-0.125
-0.105
-0.14
-0.12
-0.13
-0.12
-0.1
-0.08
-0.095
-0.05
-0.115
-0.065
-0.145
-0.18
-0.235
-0.205
-0.235
-0.205
-0.23
-0.28
0.205
1.205
1.855
0.575
0.015
-0.205
-0.15
-0.135
-0.18
-0.145
-0.17
-0.14
-0.165
-0.135
-0.135
-0.095
-0.11
-0.07
-0.07
-0.025
-0.02
0.025
0.055
0.13
0.185
0.295
0.385
0.51
0.6
0.705
0.73
0.685
0.535
0.36
0.2
0.09
0.005
-0.035
-0.045
-0.065
-0.065
-0.075
-0.075
-0.055
-0.05
-0.055
-0.05
-0.045
-0.055
-0.055
-0.035
-0.045
-0.05
-0.045
-0.04
-0.045
-0.05
-0.05
-0.06
-0.065
-0.06
-0.055
-0.065
-0.065
-0.065
-0.06
-0.07
-0.07
-0.07
-0.085
-0.08
-0.085
-0.08
-0.095
-0.085
-0.085
-0.1
-0.095
-0.095
-0.115
-0.105
-0.115
-0.115
-0.12
-0.115
-0.12
-0.125
-0.125
-0.135
-0.13
-0.135
-0.14
-0.14
-0.155
-0.155
-0.16
-0.16
-0.14
-0.1
-0.095
-0.12
-0.115
-0.115
-0.14
-0.185
-0.245
-0.235
-0.225
-0.24
-0.23
-0.29
-0.1
0.705
1.565
1.28
0.28
-0.195
-0.195
-0.155
-0.18
-0.18
-0.165
-0.16
-0.16
-0.15
-0.14
-0.12
-0.1
-0.09
-0.075
-0.055
-0.025
-0.005
0.04
0.09
0.155
0.23
0.33
0.445
0.555
0.655
0.72
0.73
0.625
0.465
0.285
0.155
0.05
-0.005
-0.05
-0.065
-0.065
-0.065
-0.065
-0.06
-0.06
-0.05
-0.05
-0.05
-0.03
-0.035
-0.04
-0.035
-0.04
-0.04
-0.025
-0.04
-0.03
-0.04
-0.035
-0.045
-0.04
-0.045
-0.045
-0.04
-0.055
-0.05
-0.055
-0.04
-0.065
-0.06
-0.06
-0.06
-0.07
-0.07
-0.095
-0.08
-0.08
-0.075
-0.075
-0.085
-0.105
-0.08
-0.105
-0.095
-0.115
-0.1
-0.125
-0.12
-0.135
-0.125
-0.135
-0.125
-0.15
-0.13
-0.15
-0.13
-0.095
-0.08
-0.11
-0.065
-0.13
-0.1
-0.17
-0.21
-0.25
-0.215
-0.24
-0.195
-0.26
-0.25
0.35
1.32
1.79
0.445
-0.105
-0.21
-0.15
-0.155
-0.185
-0.155
-0.175
-0.14
-0.165
-0.13
-0.135
-0.09
-0.105
-0.07
-0.075
-0.025
-0.015
0.025
0.055
0.14
0.205
0.295
0.4
0.525
0.615
0.715
0.735
0.685
0.53
0.365
0.205
0.09
0.005
-0.03
-0.055
-0.06
-0.065
-0.06
-0.06
-0.055
-0.055
-0.05
-0.03
-0.035
-0.035
-0.025
-0.03
-0.025
-0.03
-0.025
-0.035
-0.03
-0.025
-0.03
-0.035
-0.035
-0.03
-0.03
-0.03
-0.035
-0.025
-0.03
-0.035
-0.035
-0.03
-0.04
-0.04
-0.04
-0.045
-0.045
-0.05
-0.05
-0.055
-0.065
-0.065
-0.065
-0.065
-0.065
-0.085
-0.08
-0.09
-0.075
-0.09
-0.09
-0.11
-0.105
-0.105
-0.115
-0.115
-0.12
-0.12
-0.13
-0.125
-0.135
-0.145
-0.14
-0.135
-0.13
-0.085
-0.075
-0.095
-0.105
-0.085
-0.13
-0.19
-0.24
-0.24
-0.235
-0.245
-0.235
-0.3
-0.11
0.71
1.56
1.255
0.285
-0.2
-0.19
-0.16
-0.165
-0.17
-0.17
-0.15
-0.15
-0.14
-0.115
-0.115
-0.095
-0.085
-0.065
-0.045
-0.02
0.0
0.055
0.1
0.15
0.245
0.34
0.455
0.57
0.66
0.74
0.75
0.67
0.505
0.34
0.205
0.085
0.02
-0.01
-0.02
-0.035
-0.025
-0.03
-0.02
-0.03
-0.02
-0.015
-0.02
-0.005
-0.01
0.0
0.0
-0.01
0.005
0.005
-0.005
-0.02
-0.005
0.0
-0.015
-0.015
-0.005
-0.015
-0.02
-0.025
-0.025
-0.025
-0.04
-0.03
-0.04
-0.025
-0.04
-0.055
-0.05
-0.05
-0.075
-0.06
-0.085
-0.055
-0.085
-0.085
-0.09
-0.105
-0.105
-0.105
-0.14
-0.12
-0.135
-0.135
-0.15
-0.11
-0.1
-0.075
-0.075
-0.06
-0.14
-0.11
-0.17
-0.22
-0.305
-0.275
-0.28
-0.255
-0.26
-0.33
0.045
1.01
1.75
0.77
0.155
-0.205
-0.17
-0.14
-0.18
-0.14
-0.175
-0.125
-0.155
-0.11
-0.125
-0.1
-0.095
-0.07
-0.06
-0.01
-0.005
0.03
0.05
0.115
0.18
0.27
0.37
0.485
0.56
0.685
0.715
0.7
0.565
0.39
0.24
0.105
0.01
-0.04
-0.075
-0.075
-0.085
-0.085
-0.08
-0.09
-0.1
-0.09
-0.09
-0.09
-0.085
-0.09
-0.09
-0.085
-0.09
-0.085
-0.09
-0.095
-0.09
-0.095
-0.095
-0.11
-0.115
-0.105
-0.12
-0.105
-0.135
-0.14
-0.145
-0.13
-0.16
-0.155
-0.165
-0.15
-0.17
-0.15
-0.18
-0.16
-0.18
-0.155
-0.135
-0.1
-0.12
-0.08
-0.145
-0.11
-0.18
-0.22
-0.265
-0.23
-0.27
-0.225
-0.26
-0.29
0.215
1.21
1.85
0.565
-0.01
-0.22
-0.17
-0.15
-0.195
-0.165
-0.185
-0.145
-0.16
-0.13
-0.14
-0.11
-0.125
-0.085
-0.07
-0.03
-0.025
0.025
0.05
0.135
0.18
0.29
0.4
0.525
0.605
0.71
0.72
0.655
0.495
0.315
0.165
0.06
-0.005
-0.055
-0.07
-0.08
-0.09
-0.09
-0.085
-0.08
-0.08
-0.07
-0.075
-0.055
-0.06
-0.05
-0.06
-0.07
-0.07
-0.06
-0.095
-0.1
-0.085
-0.1
-0.1
-0.095
-0.1
-0.11
-0.11
-0.11
-0.11
-0.105
-0.11
-0.12
-0.115
-0.095
-0.115
-0.115
-0.125
-0.13
-0.135
-0.12
-0.15
-0.15
-0.15
-0.155
-0.175
-0.16
-0.18
-0.155
-0.19
-0.17
-0.13
-0.095
-0.13
-0.08
-0.16
-0.11
-0.18
-0.21
-0.27
-0.225
-0.25
-0.225
-0.28
-0.25
0.325
1.3
1.925
0.505
-0.135
-0.23
-0.18
-0.165
-0.205
-0.2
-0.24
-0.145
-0.135
-0.19
-0.16
-0.09
-0.115
-0.08
-0.075
-0.04
-0.035
0.05
0.065
0.12
0.185
0.3
0.375
0.505
0.605
0.705
0.715
0.655
0.515
0.33
0.175
0.06
-0.01
-0.04
-0.075
-0.08
-0.09
-0.085
-0.08
-0.07
-0.065
-0.075
-0.05
-0.05
-0.05
-0.045
-0.035
-0.04
-0.04
-0.04
-0.045
-0.045
-0.04
-0.04
-0.04
-0.04
-0.055
-0.06
-0.055
-0.06
-0.06
-0.065
-0.065
-0.06
-0.06
-0.065
-0.08
-0.08
-0.085
-0.08
-0.08
-0.085
-0.1
-0.095
-0.1
-0.1
-0.105
-0.105
-0.115
-0.115
-0.13
-0.12
-0.145
-0.14
-0.15
-0.13
-0.15
-0.145
-0.16
-0.15
-0.165
-0.145
-0.11
-0.09
-0.115
-0.065
-0.13
-0.1
-0.16
-0.21
-0.245
-0.22
-0.25
-0.21
-0.275
-0.225
0.415
1.35
1.725
0.39
-0.13
-0.205
-0.165
-0.145
-0.175
-0.17
-0.185
-0.145
-0.18
-0.14
-0.14
-0.11
-0.12
-0.07
-0.075
-0.04
-0.015
0.035
0.065
0.135
0.215
0.305
0.415
0.52
0.62
0.7
0.72
0.645
0.5
0.33
0.17
0.06
-0.005
-0.04
-0.065
-0.065
-0.075
-0.07
-0.07
-0.075
-0.07
-0.07
-0.06
-0.06
-0.045
-0.055
-0.05
-0.055
-0.065
-0.055
-0.07
-0.08
-0.08
-0.07
-0.08
-0.08
-0.095
-0.085
-0.11
-0.105
-0.125
-0.12
-0.11
-0.115
-0.11
-0.125
-0.115
-0.115
-0.12
-0.12
-0.125
-0.13
-0.13
-0.14
-0.13
-0.145
-0.145
-0.145
-0.135
-0.165
-0.145
-0.165
-0.14
-0.17
-0.13
-0.125
-0.095
-0.115
-0.06
-0.125
-0.08
-0.155
-0.195
-0.245
-0.215
-0.24
-0.215
-0.27
-0.27
0.345
1.285
1.77
0.415
-0.1
-0.22
-0.17
-0.16
-0.2
-0.155
-0.185
-0.15
-0.175
-0.14
-0.15
-0.12
-0.12
-0.085
-0.075
-0.035
-0.025
0.02
0.055
0.125
0.195
0.295
0.39
0.51
0.62
0.71
0.72
0.655
0.505
0.345
0.175
0.07
-0.005
-0.035
-0.05
-0.06
-0.075
-0.07
-0.065
-0.07
-0.05
-0.055
-0.05
-0.04
-0.04
-0.04
-0.04
-0.04
-0.04
-0.04
-0.04
-0.04
-0.04
-0.05
-0.04
-0.05
-0.055
-0.045
-0.055
-0.065
-0.06
-0.055
-0.065
-0.065
-0.065
-0.065
-0.07
-0.085
-0.08
-0.085
-0.09
-0.095
-0.095
-0.1
-0.115
-0.11
-0.11
-0.115
-0.115
-0.135
-0.13
-0.145
-0.13
-0.145
-0.145
-0.165
-0.135
-0.135
-0.085
-0.08
-0.09
-0.12
-0.09
-0.135
-0.165
-0.24
-0.215
-0.23
-0.21
-0.22
-0.29
0.005
0.855
1.65
1.0
0.2
-0.19
-0.165
-0.155
-0.18
-0.165
-0.17
-0.15
-0.17
-0.135
-0.14
-0.115
-0.115
-0.085
-0.085
-0.05
-0.035
0.0
0.04
0.09
0.15
0.245
0.335
0.45
0.555
0.66
0.71
0.695
0.58
0.405
0.245
0.11
0.02
-0.03
-0.06
-0.075
-0.09
-0.08
-0.085
-0.09
-0.085
-0.085
-0.095
-0.08
-0.07
-0.075
-0.075
-0.07
-0.065
-0.07
-0.07
-0.075
-0.08
-0.09
-0.09
-0.08
-0.095
-0.095
-0.09
-0.1
-0.11
-0.11
-0.115
-0.12
-0.12
-0.125
-0.125
-0.13
-0.13
-0.125
-0.14
-0.13
-0.145
-0.135
-0.14
-0.095
-0.09
-0.095
-0.13
-0.095
-0.14
-0.17
-0.225
-0.215
-0.23
-0.22
-0.215
-0.3
-0.055
0.8
1.605
1.105
0.255
-0.185
-0.165
-0.145
-0.16
-0.16
-0.165
-0.16
-0.155
-0.145
-0.14
-0.115
-0.12
-0.1
-0.085
-0.045
-0.035
0.0
0.03
0.09
0.155
0.245
0.34
0.455
0.565
0.665
0.72
0.695
0.565
0.39
0.235
0.095
0.015
-0.035
-0.06
-0.065
-0.08
-0.085
-0.08
-0.08
-0.07
-0.075
-0.08
-0.065
-0.055
-0.05
-0.055
-0.055
-0.05
-0.06
-0.05
-0.055
-0.06
-0.06
-0.06
-0.065
-0.07
-0.075
-0.08
-0.085
-0.09
-0.08
-0.09
-0.095
-0.095
-0.08
-0.09
-0.1
-0.1
-0.11
-0.11
-0.12
-0.115
-0.12
-0.11
-0.13
-0.12
-0.145
-0.135
-0.145
-0.14
-0.155
-0.155
-0.15
-0.14
-0.095
-0.085
-0.115
-0.09
-0.115
-0.12
-0.185
-0.235
-0.245
-0.23
-0.235
-0.215
-0.28
-0.18
0.535
1.455
1.515
0.335
-0.17
-0.195
-0.145
-0.155
-0.17
-0.16
-0.165
-0.14
-0.15
-0.12
-0.12
-0.095
-0.08
-0.06
-0.045
-0.015
-0.005
0.045
0.085
0.16
0.235
0.335
0.44
0.55
0.645
0.735
0.735
0.64
0.485
0.315
0.165
0.06
-0.005
-0.045
-0.055
-0.065
-0.065
-0.07
-0.065
-0.06
-0.065
-0.065
-0.06
-0.055
-0.055
-0.065
-0.055
-0.06
-0.055
-0.065
-0.065
-0.075
-0.08
-0.07
-0.08
-0.08
-0.085
-0.075
-0.095
-0.095
-0.09
-0.095
-0.095
-0.115
-0.12
-0.12
-0.12
-0.125
-0.14
-0.125
-0.14
-0.14
-0.17
-0.15
-0.165
-0.15
-0.17
-0.165
-0.175
-0.16
-0.165
-0.15
-0.11
-0.11
-0.135
-0.115
-0.125
-0.135
-0.19
-0.235
-0.255
-0.225
-0.25
-0.23
-0.285
-0.215
0.47
1.405
1.585
0.35
-0.165
-0.205
-0.175
-0.165
-0.19
-0.17
-0.175
-0.14
-0.145
-0.13
-0.13
-0.1
-0.11
-0.07
-0.075
-0.03
-0.01
0.025
0.06
0.13
0.21
0.305
0.4
0.52
0.625
0.705
0.71
0.625
0.47
0.28
0.135
0.04
-0.02
-0.035
-0.045
-0.045
-0.05
-0.04
-0.025
-0.03
-0.02
-0.01
0.0
0.0
0.02
0.02
0.025
0.015
0.03
0.025
0.04
0.025
0.055
0.045
0.04
0.02
0.04
0.025
0.02
0.015
0.015
0.0
0.035
0.005
0.0
0.005
-0.01
-0.02
0.0
-0.025
-0.02
-0.025
-0.07
-0.02
-0.055
-0.025
-0.155
-0.005
-0.095
-0.01
-0.11
0.025
-0.075
-0.075
-0.05
-0.11
-0.19
-0.295
-0.26
-0.18
-0.22
-0.18
-0.35
-0.4
0.455
1.33
1.55
0.28
-0.485
-0.535
-0.385
-0.38
-0.29
-0.39
-0.345
-0.295
-0.31
-0.205
-0.21
-0.305
-0.115
-0.07
-0.09
-0.08
-0.045
-0.005
-0.015
0.1
0.14
0.3
0.32
0.48
0.635
0.76
0.77
0.67
0.52
0.28
0.105
0.055
-0.015
-0.13
-0.035
-0.075
-0.125
-0.12
-0.05
-0.125
-0.06
-0.13
-0.13
-0.045
-0.12
-0.06
-0.135
-0.125
-0.11
-0.04
-0.12
-0.095
-0.15
-0.15
-0.05
-0.15
-0.085
-0.105
-0.085
-0.155
-0.15
-0.12
-0.155
-0.07
-0.16
-0.105
-0.215
-0.155
-0.135
-0.11
-0.155
-0.085
-0.14
-0.16
-0.195
-0.145
-0.25
-0.23
-0.28
-0.245
-0.31
-0.385
0.045
1.145
1.96
0.71
0.1
-0.225
-0.2
-0.135
-0.15
-0.175
-0.185
-0.135
-0.17
-0.12
-0.145
-0.145
-0.105
-0.045
-0.015
-0.055
-0.01
0.04
0.07
0.155
0.18
0.35
0.415
0.58
0.65
0.78
0.8
0.675
0.575
0.325
0.205
0.04
0.03
-0.1
-0.03
-0.03
-0.145
-0.025
-0.145
-0.065
-0.115
-0.03
-0.055
-0.105
-0.09
-0.07
-0.06
-0.035
-0.095
-0.075
-0.075
-0.075
-0.07
-0.105
-0.135
-0.105
-0.065
-0.105
-0.08
-0.14
-0.115
-0.135
-0.11
-0.14
-0.06
-0.14
-0.11
-0.135
-0.12
-0.135
-0.145
-0.12
-0.11
-0.11
-0.045
-0.085
-0.12
-0.13
-0.19
-0.22
-0.17
-0.215
-0.205
-0.235
-0.2
0.485
1.615
1.925
0.47
-0.12
-0.16
-0.16
-0.195
-0.155
-0.18
-0.155
-0.155
-0.155
-0.14
-0.155
-0.075
-0.15
-0.085
-0.035
0.0
-0.015
0.04
0.065
0.135
0.25
0.32
0.455
0.58
0.68
0.785
0.715
0.61
0.44
0.235
0.135
0.005
-0.04
-0.04
-0.07
-0.04
-0.095
-0.075
-0.085
-0.085
-0.09
-0.08
-0.095
-0.09
-0.045
-0.09
-0.1
-0.075
-0.09
-0.075
-0.075
-0.095
-0.11
-0.075
-0.105
-0.12
-0.1
-0.125
-0.095
-0.115
-0.1
-0.1
-0.105
-0.095
-0.09
-0.105
-0.105
-0.12
-0.125
-0.13
-0.12
-0.155
-0.155
-0.17
-0.155
-0.17
-0.17
-0.15
-0.14
-0.165
-0.135
-0.215
-0.19
-0.23
-0.265
-0.325
-0.295
-0.315
-0.29
-0.35
-0.24
0.515
1.465
1.54
0.245
-0.23
-0.195
-0.155
-0.145
-0.12
-0.125
-0.16
-0.08
-0.055
-0.135
-0.15
-0.145
-0.14
-0.115
-0.09
-0.055
-0.035
0.005
0.065
0.13
0.2
0.3
0.415
0.52
0.61
0.695
0.69
0.61
0.44
0.27
0.11
0.015
-0.05
-0.095
-0.11
-0.105
-0.115
-0.1
-0.105
-0.095
-0.1
-0.095
-0.1
-0.105
-0.1
-0.1
-0.09
-0.09
-0.105
-0.115
-0.095
-0.115
-0.1
-0.115
-0.12
-0.125
-0.12
-0.135
-0.14
-0.135
-0.14
-0.155
-0.14
-0.165
-0.155
-0.175
-0.16
-0.18
-0.155
-0.18
-0.165
-0.175
-0.17
-0.15
-0.11
-0.135
-0.085
-0.17
-0.125
-0.165
-0.19
-0.25
-0.23
-0.25
-0.225
-0.275
-0.245
0.425
1.395
1.77
0.365
-0.14
-0.205
-0.145
-0.145
-0.175
-0.145
-0.165
-0.13
-0.15
-0.11
-0.125
-0.105
-0.14
-0.125
-0.08
-0.04
-0.03
0.04
0.1
0.17
0.2
0.3
0.42
0.56
0.635
0.725
0.71
0.63
0.46
0.295
0.135
0.04
-0.015
-0.07
-0.07
-0.07
-0.085
-0.08
-0.075
-0.075
-0.105
-0.095
-0.085
-0.085
-0.08
-0.08
-0.06
-0.08
-0.065
-0.09
-0.085
-0.09
-0.09
-0.08
-0.1
-0.095
-0.095
-0.1
-0.12
-0.115
-0.1
-0.11
-0.12
-0.125
-0.125
-0.125
-0.14
-0.13
-0.145
-0.14
-0.15
-0.13
-0.155
-0.12
-0.145
-0.095
-0.1
-0.07
-0.15
-0.105
-0.155
-0.17
-0.255
-0.23
-0.235
-0.23
-0.23
-0.305
0.035
1.025
1.805
0.82
0.125
-0.205
-0.145
-0.145
-0.16
-0.145
-0.165
-0.145
-0.155
-0.12
-0.125
-0.12
-0.105
-0.075
-0.07
-0.035
-0.025
0.02
0.06
0.125
0.18
0.295
0.4
0.495
0.6
0.705
0.745
0.7
0.55
0.375
0.22
0.09
0.02
-0.03
-0.06
-0.055
-0.095
-0.075
-0.075
-0.08
-0.07
-0.08
-0.07
-0.07
-0.07
-0.08
-0.08
-0.07
-0.08
-0.085
-0.095
-0.095
-0.1
-0.105
-0.1
-0.105
-0.105
-0.115
-0.115
-0.1
-0.13
-0.12
-0.13
-0.13
-0.135
-0.14
-0.13
-0.125
-0.15
-0.14
-0.155
-0.135
-0.145
-0.14
-0.13
-0.09
-0.1
-0.07
-0.175
-0.1
-0.15
-0.18
-0.245
-0.22
-0.245
-0.215
-0.24
-0.325
0.085
1.095
1.81
0.69
0.08
-0.215
-0.17
-0.15
-0.18
-0.165
-0.18
-0.15
-0.15
-0.13
-0.14
-0.105
-0.12
-0.08
-0.055
-0.035
-0.025
0.035
0.055
0.125
0.18
0.285
0.375
0.48
0.58
0.68
0.72
0.645
0.505
0.34
0.19
0.085
0.0
-0.04
-0.065
-0.07
-0.08
-0.08
-0.09
-0.09
-0.075
-0.07
-0.075
-0.08
-0.08
-0.08
-0.08
-0.085
-0.085
-0.1
-0.1
-0.095
-0.11
-0.11
-0.11
-0.115
-0.105
-0.13
-0.115
-0.125
-0.115
-0.13
-0.13
-0.15
-0.14
-0.16
-0.14
-0.16
-0.15
-0.185
-0.155
-0.175
-0.17
-0.155
-0.105
-0.145
-0.095
-0.175
-0.12
-0.17
-0.185
-0.24
-0.215
-0.24
-0.205
-0.24
-0.275
0.285
1.3
1.9
0.495
-0.03
-0.195
-0.14
-0.135
-0.175
-0.135
-0.16
-0.115
-0.135
-0.095
-0.125
-0.08
-0.085
-0.045
-0.045
-0.005
0.0
0.06
0.095
0.175
0.235
0.34
0.425
0.55
0.63
0.725
0.745
0.655
0.49
0.335
0.185
0.08
0.01
-0.02
-0.035
-0.06
-0.055
-0.05
-0.055
-0.05
-0.05
-0.045
-0.05
-0.05
-0.04
-0.05
-0.05
-0.05
-0.08
-0.075
-0.07
-0.075
-0.085
-0.095
-0.08
-0.095
-0.1
-0.1
-0.1
-0.115
-0.105
-0.11
-0.105
-0.105
-0.075
-0.11
-0.105
-0.12
-0.115
-0.12
-0.14
-0.145
-0.14
-0.17
-0.14
-0.15
-0.14
-0.1
-0.095
-0.105
-0.095
-0.14
-0.13
-0.19
-0.235
-0.245
-0.255
-0.27
-0.24
-0.305
-0.235
0.48
1.46
1.67
0.315
-0.205
-0.22
-0.18
-0.185
-0.195
-0.17
-0.175
-0.16
-0.17
-0.135
-0.145
-0.125
-0.135
-0.08
-0.08
-0.04
-0.025
0.025
0.065
0.145
0.22
0.32
0.42
0.53
0.615
0.69
0.695
0.59
0.415
0.26
0.12
0.02
-0.03
-0.055
-0.07
-0.085
-0.08
-0.08
-0.08
-0.075
-0.07
-0.08
-0.08
-0.08
-0.075
-0.065
-0.07
-0.07
-0.07
-0.085
-0.08
-0.075
-0.085
-0.085
-0.09
-0.095
-0.105
-0.105
-0.11
-0.125
-0.12
-0.125
-0.12
-0.125
-0.135
-0.135
-0.14
-0.14
-0.145
-0.165
-0.155
-0.16
-0.165
-0.165
-0.16
-0.165
-0.16
-0.11
-0.11
-0.12
-0.12
-0.125
-0.14
-0.19
-0.235
-0.245
-0.24
-0.24
-0.235
-0.315
-0.13
0.695
1.555
1.28
0.275
-0.2
-0.19
-0.15
-0.17
-0.165
-0.17
-0.17
-0.155
-0.155
-0.135
-0.125
-0.105
-0.095
-0.08
-0.055
-0.03
0.005
0.03
0.09
0.165
0.24
0.34
0.44
0.545
0.655
0.705
0.68
0.57
0.39
0.225
0.1
0.015
-0.03
-0.065
-0.08
-0.08
-0.09
-0.085
-0.085
-0.09
-0.09
-0.09
-0.085
-0.085
-0.08
-0.09
-0.085
-0.09
-0.09
-0.09
-0.095
-0.095
-0.085
-0.1
-0.11
-0.11
-0.1
-0.1
-0.11
-0.105
-0.11
-0.12
-0.115
-0.135
-0.11
-0.145
-0.13
-0.15
-0.14
-0.15
-0.14
-0.155
-0.145
-0.145
-0.155
-0.11
-0.095
-0.115
-0.08
-0.145
-0.1
-0.16
-0.205
-0.235
-0.205
-0.24
-0.21
-0.275
-0.24
0.43
1.41
1.735
0.375
-0.14
-0.2
-0.145
-0.145
-0.17
-0.145
-0.155
-0.135
-0.14
-0.105
-0.12
-0.09
-0.085
-0.055
-0.06
-0.015
0.0
0.055
0.09
0.16
0.225
0.34
0.43
0.535
0.63
0.71
0.695
0.6
0.435
0.28
0.135
0.05
-0.015
-0.05
-0.06
-0.07
-0.075
-0.075
-0.07
-0.07
-0.075
-0.07
-0.055
-0.06
-0.055
-0.06
-0.06
-0.06
-0.06
-0.075
-0.075
-0.07
-0.075
-0.085
-0.08
-0.085
-0.095
-0.09
-0.1
-0.1
-0.105
-0.1
-0.115
-0.12
-0.12
-0.11
-0.13
-0.12
-0.135
-0.13
-0.145
-0.13
-0.145
-0.135
-0.17
-0.155
-0.165
-0.14
-0.12
-0.1
-0.125
-0.08
-0.165
-0.105
-0.17
-0.205
-0.26
-0.23
-0.265
-0.23
-0.245
-0.32
0.16
1.165
1.84
0.57
0.0
-0.21
-0.17
-0.14
-0.18
-0.15
-0.17
-0.14
-0.16
-0.12
-0.135
-0.09
-0.105
-0.065
-0.08
-0.025
-0.015
0.03
0.065
0.13
0.2
0.31
0.4
0.51
0.605
0.685
0.72
0.645
0.495
0.34
0.18
0.08
0.0
-0.03
-0.045
-0.055
-0.075
-0.07
-0.065
-0.065
-0.06
-0.055
-0.055
-0.045
-0.05
-0.045
-0.045
-0.045
-0.06
-0.05
-0.06
-0.06
-0.065
-0.07
-0.06
-0.07
-0.07
-0.07
-0.07
-0.09
-0.09
-0.09
-0.085
-0.1
-0.1
-0.105
-0.105
-0.105
-0.115
-0.13
-0.11
-0.125
-0.125
-0.125
-0.135
-0.145
-0.14
-0.145
-0.16
-0.16
-0.14
-0.15
-0.135
-0.11
-0.095
-0.11
-0.14
-0.12
-0.14
-0.2
-0.24
-0.245
-0.235
-0.25
-0.23
-0.3
-0.14
0.645
1.53
1.34
0.285
-0.195
-0.19
-0.16
-0.17
-0.175
-0.165
-0.16
-0.165
-0.145
-0.135
-0.13
-0.11
-0.095
-0.075
-0.05
-0.025
0.005
0.05
0.09
0.175
0.25
0.35
0.455
0.57
0.66
0.72
0.695
0.58
0.43
0.265
0.125
0.035
-0.005
-0.025
-0.06
-0.06
-0.06
-0.065
-0.065
-0.065
-0.055
-0.055
-0.055
-0.045
-0.045
-0.045
-0.035
-0.05
-0.045
-0.045
-0.055
-0.045
-0.05
-0.055
-0.055
-0.06
-0.055
-0.07
-0.055
-0.07
-0.065
-0.07
-0.075
-0.08
-0.08
-0.085
-0.09
-0.09
-0.09
-0.095
-0.095
-0.1
-0.095
-0.105
-0.095
-0.105
-0.105
-0.11
-0.1
-0.12
-0.105
-0.135
-0.115
-0.14
-0.125
-0.15
-0.14
-0.15
-0.145
-0.115
-0.1
-0.125
-0.065
-0.145
-0.115
-0.175
-0.21
-0.255
-0.23
-0.26
-0.23
-0.26
-0.31
0.165
1.17
1.815
0.525
-0.025
-0.225
-0.165
-0.15
-0.19
-0.16
-0.175
-0.135
-0.16
-0.115
-0.135
-0.085
-0.1
-0.06
-0.075
-0.03
-0.005
0.04
0.05
0.13
0.2
0.305
0.385
0.505
0.605
0.695
0.72
0.68
0.53
0.355
0.2
0.09
0.01
-0.025
-0.045
-0.06
-0.06
-0.06
-0.06
-0.055
-0.055
-0.05
-0.06
-0.065
-0.04
-0.04
-0.045
-0.045
-0.045
-0.045
-0.045
-0.055
-0.055
-0.055
-0.05
-0.065
-0.065
-0.065
-0.065
-0.065
-0.06
-0.07
-0.08
-0.085
-0.08
-0.085
-0.095
-0.085
-0.09
-0.1
-0.095
-0.105
-0.11
-0.105
-0.105
-0.115
-0.11
-0.125
-0.12
-0.14
-0.12
-0.14
-0.14
-0.145
-0.14
-0.145
-0.145
-0.105
-0.1
-0.115
-0.08
-0.14
-0.13
-0.165
-0.21
-0.24
-0.215
-0.24
-0.22
-0.29
-0.18
0.535
1.455
1.505
0.31
-0.175
-0.205
-0.155
-0.155
-0.18
-0.16
-0.16
-0.15
-0.14
-0.115
-0.115
-0.085
-0.085
-0.065
-0.045
-0.02
0.0
0.045
0.1
0.165
0.23
0.34
0.45
0.57
0.665
0.74
0.73
0.64
0.455
0.295
0.165
0.045
0.0
-0.03
-0.055
-0.055
-0.07
-0.055
-0.07
-0.045
-0.055
-0.055
-0.05
-0.055
-0.05
-0.05
-0.045
-0.05
-0.055
-0.065
-0.055
-0.06
-0.055
-0.065
-0.07
-0.075
-0.065
-0.065
-0.075
-0.07
-0.065
-0.075
-0.09
-0.08
-0.09
-0.095
-0.095
-0.1
-0.105
-0.105
-0.105
-0.11
-0.125
-0.125
-0.135
-0.125
-0.145
-0.145
-0.15
-0.15
-0.16
-0.17
-0.17
-0.165
-0.15
-0.12
-0.115
-0.105
-0.145
-0.125
-0.165
-0.205
-0.26
-0.245
-0.25
-0.24
-0.235
-0.325
-0.075
0.785
1.605
1.065
0.205
-0.215
-0.2
-0.16
-0.19
-0.18
-0.185
-0.17
-0.165
-0.15
-0.145
-0.12
-0.13
-0.1
-0.095
-0.06
-0.05
-0.015
0.02
0.08
0.145
0.23
0.33
0.44
0.55
0.65
0.71
0.68
0.56
0.39
0.24
0.105
0.01
-0.03
-0.065
-0.07
-0.09
-0.085
-0.08
-0.075
-0.08
-0.06
-0.065
-0.055
-0.05
-0.05
-0.05
-0.035
-0.04
-0.045
-0.045
-0.05
-0.055
-0.06
-0.06
-0.055
-0.055
-0.06
-0.06
-0.07
-0.06
-0.06
-0.06
-0.055
-0.06
-0.07
-0.07
-0.07
-0.075
-0.075
-0.09
-0.085
-0.095
-0.095
-0.095
-0.095
-0.1
-0.1
-0.105
-0.11
-0.12
-0.115
-0.12
-0.12
-0.14
-0.125
-0.145
-0.135
-0.155
-0.14
-0.17
-0.155
-0.17
-0.15
-0.13
-0.11
-0.125
-0.085
-0.17
-0.12
-0.17
-0.205
-0.27
-0.22
-0.26
-0.215
-0.265
-0.29
0.28
1.275
1.82
0.44
-0.1
-0.22
-0.165
-0.155
-0.2
-0.16
-0.18
-0.155
-0.175
-0.145
-0.135
-0.115
-0.115
-0.075
-0.08
-0.04
-0.02
0.025
0.06
0.135
0.195
0.315
0.4
0.515
0.615
0.71
0.73
0.675
0.51
0.345
0.195
0.085
0.005
-0.03
-0.055
-0.065
-0.08
-0.06
-0.065
-0.065
-0.065
-0.055
-0.055
-0.035
-0.03
-0.03
-0.025
-0.025
-0.025
-0.03
-0.025
-0.025
-0.035
-0.03
-0.035
-0.04
-0.025
-0.04
-0.035
-0.04
-0.04
-0.045
-0.04
-0.04
-0.05
-0.05
-0.05
-0.055
-0.055
-0.055
-0.06
-0.065
-0.07
-0.07
-0.075
-0.065
-0.08
-0.07
-0.1
-0.09
-0.09
-0.1
-0.105
-0.095
-0.11
-0.115
-0.13
-0.11
-0.125
-0.115
-0.145
-0.11
-0.145
-0.125
-0.155
-0.125
-0.115
-0.085
-0.095
-0.065
-0.13
-0.095
-0.155
-0.195
-0.255
-0.225
-0.24
-0.205
-0.245
-0.285
0.23
1.24
1.865
0.515
-0.025
-0.21
-0.15
-0.13
-0.17
-0.14
-0.175
-0.12
-0.15
-0.105
-0.115
-0.09
-0.105
-0.055
-0.065
-0.02
-0.005
0.04
0.06
0.14
0.2
0.305
0.405
0.52
0.625
0.735
0.735
0.695
0.565
0.385
0.215
0.105
0.0
-0.02
-0.06
-0.075
-0.09
-0.085
-0.085
-0.085
-0.07
-0.07
-0.07
-0.07
-0.06
-0.065
-0.07
-0.065
-0.055
-0.06
-0.07
-0.06
-0.065
-0.075
-0.075
-0.075
-0.08
-0.08
-0.1
-0.095
-0.1
-0.105
-0.105
-0.11
-0.12
-0.12
-0.135
-0.125
-0.135
-0.13
-0.15
-0.145
-0.16
-0.16
-0.165
-0.155
-0.175
-0.17
-0.185
-0.17
-0.16
-0.115
-0.115
-0.11
-0.14
-0.105
-0.155
-0.21
-0.255
-0.24
-0.25
-0.255
-0.255
-0.325
-0.025
0.865
1.66
0.99
0.185
-0.215
-0.185
-0.165
-0.195
-0.17
-0.195
-0.155
-0.17
-0.145
-0.14
-0.115
-0.12
-0.09
-0.08
-0.06
-0.03
0.0
0.035
0.095
-0.12
-0.105
-0.1
-0.075
-0.055
-0.015
-0.01
0.06
0.085
0.165
0.23
0.3
0.335
0.355
0.3
0.21
0.125
0.035
-0.04
-0.075
-0.11
-0.12
-0.14
-0.14
-0.135
-0.14
-0.145
-0.135
-0.13
-0.145
-0.13
-0.135
-0.11
-0.14
-0.115
-0.14
-0.13
-0.155
-0.135
-0.16
-0.14
-0.125
-0.075
-0.15
-0.08
-0.115
-0.09
-0.165
-0.18
-0.23
-0.195
-0.21
-0.185
-0.205
-0.29
0.19
1.155
1.905
0.755
0.095
-0.16
-0.095
-0.085
-0.13
-0.095
-0.11
-0.085
-0.11
-0.075
-0.09
-0.05
-0.065
-0.025
-0.03
0.015
0.04
0.095
0.135
0.21
0.26
0.335
0.39
0.395
0.36
0.29
0.18
0.095
0.01
-0.03
-0.05
-0.07
-0.075
-0.085
-0.09
-0.085
-0.095
-0.095
-0.075
-0.085
-0.085
-0.095
-0.07
-0.095
-0.08
-0.1
-0.07
-0.12
-0.1
-0.12
-0.105
-0.065
-0.035
-0.1
-0.06
-0.09
-0.06
-0.13
-0.17
-0.19
-0.195
-0.21
-0.185
-0.21
-0.28
0.11
1.02
1.795
0.805
0.12
-0.185
-0.12
-0.105
-0.145
-0.125
-0.14
-0.115
-0.13
-0.095
-0.12
-0.08
-0.095
-0.06
-0.06
-0.02
0.0
0.06
0.095
0.17
0.235
0.31
0.355
0.395
0.355
0.285
0.185
0.08
0.0
-0.04
-0.085
-0.095
-0.11
-0.1
-0.11
-0.1
-0.09
-0.115
-0.125
-0.105
-0.11
-0.1
-0.115
-0.11
-0.11
-0.12
-0.125
-0.08
-0.045
-0.035
-0.02
0.03
-0.01
0.02
-0.025
-0.145
-0.215
-0.2
-0.215
-0.215
-0.225
-0.2
-0.27
-0.205
0.42
1.36
1.625
0.46
-0.115
-0.205
-0.15
-0.15
-0.175
-0.16
-0.17
-0.155
-0.17
-0.145
-0.135
-0.135
-0.125
-0.095
-0.075
-0.045
-0.015
0.05
0.1
0.175
0.235
0.295
0.345
0.345
0.28
0.2
0.09
0.005
-0.045
-0.09
-0.105
-0.125
-0.125
-0.12
-0.125
-0.135
-0.125
-0.12
-0.12
-0.135
-0.125
-0.13
-0.12
-0.135
-0.12
-0.07
-0.03
-0.015
0.025
0.005
0.03
-0.025
-0.165
-0.21
-0.21
-0.23
-0.215
-0.23
-0.215
-0.295
-0.185
0.485
1.425
1.48
0.43
-0.125
-0.215
-0.155
-0.155
-0.18
-0.18
-0.185
-0.15
-0.175
-0.145
-0.14
-0.12
-0.105
-0.07
-0.065
-0.055
-0.03
0.045
0.11
0.175
0.185
0.27
0.325
0.38
0.265
0.085
0.0
-0.015
-0.11
-0.15
-0.15
-0.12
-0.095
-0.23
-0.15
-0.18
-0.18
-0.16
-0.19
-0.16
-0.15
-0.14
-0.18
-0.17
-0.14
-0.045
-0.1
-0.015
-0.03
0.055
-0.025
-0.08
-0.205
-0.13
-0.16
-0.12
-0.155
-0.115
-0.155
-0.22
0.215
1.175
1.91
0.795
0.125
-0.155
-0.095
-0.085
-0.105
-0.105
-0.12
-0.15
-0.09
-0.15
-0.14
-0.145
-0.16
-0.09
-0.11
-0.085
-0.035
0.015
0.025
0.17
0.165
0.225
0.255
0.26
0.25
0.175
0.045
0.0
-0.125
-0.13
-0.115
-0.11
-0.19
-0.155
-0.195
-0.165
-0.175
-0.215
-0.165
-0.17
-0.17
-0.095
-0.205
-0.16
-0.155
-0.13
-0.115
-0.125
-0.075
-0.015
-0.085
-0.27
-0.295
-0.27
-0.38
-0.32
-0.345
-0.22
-0.295
-0.465
0.015
1.045
1.645
0.51
-0.07
-0.405
-0.325
-0.29
-0.305
-0.29
-0.56
-0.53
-0.505
-0.365
-0.38
-0.355
-0.34
-0.275
-0.285
-0.19
-0.22
-0.125
-0.095
-0.06
0.02
0.09
0.155
0.13
0.165
0.045
0.0
-0.045
-0.125
-0.135
-0.14
-0.17
-0.145
-0.12
-0.11
-0.105
-0.15
-0.07
-0.06
-0.065
-0.025
-0.035
-0.04
0.0
0.055
0.07
0.095
0.045
0.11
0.035
-0.095
-0.16
-0.2
-0.095
-0.055
-0.075
-0.04
-0.125
-0.065
0.525
1.345
1.645
0.57
-0.005
-0.175
-0.1
-0.08
-0.11
-0.105
-0.165
-0.09
-0.125
-0.165
-0.145
-0.11
-0.135
-0.1
-0.145
-0.055
-0.07
-0.07
0.08
0.075
0.11
0.12
0.16
0.155
0.115
0.05
-0.075
-0.055
-0.155
-0.15
-0.24
-0.21
-0.195
-0.185
-0.235
-0.18
-0.21
-0.17
-0.185
-0.18
-0.125
-0.205
-0.055
-0.045
-0.015
-0.055
0.035
0.035
-0.015
-0.175
-0.215
-0.18
-0.23
-0.225
-0.17
-0.135
-0.215
-0.125
0.55
1.18
1.495
0.56
-0.18
-0.13
-0.065
-0.01
-0.07
-0.055
-0.005
0.08
0.105
0.08
0.15
0.225
0.145
0.18
0.15
0.2
0.13
0.14
0.2
0.255
0.345
0.39
0.415
0.43
0.315
0.17
0.065
-0.025
-0.085
-0.045
-0.105
-0.1
-0.165
-0.14
-0.195
-0.16
-0.2
-0.195
-0.16
-0.24
-0.17
-0.125
-0.115
-0.115
-0.155
-0.13
-0.175
-0.12
-0.275
-0.37
-0.395
-0.345
-0.48
-0.44
-0.375
-0.47
-0.385
-0.445
-0.315
0.475
1.525
0.745
0.155
-0.32
-0.245
-0.24
-0.31
-0.415
-0.445
-0.405
-0.39
-0.205
-0.2
-0.475
-0.4
-0.34
-0.23
-0.305
-0.325
0.19
0.01
0.165
0.3
0.125
0.315
0.3
0.32
0.29
-0.05
0.265
0.075
0.12
-0.15
-0.185
-0.12
-0.055
-0.2
-0.045
-0.06
-0.14
-0.065
-0.22
-0.225
-0.355
-0.375
-0.345
-0.235
-0.145
-0.135
-0.08
-0.04
-0.01
-0.09
-0.215
-0.255
-0.245
-0.245
-0.165
-0.175
-0.145
-0.17
-0.12
0.55
1.505
1.755
0.535
-0.06
-0.15
-0.125
-0.095
-0.125
-0.065
-0.105
-0.14
-0.17
-0.145
-0.145
-0.135
-0.17
-0.14
-0.125
-0.035
-0.03
0.02
0.115
0.06
0.165
0.2
0.23
0.19
0.21
0.075
0.035
-0.055
-0.085
-0.14
-0.22
-0.145
-0.25
-0.205
-0.225
-0.265
-0.29
-0.33
-0.295
-0.315
-0.255
-0.235
-0.165
-0.08
-0.215
-0.19
-0.19
-0.2
-0.3
-0.525
-0.52
-0.545
-0.585
-0.65
-0.665
-0.635
-0.74
-0.665
0.03
0.745
0.815
-0.095
-0.645
-0.815
-0.7
-0.67
-0.66
-0.56
-0.51
-0.435
-0.485
-0.545
-0.525
-0.525
-0.485
-0.49
-0.545
-0.445
-0.455
-0.435
-0.385
-0.33
-0.175
-0.035
-0.08
-0.025
-0.135
-0.08
-0.26
-0.27
-0.195
-0.275
-0.345
-0.34
-0.355
-0.39
-0.475
-0.545
-0.56
-0.59
-0.64
-0.61
-0.66
-0.54
-0.55
-0.455
-0.505
-0.455
-0.38
-0.425
-0.34
-0.435
-0.61
-0.48
-0.515
-0.62
-0.585
-0.565
-0.485
-0.55
-0.09
0.76
1.465
0.375
-0.13
-0.385
-0.365
-0.325
-0.35
-0.355
-0.38
-0.3
-0.35
-0.255
-0.375
-0.235
-0.3
-0.225
-0.2
-0.18
-0.135
-0.08
-0.04
0.065
0.17
0.19
0.25
0.255
0.22
0.125
0.03
-0.045
-0.15
-0.145
-0.16
-0.165
-0.155
-0.17
-0.19
-0.205
-0.145
-0.105
-0.19
-0.16
-0.185
-0.135
-0.135
-0.085
-0.07
0.0
-0.04
-0.01
-0.05
-0.145
-0.205
-0.205
-0.27
-0.24
-0.27
-0.19
-0.26
-0.235
0.33
1.175
1.73
0.555
-0.005
-0.175
-0.115
-0.08
-0.165
-0.145
-0.125
-0.115
-0.085
-0.1
-0.075
-0.065
-0.095
-0.045
-0.05
-0.065
-0.005
0.075
0.125
0.185
0.205
0.26
0.26
0.295
0.215
0.155
0.065
-0.005
-0.065
-0.055
-0.08
-0.07
-0.09
-0.105
-0.07
-0.095
-0.085
-0.085
0.0
-0.07
-0.05
-0.025
-0.05
-0.005
0.035
0.025
0.06
-0.015
-0.1
-0.185
-0.12
-0.185
-0.215
-0.175
-0.15
-0.225
-0.23
0.385
1.28
1.695
0.565
0.025
-0.09
-0.13
-0.07
-0.155
0.005
-0.11
-0.295
-0.195
-0.14
-0.135
-0.04
-0.14
-0.07
-0.055
-0.015
0.02
0.115
0.065
0.06
0.14
0.275
0.465
0.16
0.16
0.18
0.165
0.125
0.095
0.115
-0.01
0.02
0.025
0.055
0.055
0.095
0.115
0.13
0.135
0.06
0.06
0.035
0.07
0.09
0.14
0.145
0.13
0.035
-0.07
-0.1
-0.085
-0.135
-0.15
-0.135
-0.07
-0.125
0.025
0.65
1.37
1.66
0.585
0.075
-0.14
-0.01
-0.055
-0.08
0.02
-0.085
-0.04
-0.045
0.06
-0.12
-0.085
-0.045
0.025
0.015
0.07
0.13
0.19
0.26
0.315
0.32
0.345
0.405
0.365
0.27
0.205
0.155
0.055
0.06
-0.005
-0.015
-0.015
0.0
-0.01
0.0
-0.015
-0.005
0.0
0.005
-0.015
0.015
0.045
0.08
0.085
0.135
0.095
0.16
0.105
0.015
-0.085
-0.085
-0.12
-0.1
-0.13
-0.09
-0.115
-0.22
0.165
1.035
1.805
1.005
0.345
0.0
0.035
0.005
-0.055
-0.03
-0.04
-0.01
-0.02
0.005
0.0
0.005
-0.005
0.035
0.04
0.085
0.095
0.15
0.195
0.27
0.31
0.38
0.41
0.42
0.36
0.27
0.17
0.11
0.03
0.015
-0.01
0.0
-0.025
-0.005
-0.025
-0.01
-0.02
-0.005
-0.02
-0.005
-0.03
0.01
0.04
0.07
0.075
0.13
0.095
0.14
0.07
-0.015
-0.105
-0.095
-0.13
-0.1
-0.13
-0.095
-0.14
-0.22
0.225
1.155
1.925
0.81
0.165
-0.105
-0.06
-0.05
-0.105
-0.06
-0.1
-0.065
-0.08
-0.05
-0.06
-0.025
-0.035
0.0
0.0
0.035
0.065
0.125
0.145
0.215
0.26
0.34
0.37
0.375
0.31
0.23
0.125
0.09
0.06
0.095
0.095
0.07
0.005
-0.005
-0.045
-0.04
-0.06
-0.045
-0.05
-0.035
-0.065
-0.06
-0.085
-0.07
-0.025
0.025
0.03
0.09
0.055
0.105
0.04
-0.05
-0.15
-0.13
-0.17
-0.135
-0.175
-0.135
-0.17
-0.265
0.165
1.105
1.885
0.825
0.175
-0.135
-0.105
-0.085
-0.13
-0.105
-0.13
-0.1
-0.125
-0.09
-0.1
-0.055
-0.075
-0.035
-0.035
0.0
0.02
0.085
0.12
0.195
0.24
0.315
0.35
0.36
0.3
0.225
0.125
0.05
-0.005
-0.045
-0.045
-0.07
-0.07
-0.075
-0.065
-0.09
-0.075
-0.085
-0.07
-0.085
-0.075
-0.095
-0.085
-0.1
-0.065
-0.035
-0.005
0.005
0.07
0.06
0.055
-0.015
-0.13
-0.17
-0.155
-0.185
-0.165
-0.2
-0.16
-0.225
-0.22
0.395
1.34
1.74
0.565
-0.025
-0.2
-0.125
-0.12
-0.15
-0.135
-0.145
-0.13
-0.125
-0.1
-0.12
-0.07
-0.09
-0.05
-0.05
-0.005
0.025
0.075
0.11
0.175
0.225
0.285
0.315
0.305
0.225
0.155
0.075
0.0
-0.035
-0.05
-0.07
-0.08
-0.075
-0.075
-0.075
-0.085
-0.075
-0.085
-0.075
-0.085
-0.07
-0.09
-0.07
-0.09
-0.085
-0.05
0.0
0.0
0.065
0.045
0.075
0.065
-0.035
-0.16
-0.145
-0.185
-0.16
-0.18
-0.145
-0.165
-0.27
0.105
0.98
1.79
1.005
0.255
-0.13
-0.1
-0.09
-0.12
-0.1
-0.115
-0.1
-0.105
-0.075
-0.08
-0.06
-0.06
-0.03
-0.025
0.01
0.035
0.09
0.13
0.2
0.245
0.315
0.345
0.36
0.305
0.225
0.14
0.08
0.015
-0.015
-0.045
-0.05
-0.065
-0.06
-0.07
-0.065
-0.075
-0.065
-0.07
-0.065
-0.08
-0.07
-0.085
-0.075
-0.08
-0.08
-0.095
-0.09
-0.06
0.0
0.0
0.07
0.145
0.09
-0.02
-0.15
-0.16
-0.135
-0.155
-0.17
-0.195
-0.18
-0.175
-0.265
-0.035
0.74
1.64
1.345
0.365
-0.13
-0.125
-0.11
-0.135
-0.13
-0.13
-0.125
-0.125
-0.11
-0.1
-0.095
-0.08
-0.06
-0.045
-0.015
0.005
0.055
0.105
0.17
0.225
0.29
0.34
0.37
0.33
0.265
0.17
0.09
0.015
-0.02
-0.05
-0.055
-0.075
-0.065
-0.08
-0.075
-0.085
-0.07
-0.08
-0.075
-0.085
-0.08
-0.09
-0.085
-0.1
-0.09
-0.12
-0.1
-0.12
-0.095
-0.06
-0.01
-0.005
0.05
0.025
0.06
-0.01
-0.12
-0.195
-0.175
-0.21
-0.18
-0.215
-0.17
-0.225
-0.29
0.18
1.125
1.865
0.72
0.085
-0.175
-0.125
-0.11
-0.145
-0.13
-0.155
-0.115
-0.135
-0.095
-0.115
-0.08
-0.095
-0.055
-0.05
0.0
0.01
0.07
0.105
0.175
0.23
0.305
0.34
0.36
0.315
0.23
0.135
0.055
-0.005
-0.035
-0.07
-0.065
-0.08
-0.075
-0.085
-0.075
-0.085
-0.08
-0.09
-0.085
-0.09
-0.09
-0.105
-0.095
-0.11
-0.105
-0.125
-0.115
-0.13
-0.12
-0.09
-0.03
-0.02
0.03
0.0
0.035
-0.015
-0.105
-0.19
-0.19
-0.215
-0.205
-0.225
-0.19
-0.21
-0.315
-0.005
0.85
1.71
1.035
0.28
-0.14
-0.165
-0.13
-0.17
-0.14
-0.165
-0.135
-0.15
-0.125
-0.135
-0.1
-0.105
-0.07
-0.075
-0.02
0.115
0.075
0.105
0.125
0.165
0.275
0.32
0.385
0.325
0.255
0.175
0.105
0.035
-0.015
-0.055
-0.065
-0.075
-0.075
-0.08
-0.075
-0.085
-0.08
-0.075
-0.085
-0.09
-0.095
-0.095
-0.11
-0.105
-0.115
-0.11
-0.125
-0.115
-0.12
-0.12
-0.09
-0.03
-0.03
0.02
0.005
0.04
-0.01
-0.09
-0.19
-0.19
-0.215
-0.205
-0.225
-0.195
-0.21
-0.315
0.0
0.84
1.71
1.045
0.305
-0.14
-0.175
-0.14
-0.17
-0.155
-0.175
-0.14
-0.155
-0.13
-0.135
-0.115
-0.125
-0.09
-0.08
-0.025
-0.01
0.035
0.075
0.145
0.185
0.26
0.31
0.34
0.315
0.23
0.145
0.065
-0.01
-0.05
-0.075
-0.09
-0.1
-0.11
-0.1
-0.105
-0.105
-0.1
-0.1
-0.1
-0.095
-0.105
-0.095
-0.115
-0.105
-0.125
-0.11
-0.125
-0.12
-0.14
-0.125
-0.14
-0.12
-0.105
-0.03
-0.03
0.02
-0.01
0.03
-0.02
-0.09
-0.21
-0.195
-0.215
-0.185
-0.22
-0.18
-0.205
-0.305
0.14
1.065
1.855
0.85
0.185
-0.165
-0.13
-0.11
-0.145
-0.12
-0.14
-0.11
-0.12
-0.09
-0.105
-0.07
-0.08
-0.04
-0.04
0.0
0.02
0.075
0.115
0.185
0.23
0.3
0.335
0.37
0.325
0.26
0.16
0.08
0.005
-0.02
-0.055
-0.06
-0.07
-0.065
-0.075
-0.07
-0.075
-0.07
-0.08
-0.07
-0.08
-0.07
-0.08
-0.075
-0.09
-0.08
-0.1
-0.095
-0.105
-0.1
-0.125
-0.105
-0.125
-0.11
-0.08
-0.015
-0.035
0.01
-0.03
0.01
-0.02
-0.105
-0.19
-0.18
-0.21
-0.185
-0.21
-0.165
-0.2
-0.285
0.14
1.05
1.845
0.825
0.14
-0.17
-0.13
-0.115
-0.155
-0.13
-0.15
-0.115
-0.13
-0.09
-0.11
-0.08
-0.09
-0.05
-0.045
-0.005
0.015
0.07
0.11
0.19
0.24
0.32
0.365
0.39
0.345
0.27
0.17
0.085
0.015
-0.025
-0.055
-0.065
-0.08
-0.08
-0.08
-0.08
-0.08
-0.075
-0.075
-0.075
-0.075
-0.08
-0.08
-0.09
-0.09
-0.095
-0.09
-0.105
-0.1
-0.1
-0.095
-0.11
-0.105
-0.12
-0.11
-0.125
-0.115
-0.135
-0.125
-0.14
-0.13
-0.14
-0.12
-0.06
-0.045
-0.01
0.02
0.005
0.015
-0.05
-0.15
-0.205
-0.195
-0.215
-0.2
-0.215
-0.185
-0.275
-0.19
0.45
1.405
1.66
0.5
-0.085
-0.2
-0.14
-0.145
-0.16
-0.145
-0.16
-0.13
-0.135
-0.11
-0.11
-0.085
-0.085
-0.055
-0.035
0.005
0.04
0.09
0.135
0.205
0.265
0.335
0.39
0.405
0.36
0.28
0.185
0.1
0.035
0.0
-0.02
-0.025
-0.03
-0.025
-0.025
-0.02
-0.025
-0.02
-0.02
-0.02
-0.025
-0.025
-0.03
-0.03
-0.04
-0.04
-0.035
-0.04
-0.045
-0.045
-0.045
-0.05
-0.05
-0.06
-0.055
-0.06
-0.065
-0.065
-0.065
-0.075
-0.075
-0.08
-0.08
-0.08
-0.085
-0.09
-0.09
-0.095
-0.1
-0.1
-0.105
-0.11
-0.115
-0.115
-0.12
-0.125
-0.125
-0.125
-0.125
-0.13
-0.13
-0.135
-0.075
-0.05
-0.02
0.01
0.005
0.0
-0.035
-0.155
-0.19
-0.2
-0.205
-0.205
-0.2
-0.19
-0.305
-0.115
0.645
1.565
1.365
0.4
-0.13
-0.19
-0.14
-0.16
-0.16
-0.16
-0.15
-0.14
-0.135
-0.12
-0.11
-0.095
-0.08
-0.065
-0.035
-0.005
0.035
0.09
0.14
0.21
0.275
0.345
0.405
0.43
0.405
0.335
0.25
0.145
0.075
0.025
0.0
-0.015
-0.02
-0.015
-0.02
-0.015
-0.015
-0.01
-0.005
-0.01
-0.015
-0.015
-0.015
-0.025
-0.03
-0.03
-0.035
-0.035
-0.04
-0.04
-0.04
-0.04
-0.045
-0.045
-0.05
-0.055
-0.06
-0.065
-0.06
-0.06
-0.07
-0.065
-0.075
-0.075
-0.075
-0.075
-0.085
-0.085
-0.09
-0.085
-0.095
-0.095
-0.095
-0.1
-0.11
-0.105
-0.115
-0.11
-0.12
-0.12
-0.125
-0.125
-0.135
-0.075
-0.055
-0.02
0.01
0.005
0.0
-0.035
-0.15
-0.19
-0.205
-0.2
-0.21
-0.195
-0.19
-0.305
-0.075
0.715
1.62
1.28
0.37
-0.135
-0.185
-0.135
-0.155
-0.155
-0.15
-0.14
-0.135
-0.115
-0.11
-0.095
-0.08
-0.055
-0.045
-0.01
0.01
0.055
0.1
0.165
0.23
0.3
0.365
0.42
0.45
0.425
0.345
0.245
0.15
0.075
0.03
0.0
-0.01
-0.015
-0.03
-0.02
-0.025
-0.025
-0.02
-0.025
-0.025
-0.02
-0.025
-0.015
-0.02
-0.03
-0.03
-0.035
-0.045
-0.04
-0.045
-0.045
-0.05
-0.05
-0.05
-0.06
-0.065
-0.06
-0.065
-0.07
-0.075
-0.08
-0.085
-0.085
-0.09
-0.09
-0.095
-0.09
-0.1
-0.095
-0.105
-0.1
-0.11
-0.105
-0.115
-0.11
-0.125
-0.11
-0.13
-0.12
-0.135
-0.12
-0.13
-0.06
-0.055
-0.01
0.015
0.02
-0.01
-0.03
-0.165
-0.18
-0.205
-0.19
-0.21
-0.18
-0.19
-0.305
0.04
0.92
1.76
1.02
0.285
-0.15
-0.17
-0.13
-0.165
-0.145
-0.16
-0.135
-0.145
-0.115
-0.12
-0.09
-0.09
-0.06
-0.05
-0.01
0.005
0.065
0.105
0.175
0.23
0.305
0.36
0.425
0.445
0.41
0.325
0.225
0.125
0.055
0.005
-0.02
-0.04
-0.04
-0.045
-0.045
-0.045
-0.045
-0.045
-0.04
-0.045
-0.04
-0.04
-0.035
-0.04
-0.045
-0.045
-0.05
-0.05
-0.06
-0.06
-0.06
-0.07
-0.07
-0.07
-0.075
-0.075
-0.075
-0.08
-0.08
-0.08
-0.09
-0.09
-0.095
-0.095
-0.11
-0.1
-0.115
-0.105
-0.12
-0.11
-0.125
-0.115
-0.13
-0.12
-0.14
-0.125
-0.15
-0.09
-0.07
-0.04
-0.035
-0.01
-0.06
-0.045
-0.15
-0.185
-0.215
-0.19
-0.215
-0.185
-0.205
-0.315
0.07
0.96
1.8
0.96
0.225
-0.17
-0.165
-0.13
-0.165
-0.145
-0.16
-0.13
-0.14
-0.115
-0.12
-0.09
-0.09
-0.06
-0.055
-0.01
0.005
0.06
0.105
0.185
0.24
0.325
0.385
0.45
0.455
0.415
0.32
0.22
0.115
0.045
0.0
-0.02
-0.04
-0.045
-0.05
-0.05
-0.05
-0.045
-0.045
-0.04
-0.045
-0.045
-0.05
-0.055
-0.05
-0.055
-0.055
-0.065
-0.06
-0.065
-0.07
-0.075
-0.08
-0.075
-0.08
-0.085
-0.09
-0.085
-0.095
-0.095
-0.105
-0.1
-0.115
-0.11
-0.125
-0.11
-0.125
-0.115
-0.135
-0.12
-0.145
-0.125
-0.14
-0.055
-0.07
-0.015
-0.025
-0.015
-0.065
-0.09
-0.185
-0.185
-0.215
-0.185
-0.21
-0.175
-0.24
-0.28
0.265
1.255
1.915
0.64
0.025
-0.195
-0.145
-0.13
-0.165
-0.135
-0.155
-0.12
-0.14
-0.105
-0.12
-0.085
-0.09
-0.05
-0.05
-0.005
0.015
0.08
0.125
0.215
0.27
0.355
0.415
0.47
0.45
0.395
0.29
0.19
0.09
0.03
-0.01
-0.03
-0.045
-0.05
-0.055
-0.05
-0.05
-0.045
-0.05
-0.05
-0.05
-0.055
-0.055
-0.055
-0.055
-0.06
-0.06
-0.07
-0.07
-0.075
-0.075
-0.08
-0.08
-0.09
-0.085
-0.1
-0.1
-0.11
-0.1
-0.11
-0.105
-0.115
-0.11
-0.13
-0.115
-0.135
-0.12
-0.14
-0.12
-0.145
-0.125
-0.145
-0.14
-0.125
-0.08
-0.12
-0.07
-0.12
-0.1
-0.15
-0.175
-0.215
-0.185
-0.21
-0.175
-0.205
-0.3
0.135
1.065
1.875
0.855
0.175
-0.17
-0.155
-0.12
-0.16
-0.13
-0.15
-0.12
-0.135
-0.1
-0.115
-0.08
-0.085
-0.05
-0.045
0.0
0.015
0.07
0.11
0.19
0.25
0.335
0.39
0.46
0.455
0.41
0.305
0.205
0.1
0.035
-0.015
-0.04
-0.05
-0.055
-0.065
-0.06
-0.06
-0.05
-0.055
-0.05
-0.055
-0.05
-0.06
-0.06
-0.065
-0.06
-0.07
-0.075
-0.08
-0.075
-0.09
-0.085
-0.095
-0.085
-0.1
-0.1
-0.11
-0.1
-0.12
-0.11
-0.13
-0.115
-0.14
-0.12
-0.145
-0.125
-0.15
-0.13
-0.155
-0.12
-0.11
-0.115
-0.075
-0.115
-0.115
-0.115
-0.185
-0.19
-0.215
-0.185
-0.215
-0.175
-0.26
-0.23
0.38
1.385
1.845
0.57
-0.035
-0.195
-0.14
-0.13
-0.16
-0.135
-0.155
-0.125
-0.14
-0.11
-0.12
-0.09
-0.09
-0.055
-0.045
0.0
0.015
0.08
0.13
0.21
0.27
0.355
0.415
0.46
0.435
0.37
0.255
0.155
0.055
0.005
-0.035
-0.05
-0.065
-0.065
-0.07
-0.065
-0.07
-0.065
-0.065
-0.065
-0.065
-0.06
-0.07
-0.07
-0.07
-0.07
-0.075
-0.075
-0.08
-0.08
-0.085
-0.09
-0.09
-0.085
-0.095
-0.095
-0.1
-0.1
-0.105
-0.105
-0.115
-0.115
-0.125
-0.115
-0.135
-0.125
-0.135
-0.13
-0.145
-0.13
-0.155
-0.11
-0.1
-0.11
-0.075
-0.11
-0.12
-0.125
-0.19
-0.19
-0.21
-0.19
-0.205
-0.18
-0.275
-0.175
0.495
1.475
1.71
0.505
-0.08
-0.19
-0.13
-0.135
-0.155
-0.14
-0.145
-0.125
-0.13
-0.115
-0.12
-0.09
-0.085
-0.055
-0.04
-0.005
0.02
0.085
0.135
0.215
0.275
0.355
0.41
0.455
0.435
0.365
0.25
0.145
0.055
0.0
-0.035
-0.055
-0.07
-0.07
-0.075
-0.07
-0.075
-0.065
-0.065
-0.06
-0.065
-0.065
-0.07
-0.075
-0.075
-0.08
-0.08
-0.085
-0.08
-0.085
-0.085
-0.09
-0.095
-0.1
-0.1
-0.105
-0.105
-0.11
-0.115
-0.115
-0.115
-0.125
-0.12
-0.13
-0.125
-0.14
-0.13
-0.14
-0.13
-0.15
-0.11
-0.1
-0.105
-0.08
-0.105
-0.12
-0.13
-0.185
-0.195
-0.205
-0.19
-0.195
-0.175
-0.27
-0.155
0.54
1.515
1.695
0.495
-0.085
-0.19
-0.13
-0.13
-0.15
-0.13
-0.135
-0.12
-0.12
-0.105
-0.105
-0.08
-0.075
-0.05
-0.035
0.0
0.035
0.09
0.15
0.23
0.295
0.37
0.43
0.475
0.45
0.38
0.27
0.165
0.07
0.01
-0.02
-0.045
-0.05
-0.055
-0.055
-0.055
-0.055
-0.05
-0.055
-0.05
-0.05
-0.05
-0.055
-0.055
-0.06
-0.06
-0.07
-0.065
-0.07
-0.07
-0.08
-0.08
-0.09
-0.085
-0.095
-0.09
-0.095
-0.095
-0.11
-0.1
-0.115
-0.11
-0.125
-0.115
-0.13
-0.115
-0.135
-0.12
-0.135
-0.13
-0.105
-0.075
-0.095
-0.085
-0.095
-0.1
-0.155
-0.18
-0.21
-0.185
-0.205
-0.175
-0.2
-0.295
0.08
0.99
1.845
0.99
0.235
-0.15
-0.15
-0.115
-0.15
-0.13
-0.15
-0.12
-0.135
-0.105
-0.11
-0.085
-0.095
-0.055
-0.055
-0.015
0.0
0.055
0.1
0.175
0.24
0.32
0.385
0.45
0.465
0.425
0.33
0.22
0.11
0.035
-0.015
-0.045
-0.065
-0.07
-0.07
-0.065
-0.065
-0.07
-0.06
-0.065
-0.06
-0.075
-0.065
-0.075
-0.07
-0.09
-0.08
-0.095
-0.085
-0.105
-0.09
-0.115
-0.1
-0.125
-0.105
-0.13
-0.115
-0.145
-0.12
-0.15
-0.12
-0.15
-0.135
-0.12
-0.1
-0.1
-0.105
-0.105
-0.105
-0.17
-0.185
-0.22
-0.185
-0.225
-0.175
-0.23
-0.285
0.215
1.195
1.94
0.75
0.1
-0.18
-0.145
-0.12
-0.16
-0.125
-0.155
-0.125
-0.145
-0.105
-0.125
-0.09
-0.1
-0.06
-0.065
-0.015
0.0
0.06
0.095
0.175
0.24
0.325
0.38
0.43
0.425
0.36
0.25
0.145
0.05
-0.015
-0.06
-0.08
-0.105
-0.1
-0.105
-0.11
-0.11
-0.105
-0.11
-0.11
-0.085
-0.03
-0.11
-0.155
-0.165
-0.21
-0.145
-0.075
-0.115
-0.14
-0.145
-0.115
-0.12
-0.135
-0.15
-0.135
-0.13
-0.135
-0.175
-0.15
-0.115
-0.145
-0.085
-0.135
-0.125
-0.14
-0.2
-0.22
-0.22
-0.215
-0.21
-0.19
-0.315
-0.115
0.635
1.55
1.49
0.465
-0.09
-0.18
-0.125
-0.135
-0.14
-0.135
-0.13
-0.12
-0.115
-0.11
-0.1
-0.085
-0.08
-0.065
-0.04
-0.005
0.02
0.065
0.125
0.195
0.25
0.33
0.39
0.41
0.37
0.285
0.17
0.07
-0.005
-0.05
-0.08
-0.1
-0.095
-0.12
-0.105
-0.105
-0.105
-0.11
-0.095
-0.105
-0.1
-0.105
-0.1
-0.12
-0.1
-0.125
-0.115
-0.135
-0.125
-0.145
-0.13
-0.15
-0.13
-0.155
-0.135
-0.165
-0.14
-0.16
-0.155
-0.11
-0.11
-0.11
-0.11
-0.11
-0.1
-0.175
-0.18
-0.22
-0.175
-0.21
-0.165
-0.225
-0.255
0.285
1.26
1.94
0.69
0.08
-0.175
-0.12
-0.1
-0.14
-0.11
-0.13
-0.085
-0.125
-0.095
-0.11
-0.07
-0.085
-0.05
-0.045
0.0
0.015
0.07
0.11
0.195
0.25
0.33
0.385
0.435
0.415
0.355
0.245
0.145
0.05
-0.005
-0.045
-0.065
-0.08
-0.08
-0.09
-0.085
-0.08
-0.085
-0.08
-0.085
-0.08
-0.085
-0.08
-0.085
-0.08
-0.07
-0.06
-0.08
-0.08
-0.085
-0.09
-0.11
-0.1
-0.12
-0.115
-0.13
-0.12
-0.14
-0.125
-0.145
-0.135
-0.15
-0.135
-0.105
-0.12
-0.08
-0.125
-0.105
-0.105
-0.17
-0.19
-0.21
-0.19
-0.21
-0.18
-0.27
-0.15
0.525
1.485
1.695
0.485
-0.085
-0.175
-0.135
-0.13
-0.155
-0.13
-0.14
-0.12
-0.13
-0.11
-0.11
-0.09
-0.09
-0.06
-0.05
-0.005
0.02
0.08
0.135
0.215
0.28
0.36
0.415
0.445
0.415
0.335
0.22
0.12
0.03
-0.025
-0.06
-0.08
-0.09
-0.09
-0.095
-0.09
-0.095
-0.09
-0.09
-0.085
-0.09
-0.085
-0.09
-0.085
-0.095
-0.09
-0.1
-0.095
-0.11
-0.105
-0.125
-0.115
-0.125
-0.12
-0.135
-0.125
-0.14
-0.13
-0.145
-0.14
-0.155
-0.16
-0.125
-0.1
-0.115
-0.1
-0.12
-0.115
-0.16
-0.195
-0.22
-0.205
-0.225
-0.195
-0.2
-0.305
0.015
0.87
1.74
1.12
0.3
-0.14
-0.165
-0.12
-0.155
-0.14
-0.15
-0.13
-0.145
-0.12
-0.13
-0.105
-0.1
-0.075
-0.065
-0.025
-0.005
0.045
0.085
0.165
0.225
0.305
0.37
0.435
0.44
0.395
0.3
0.195
0.09
0.015
-0.025
-0.055
-0.075
-0.075
-0.08
-0.08
-0.085
-0.08
-0.08
-0.08
-0.085
-0.08
-0.085
-0.085
-0.095
-0.09
-0.1
-0.095
-0.105
-0.1
-0.115
-0.105
-0.12
-0.11
-0.12
-0.12
-0.135
-0.125
-0.14
-0.13
-0.145
-0.14
-0.145
-0.15
-0.115
-0.09
-0.115
-0.085
-0.105
-0.11
-0.15
-0.185
-0.21
-0.19
-0.21
-0.185
-0.195
-0.3
0.01
0.865
1.75
1.15
0.32
-0.13
-0.16
-0.115
-0.15
-0.135
-0.15
-0.125
-0.135
-0.11
-0.115
-0.095
-0.095
-0.07
-0.06
-0.02
0.0
0.05
0.095
0.17
0.23
0.315
0.375
0.435
0.445
0.41
0.315
0.21
0.1
0.025
-0.02
-0.045
-0.06
-0.07
-0.07
-0.075
-0.07
-0.08
-0.07
-0.075
-0.07
-0.08
-0.075
-0.085
-0.085
-0.095
-0.095
-0.11
-0.1
-0.115
-0.11
-0.12
-0.11
-0.125
-0.115
-0.135
-0.115
-0.14
-0.12
-0.15
-0.125
-0.15
-0.14
-0.115
-0.1
-0.09
-0.105
-0.1
-0.105
-0.16
-0.185
-0.215
-0.18
-0.215
-0.175
-0.205
-0.3
0.095
1.01
1.845
0.94
0.22
-0.155
-0.155
-0.115
-0.16
-0.135
-0.155
-0.125
-0.14
-0.115
-0.12
-0.09
-0.1
-0.06
-0.055
-0.01
0.005
0.055
0.1
0.18
0.23
0.32
0.375
0.44
0.445
0.39
0.29
0.185
0.085
0.015
-0.025
-0.045
-0.065
-0.07
-0.075
-0.075
-0.065
-0.07
-0.07
-0.07
-0.07
-0.075
-0.075
-0.07
-0.075
-0.08
-0.09
-0.09
-0.09
-0.09
-0.1
-0.1
-0.11
-0.11
-0.115
-0.11
-0.12
-0.115
-0.13
-0.12
-0.145
-0.13
-0.145
-0.13
-0.155
-0.12
-0.1
-0.115
-0.07
-0.11
-0.115
-0.12
-0.19
-0.195
-0.215
-0.195
-0.205
-0.185
-0.275
-0.16
0.515
1.47
1.68
0.52
-0.06
-0.2
-0.135
-0.135
-0.155
-0.135
-0.145
-0.125
-0.13
-0.105
-0.11
-0.085
-0.08
-0.055
-0.04
-0.005
0.02
0.07
0.125
0.2
0.265
0.34
0.395
0.44
0.415
0.345
0.24
0.145
0.05
0.0
-0.035
-0.05
-0.065
-0.065
-0.07
-0.07
-0.065
-0.065
-0.065
-0.065
-0.06
-0.065
-0.065
-0.07
-0.065
-0.075
-0.07
-0.085
-0.08
-0.095
-0.085
-0.095
-0.085
-0.105
-0.09
-0.11
-0.1
-0.12
-0.105
-0.12
-0.105
-0.13
-0.115
-0.14
-0.12
-0.14
-0.135
-0.105
-0.08
-0.09
-0.085
-0.09
-0.085
-0.15
-0.17
-0.2
-0.17
-0.2
-0.16
-0.195
-0.28
0.13
1.05
1.875
0.925
0.2
-0.155
-0.14
-0.11
-0.15
-0.125
-0.145
-0.115
-0.135
-0.105
-0.12
-0.085
-0.095
-0.06
-0.06
-0.015
0.0
0.06
0.09
0.18
0.24
0.325
0.38
0.45
0.455
0.405
0.31
0.205
0.095
0.02
-0.03
-0.055
-0.07
-0.08
-0.085
-0.085
-0.085
-0.08
-0.08
-0.075
-0.075
-0.075
-0.075
-0.08
-0.085
-0.085
-0.09
-0.095
-0.095
-0.105
-0.105
-0.11
-0.11
-0.115
-0.115
-0.125
-0.13
-0.13
-0.135
-0.14
-0.14
-0.145
-0.145
-0.15
-0.15
-0.155
-0.165
-0.12
-0.105
-0.12
-0.095
-0.125
-0.13
-0.155
-0.205
-0.22
-0.215
-0.21
-0.205
-0.19
-0.3
-0.075
0.685
1.62
1.415
0.395
-0.12
-0.175
-0.135
-0.155
-0.15
-0.15
-0.14
-0.135
-0.125
-0.115
-0.105
-0.095
-0.075
-0.06
-0.035
0.0
0.035
0.085
0.155
0.225
0.295
0.37
0.435
0.465
0.44
0.355
0.245
0.14
0.05
0.0
-0.035
-0.06
-0.065
-0.065
-0.07
-0.07
-0.07
-0.07
-0.07
-0.065
-0.07
-0.07
-0.08
-0.07
-0.08
-0.08
-0.095
-0.09
-0.1
-0.095
-0.1
-0.095
-0.11
-0.105
-0.12
-0.105
-0.125
-0.115
-0.13
-0.12
-0.14
-0.13
-0.15
-0.13
-0.15
-0.145
-0.12
-0.095
-0.105
-0.095
-0.11
-0.115
-0.165
-0.185
-0.22
-0.19
-0.215
-0.18
-0.205
-0.3
0.07
0.97
1.84
1.02
0.24
-0.15
-0.15
-0.12
-0.155
-0.13
-0.15
-0.12
-0.13
-0.1
-0.115
-0.085
-0.09
-0.055
-0.055
-0.01
0.0
0.05
0.1
0.18
0.245
0.33
0.39
0.455
0.47
0.435
0.335
0.235
0.125
0.05
0.0
-0.025
-0.045
-0.055
-0.06
-0.055
-0.06
-0.055
-0.06
-0.06
-0.06
-0.06
-0.065
-0.06
-0.07
-0.07
-0.085
-0.08
-0.095
-0.09
-0.105
-0.1
-0.115
-0.1
-0.115
-0.105
-0.125
-0.11
-0.13
-0.115
-0.135
-0.125
-0.145
-0.13
-0.155
-0.13
-0.16
-0.14
-0.125
-0.095
-0.09
-0.11
-0.11
-0.105
-0.175
-0.185
-0.22
-0.185
-0.22
-0.175
-0.235
-0.27
0.275
1.27
1.92
0.66
0.045
-0.185
-0.14
-0.12
-0.16
-0.125
-0.155
-0.125
-0.14
-0.105
-0.12
-0.09
-0.1
-0.065
-0.065
-0.01
0.0
0.06
0.1
0.18
0.235
0.325
0.37
0.445
0.435
0.395
0.29
0.195
0.07
0.005
-0.04
-0.055
-0.08
-0.08
-0.085
-0.085
-0.09
-0.09
-0.09
-0.085
-0.085
-0.09
-0.095
-0.095
-0.095
-0.105
-0.11
-0.11
-0.115
-0.125
-0.12
-0.12
-0.13
-0.135
-0.135
-0.14
-0.14
-0.145
-0.145
-0.155
-0.145
-0.155
-0.16
-0.135
-0.1
-0.135
-0.08
-0.125
-0.115
-0.145
-0.195
-0.22
-0.215
-0.22
-0.2
-0.195
-0.305
-0.04
0.76
1.655
1.3
0.405
-0.115
-0.185
-0.12
-0.15
-0.15
-0.145
-0.135
-0.13
-0.12
-0.115
-0.1
-0.095
-0.09
-0.06
-0.04
-0.01
0.03
0.07
0.14
0.21
0.27
0.33
0.39
0.425
0.39
0.315
0.215
0.105
0.03
-0.02
-0.055
-0.075
-0.08
-0.08
-0.095
-0.09
-0.085
-0.09
-0.09
-0.085
-0.075
-0.085
-0.085
-0.095
-0.1
-0.09
-0.105
-0.1
-0.115
-0.1
-0.115
-0.1
-0.125
-0.11
-0.13
-0.115
-0.14
-0.12
-0.14
-0.13
-0.145
-0.14
-0.11
-0.075
-0.105
-0.07
-0.105
-0.09
-0.145
-0.165
-0.215
-0.18
-0.205
-0.17
-0.2
-0.28
0.15
1.075
1.87
0.915
0.22
-0.145
-0.13
-0.105
-0.145
-0.12
-0.14
-0.11
-0.125
-0.1
-0.105
-0.07
-0.085
-0.05
-0.05
-0.01
0.0
0.06
0.095
0.18
0.235
0.315
0.375
0.44
0.445
0.405
0.305
0.2
0.095
0.025
-0.025
-0.045
-0.07
-0.075
-0.075
-0.075
-0.075
-0.075
-0.07
-0.07
-0.07
-0.075
-0.07
-0.075
-0.075
-0.08
-0.08
-0.09
-0.085
-0.1
-0.1
-0.11
-0.1
-0.115
-0.105
-0.12
-0.11
-0.125
-0.11
-0.13
-0.115
-0.14
-0.12
-0.145
-0.12
-0.145
-0.14
-0.11
-0.085
-0.11
-0.085
-0.105
-0.1
-0.16
-0.18
-0.225
-0.19
-0.22
-0.18
-0.22
-0.29
0.17
1.13
1.9
0.79
0.12
-0.175
-0.14
-0.12
-0.16
-0.13
-0.155
-0.125
-0.145
-0.11
-0.12
-0.09
-0.1
-0.06
-0.065
-0.025
0.0
0.06
0.1
0.18
0.24
0.33
0.39
0.455
0.465
0.425
0.32
0.215
0.105
0.03
-0.02
-0.045
-0.065
-0.065
-0.075
-0.07
-0.07
-0.065
-0.065
-0.07
-0.07
-0.07
-0.075
-0.075
-0.08
-0.085
-0.085
-0.09
-0.095
-0.095
-0.1
-0.105
-0.105
-0.11
-0.115
-0.115
-0.12
-0.12
-0.12
-0.12
-0.125
-0.125
-0.135
-0.135
-0.14
-0.135
-0.135
-0.15
-0.11
-0.085
-0.11
-0.07
-0.11
-0.115
-0.14
-0.18
-0.205
-0.195
-0.2
-0.19
-0.18
-0.285
-0.04
0.745
1.665
1.34
0.39
-0.12
-0.17
-0.12
-0.145
-0.145
-0.145
-0.13
-0.125
-0.12
-0.115
-0.095
-0.085
-0.07
-0.05
-0.025
0.0
0.04
0.09
0.15
0.22
0.295
0.37
0.435
0.47
0.455
0.375
0.275
0.16
0.07
0.01
-0.03
-0.045
-0.055
-0.06
-0.06
-0.06
-0.06
-0.055
-0.055
-0.05
-0.05
-0.05
-0.05
-0.055
-0.055
-0.065
-0.075
-0.075
-0.075
-0.08
-0.08
-0.09
-0.09
-0.1
-0.1
-0.105
-0.105
-0.115
-0.105
-0.12
-0.115
-0.13
-0.125
-0.135
-0.125
-0.145
-0.13
-0.155
-0.115
-0.1
-0.12
-0.075
-0.115
-0.12
-0.125
-0.185
-0.2
-0.21
-0.19
-0.205
-0.18
-0.275
-0.165
0.51
1.49
1.685
0.51
-0.075
-0.19
-0.13
-0.13
-0.15
-0.13
-0.14
-0.12
-0.115
-0.1
-0.105
-0.08
-0.075
-0.04
-0.03
0.0
0.03
0.08
0.13
0.21
0.28
0.35
0.405
0.465
0.46
0.395
0.295
0.19
0.085
0.015
-0.025
-0.055
-0.06
-0.07
-0.075
-0.065
-0.07
-0.065
-0.065
-0.065
-0.07
-0.065
-0.07
-0.075
-0.08
-0.075
-0.09
-0.09
-0.1
-0.095
-0.11
-0.1
-0.11
-0.105
-0.125
-0.115
-0.14
-0.12
-0.14
-0.125
-0.15
-0.13
-0.16
-0.13
-0.16
-0.145
-0.175
-0.14
-0.12
-0.11
-0.1
-0.115
-0.115
-0.115
-0.19
-0.2
-0.235
-0.195
-0.23
-0.18
-0.25
-0.275
0.27
1.255
1.92
0.68
0.075
-0.185
-0.14
-0.115
-0.16
-0.125
-0.155
-0.12
-0.14
-0.105
-0.12
-0.08
-0.09
-0.055
-0.055
-0.01
0.0
0.06
0.1
0.18
0.235
0.32
0.38
0.445
0.45
0.415
0.315
0.215
0.105
0.035
-0.02
-0.045
-0.065
-0.075
-0.075
-0.075
-0.075
-0.075
-0.075
-0.07
-0.075
-0.075
-0.075
-0.08
-0.08
-0.085
-0.085
-0.095
-0.095
-0.1
-0.1
-0.11
-0.105
-0.115
-0.11
-0.12
-0.12
-0.13
-0.13
-0.14
-0.135
-0.145
-0.135
-0.145
-0.14
-0.15
-0.155
-0.125
-0.095
-0.13
-0.09
-0.14
-0.125
-0.155
-0.195
-0.22
-0.205
-0.215
-0.2
-0.205
-0.315
0.0
0.835
1.735
1.195
0.31
-0.15
-0.17
-0.14
-0.165
-0.155
-0.165
-0.15
-0.15
-0.135
-0.115
-0.085
-0.08
-0.05
-0.045
-0.015
0.005
0.05
0.1
0.17
0.24
0.315
0.38
0.45
0.485
0.465
0.375
0.27
0.155
0.065
0.0
-0.03
-0.055
-0.065
-0.07
-0.07
-0.07
-0.07
-0.07
-0.07
-0.065
-0.065
-0.07
-0.07
-0.08
-0.075
-0.085
-0.08
-0.095
-0.09
-0.1
-0.095
-0.11
-0.1
-0.115
-0.105
-0.125
-0.11
-0.13
-0.12
-0.14
-0.125
-0.145
-0.13
-0.16
-0.135
-0.165
-0.155
-0.135
-0.105
-0.12
-0.105
-0.115
-0.11
-0.17
-0.195
-0.225
-0.195
-0.22
-0.18
-0.215
-0.295
0.125
1.075
1.895
0.89
0.18
-0.16
-0.145
-0.12
-0.16
-0.135
-0.155
-0.125
-0.14
-0.11
-0.125
-0.09
-0.095
-0.06
-0.06
-0.015
0.0
0.05
0.095
0.17
0.23
0.32
0.385
0.46
0.48
0.455
0.36
0.25
0.135
0.055
-0.005
-0.04
-0.06
-0.065
-0.07
-0.07
-0.07
-0.07
-0.07
-0.065
-0.07
-0.065
-0.065
-0.07
-0.07
-0.08
-0.08
-0.09
-0.085
-0.095
-0.095
-0.095
-0.1
-0.105
-0.105
-0.11
-0.11
-0.12
-0.115
-0.125
-0.12
-0.135
-0.13
-0.14
-0.135
-0.15
-0.145
-0.15
-0.15
-0.125
-0.095
-0.125
-0.085
-0.125
-0.12
-0.155
-0.19
-0.22
-0.2
-0.215
-0.2
-0.195
-0.305
-0.005
0.83
1.73
1.22
0.33
-0.135
-0.17
-0.13
-0.15
-0.145
-0.145
-0.13
-0.13
-0.11
-0.115
-0.09
-0.09
-0.065
-0.06
-0.025
0.0
0.04
0.085
0.155
0.22
0.3
0.365
0.435
0.48
0.47
0.39
0.285
0.175
0.08
0.015
-0.02
-0.045
-0.055
-0.06
-0.065
-0.065
-0.06
-0.065
-0.055
-0.06
-0.055
-0.065
-0.065
-0.065
-0.07
-0.075
-0.08
-0.085
-0.08
-0.085
-0.08
-0.095
-0.09
-0.11
-0.095
-0.105
-0.095
-0.115
-0.1
-0.125
-0.11
-0.135
-0.12
-0.145
-0.125
-0.15
-0.125
-0.15
-0.135
-0.115
-0.095
-0.095
-0.11
-0.105
-0.105
-0.17
-0.19
-0.23
-0.19
-0.225
-0.185
-0.23
-0.29
0.205
1.18
1.915
0.745
0.115
-0.175
-0.145
-0.115
-0.155
-0.125
-0.155
-0.115
-0.145
-0.11
-0.125
-0.09
-0.1
-0.06
-0.065
-0.02
-0.01
0.05
0.09
0.17
0.22
0.31
0.36
0.43
0.45
0.43
0.33
0.23
0.125
0.045
-0.01
-0.045
-0.06
-0.07
-0.085
-0.08
-0.085
-0.075
-0.075
-0.075
-0.08
-0.07
-0.085
-0.075
-0.085
-0.09
-0.095
-0.1
-0.105
-0.11
-0.115
-0.11
-0.12
-0.115
-0.135
-0.13
-0.135
-0.13
-0.145
-0.14
-0.15
-0.14
-0.16
-0.14
-0.16
-0.145
-0.11
-0.135
-0.09
-0.13
-0.115
-0.12
-0.19
-0.205
-0.215
-0.195
-0.21
-0.18
-0.285
-0.15
0.54
1.495
1.69
0.52
-0.065
-0.19
-0.13
-0.13
-0.15
-0.135
-0.145
-0.125
-0.13
-0.105
-0.115
-0.09
-0.09
-0.06
-0.05
-0.01
0.01
0.07
0.12
0.195
0.26
0.335
0.395
0.455
0.445
0.395
0.29
0.18
0.08
0.01
-0.035
-0.06
-0.075
-0.085
-0.085
-0.085
-0.085
-0.085
-0.08
-0.085
-0.08
-0.085
-0.08
-0.09
-0.09
-0.095
-0.09
-0.105
-0.1
-0.11
-0.105
-0.115
-0.115
-0.125
-0.12
-0.13
-0.12
-0.14
-0.13
-0.145
-0.135
-0.15
-0.135
-0.155
-0.15
-0.12
-0.085
-0.12
-0.08
-0.125
-0.11
-0.155
-0.185
-0.225
-0.195
-0.22
-0.19
-0.21
-0.3
0.11
1.04
1.87
0.93
0.195
-0.16
-0.145
-0.125
-0.16
-0.14
-0.155
-0.125
-0.14
-0.11
-0.12
-0.085
-0.09
-0.06
-0.055
-0.015
0.0
0.05
0.09
0.17
0.235
0.31
0.375
0.45
0.475
0.455
0.36
0.255
0.14
0.05
-0.005
-0.045
-0.065
-0.07
-0.08
-0.08
-0.08
-0.08
-0.075
-0.08
-0.08
-0.08
-0.08
-0.09
-0.085
-0.095
-0.09
-0.105
-0.105
-0.115
-0.11
-0.12
-0.115
-0.125
-0.12
-0.13
-0.13
-0.14
-0.135
-0.145
-0.14
-0.155
-0.145
-0.16
-0.125
-0.105
-0.125
-0.085
-0.13
-0.125
-0.14
-0.19
-0.215
-0.22
-0.205
-0.205
-0.185
-0.295
-0.13
0.585
1.555
1.595
0.46
-0.1
-0.185
-0.135
-0.145
-0.16
-0.15
-0.145
-0.13
-0.13
-0.115
-0.11
-0.095
-0.08
-0.055
-0.045
-0.005
0.02
0.075
0.135
0.205
0.28
0.355
0.415
0.47
0.46
0.395
0.285
0.175
0.07
0.005
-0.04
-0.065
-0.08
-0.08
-0.09
-0.085
-0.085
-0.08
-0.08
-0.075
-0.085
-0.08
-0.085
-0.085
-0.095
-0.09
-0.1
-0.095
-0.11
-0.1
-0.12
-0.105
-0.13
-0.11
-0.125
-0.115
-0.14
-0.125
-0.155
-0.125
-0.15
-0.13
-0.11
-0.1
-0.09
-0.115
-0.11
-0.11
-0.18
-0.19
-0.23
-0.19
-0.23
-0.18
-0.23
-0.295
0.16
1.13
1.91
0.805
0.14
-0.17
-0.155
-0.125
-0.16
-0.14
-0.16
-0.12
-0.14
-0.11
-0.125
-0.1
-0.1
-0.06
-0.065
-0.02
-0.005
0.045
0.08
0.165
0.22
0.3
0.365
0.44
0.45
0.42
0.325
0.21
0.1
0.03
-0.025
-0.055
-0.075
-0.085
-0.095
-0.085
-0.09
-0.085
-0.09
-0.08
-0.085
-0.085
-0.08
-0.09
-0.095
-0.095
-0.1
-0.11
-0.105
-0.115
-0.115
-0.12
-0.125
-0.125
-0.125
-0.145
-0.135
-0.14
-0.145
-0.15
-0.145
-0.155
-0.16
-0.12
-0.105
-0.13
-0.095
-0.115
-0.125
-0.15
-0.2
-0.215
-0.215
-0.22
-0.195
-0.195
-0.305
-0.04
0.765
1.665
1.325
0.41
-0.11
-0.185
-0.125
-0.155
-0.15
-0.15
-0.13
-0.14
-0.13
-0.125
-0.115
-0.105
-0.085
-0.075
-0.04
-0.015
0.01
0.06
0.12
0.185
0.255
0.32
0.38
0.42
0.41
0.34
0.235
0.135
0.045
-0.015
-0.045
-0.07
-0.08
-0.09
-0.09
-0.095
-0.09
-0.095
-0.09
-0.09
-0.085
-0.1
-0.09
-0.095
-0.095
-0.105
-0.1
-0.11
-0.105
-0.12
-0.115
-0.125
-0.12
-0.14
-0.12
-0.145
-0.13
-0.15
-0.13
-0.155
-0.145
-0.11
-0.105
-0.1
-0.11
-0.11
-0.11
-0.17
-0.19
-0.225
-0.195
-0.22
-0.185
-0.215
-0.295
0.11
1.02
1.85
0.955
0.215
-0.155
-0.15
-0.125
-0.16
-0.14
-0.155
-0.12
-0.145
-0.11
-0.12
-0.09
-0.1
-0.065
-0.065
-0.025
-0.01
0.04
0.075
0.155
0.22
0.305
0.37
0.435
0.46
0.425
0.34
0.23
0.115
0.03
-0.02
-0.05
-0.075
-0.085
-0.095
-0.09
-0.095
-0.09
-0.09
-0.085
-0.085
-0.09
-0.095
-0.095
-0.095
-0.1
-0.105
-0.105
-0.11
-0.11
-0.115
-0.115
-0.12
-0.125
-0.125
-0.13
-0.135
-0.135
-0.145
-0.14
-0.155
-0.145
-0.165
-0.115
-0.1
-0.115
-0.095
-0.105
-0.12
-0.135
-0.195
-0.2
-0.215
-0.205
-0.205
-0.19
-0.28
-0.14
0.56
1.525
1.615
0.46
-0.1
-0.19
-0.13
-0.145
-0.155
-0.15
-0.15
-0.135
-0.13
-0.12
-0.115
-0.095
-0.09
-0.065
-0.05
-0.015
0.01
0.06
0.12
0.195
0.265
0.345
0.41
0.465
0.455
0.39
0.285
0.17
0.07
0.0
-0.04
-0.065
-0.08
-0.085
-0.09
-0.085
-0.085
-0.09
-0.08
-0.085
-0.08
-0.09
-0.085
-0.09
-0.09
-0.105
-0.1
-0.11
-0.1
-0.12
-0.11
-0.125
-0.115
-0.135
-0.12
-0.145
-0.125
-0.155
-0.13
-0.155
-0.13
-0.16
-0.125
-0.11
-0.11
-0.085
-0.11
-0.115
-0.105
-0.185
-0.19
-0.225
-0.185
-0.22
-0.175
-0.23
-0.28
0.21
1.205
1.94
0.735
0.075
-0.18
-0.145
-0.12
-0.165
-0.135
-0.16
-0.12
-0.145
-0.11
-0.125
-0.095
-0.1
-0.065
-0.065
-0.025
-0.01
0.045
0.085
0.165
0.225
0.31
0.37
0.44
0.45
0.425
0.32
0.22
0.105
0.03
-0.025
-0.055
-0.08
-0.085
-0.095
-0.085
-0.09
-0.085
-0.09
-0.08
-0.09
-0.085
-0.095
-0.09
-0.1
-0.095
-0.11
-0.11
-0.12
-0.11
-0.13
-0.115
-0.135
-0.12
-0.14
-0.13
-0.14
-0.13
-0.15
-0.135
-0.15
-0.14
-0.105
-0.1
-0.085
-0.11
-0.1
-0.105
-0.17
-0.19
-0.22
-0.19
-0.215
-0.18
-0.2
-0.3
0.04
0.94
1.815
1.065
0.265
-0.14
-0.155
-0.115
-0.155
-0.13
-0.15
-0.12
-0.13
-0.11
-0.115
-0.09
-0.09
-0.065
-0.06
-0.025
-0.015
0.035
0.075
0.15
0.21
0.295
0.36
0.43
0.46
0.44
0.355
0.255
0.14
0.05
-0.01
-0.04
-0.06
-0.07
-0.08
-0.075
-0.08
-0.08
-0.085
-0.075
-0.09
-0.08
-0.09
-0.085
-0.1
-0.09
-0.11
-0.1
-0.12
-0.11
-0.13
-0.12
-0.14
-0.12
-0.145
-0.125
-0.15
-0.125
-0.155
-0.13
-0.155
-0.145
-0.11
-0.105
-0.085
-0.11
-0.105
-0.11
-0.18
-0.19
-0.225
-0.19
-0.225
-0.18
-0.205
-0.295
0.11
1.04
1.86
0.92
0.22
-0.15
-0.15
-0.11
-0.155
-0.135
-0.16
-0.125
-0.145
-0.11
-0.125
-0.095
-0.1
-0.065
-0.07
-0.03
-0.015
0.035
0.07
0.145
0.2
0.285
0.34
0.415
0.435
0.41
0.32
0.22
0.105
0.03
-0.03
-0.06
-0.08
-0.095
-0.095
-0.095
-0.09
-0.095
-0.09
-0.095
-0.09
-0.095
-0.085
-0.1
-0.095
-0.105
-0.1
-0.115
-0.105
-0.125
-0.115
-0.14
-0.125
-0.145
-0.135
-0.16
-0.14
-0.16
-0.14
-0.16
-0.155
-0.115
-0.11
-0.105
-0.11
-0.11
-0.105
-0.175
-0.195
-0.225
-0.195
-0.22
-0.18
-0.215
-0.3
0.14
1.085
1.885
0.89
0.2
-0.15
-0.14
-0.11
-0.15
-0.125
-0.145
-0.115
-0.13
-0.095
-0.115
-0.08
-0.09
-0.055
-0.055
-0.015
-0.005
0.055
0.09
0.17
0.23
0.31
0.37
0.445
0.465
0.435
0.345
0.24
0.13
0.05
0.0
-0.035
-0.055
-0.06
-0.07
-0.065
-0.07
-0.075
-0.07
-0.07
-0.065
-0.07
-0.07
-0.075
-0.08
-0.085
-0.08
-0.095
-0.09
-0.1
-0.1
-0.11
-0.105
-0.12
-0.115
-0.125
-0.125
-0.13
-0.125
-0.14
-0.13
-0.145
-0.145
-0.105
-0.085
-0.105
-0.09
-0.105
-0.115
-0.15
-0.185
-0.21
-0.2
-0.21
-0.195
-0.195
-0.29
-0.025
0.765
1.675
1.315
0.365
-0.12
-0.16
-0.12
-0.14
-0.135
-0.14
-0.13
-0.13
-0.115
-0.115
-0.095
-0.09
-0.07
-0.06
-0.035
-0.005
0.03
0.075
0.14
0.205
0.28
0.35
0.425
0.465
0.45
0.375
0.275
0.155
0.07
0.0
-0.035
-0.06
-0.07
-0.075
-0.075
-0.085
-0.08
-0.085
-0.075
-0.085
-0.08
-0.09
-0.085
-0.095
-0.09
-0.105
-0.1
-0.115
-0.105
-0.12
-0.105
-0.12
-0.105
-0.13
-0.115
-0.135
-0.12
-0.145
-0.125
-0.155
-0.13
-0.165
-0.125
-0.11
-0.11
-0.085
-0.115
-0.12
-0.115
-0.19
-0.195
-0.235
-0.195
-0.225
-0.18
-0.245
-0.275
0.26
1.26
1.925
0.655
0.025
-0.185
-0.145
-0.125
-0.165
-0.13
-0.16
-0.125
-0.145
-0.11
-0.13
-0.085
-0.1
-0.06
-0.06
-0.015
0.0
0.055
0.095
0.18
0.235
0.325
0.385
0.455
0.46
0.425
0.325
0.225
0.11
0.035
-0.02
-0.05
-0.07
-0.075
-0.075
-0.08
-0.08
-0.075
-0.075
-0.08
-0.08
-0.08
-0.075
-0.08
-0.08
-0.085
-0.095
-0.1
-0.1
-0.105
-0.105
-0.115
-0.115
-0.125
-0.12
-0.13
-0.125
-0.135
-0.135
-0.14
-0.14
-0.14
-0.155
-0.11
-0.095
-0.095
-0.095
-0.1
-0.12
-0.155
-0.195
-0.21
-0.205
-0.2
-0.195
-0.185
-0.285
-0.075
0.705
1.64
1.415
0.415
-0.105
-0.17
-0.115
-0.135
-0.14
-0.14
-0.13
-0.13
-0.12
-0.11
-0.1
-0.09
-0.07
-0.055
-0.035
-0.01
0.025
0.075
0.135
0.205
0.275
0.345
0.42
0.465
0.45
0.38
0.28
0.17
0.07
0.0
-0.035
-0.065
-0.075
-0.085
-0.075
-0.08
-0.075
-0.075
-0.075
-0.08
-0.07
-0.085
-0.085
-0.095
-0.085
-0.105
-0.1
-0.115
-0.105
-0.12
-0.11
-0.13
-0.11
-0.13
-0.12
-0.14
-0.125
-0.145
-0.125
-0.155
-0.13
-0.15
-0.14
-0.115
-0.11
-0.09
-0.11
-0.1
-0.11
-0.175
-0.19
-0.215
-0.19
-0.21
-0.185
-0.205
-0.3
0.08
0.995
1.83
0.96
0.245
-0.14
-0.155
-0.115
-0.155
-0.13
-0.15
-0.12
-0.13
-0.1
-0.12
-0.09
-0.095
-0.06
-0.065
-0.025
-0.01
0.035
0.08
0.145
0.2
0.28
0.345
0.415
0.445
0.425
0.34
0.245
0.13
0.045
-0.01
-0.04
-0.065
-0.075
-0.075
-0.08
-0.08
-0.08
-0.08
-0.08
-0.085
-0.085
-0.09
-0.09
-0.095
-0.1
-0.11
-0.105
-0.12
-0.115
-0.125
-0.12
-0.125
-0.12
-0.13
-0.125
-0.14
-0.125
-0.135
-0.125
-0.145
-0.13
-0.15
-0.115
-0.09
-0.115
-0.075
-0.12
-0.115
-0.115
-0.18
-0.195
-0.21
-0.19
-0.2
-0.17
-0.27
-0.155
0.515
1.49
1.73
0.53
-0.055
-0.18
-0.12
-0.125
-0.15
-0.13
-0.14
-0.12
-0.125
-0.1
-0.11
-0.085
-0.085
-0.055
-0.045
-0.01
0.01
0.065
0.115
0.19
0.255
0.33
0.395
0.455
0.455
0.4
0.305
0.195
0.095
0.02
-0.025
-0.05
-0.065
-0.075
-0.08
-0.085
-0.08
-0.08
-0.075
-0.08
-0.075
-0.08
-0.075
-0.09
-0.08
-0.09
-0.085
-0.1
-0.095
-0.115
-0.1
-0.12
-0.1
-0.125
-0.11
-0.135
-0.12
-0.14
-0.12
-0.145
-0.125
-0.155
-0.13
-0.155
-0.135
-0.11
-0.1
-0.09
-0.11
-0.11
-0.105
-0.18
-0.185
-0.225
-0.185
-0.225
-0.175
-0.23
-0.27
0.22
1.215
1.945
0.72
0.07
-0.18
-0.145
-0.125
-0.165
-0.135
-0.155
-0.125
-0.145
-0.105
-0.125
-0.09
-0.1
-0.06
-0.055
-0.015
-0.005
0.045
0.085
0.165
0.215
0.305
0.365
0.445
0.46
0.44
0.345
0.24
0.12
0.04
-0.015
-0.045
-0.07
-0.07
-0.08
-0.075
-0.08
-0.075
-0.08
-0.075
-0.075
-0.075
-0.08
-0.075
-0.085
-0.085
-0.09
-0.095
-0.1
-0.1
-0.11
-0.105
-0.115
-0.11
-0.12
-0.115
-0.13
-0.12
-0.135
-0.13
-0.14
-0.14
-0.145
-0.13
-0.125
-0.14
-0.12
-0.145
-0.125
-0.145
-0.145
-0.12
-0.075
-0.115
-0.075
-0.11
-0.11
-0.145
-0.175
-0.205
-0.18
-0.205
-0.17
-0.185
-0.285
0.075
1.06
2.0
1.06
0.22
-0.14
-0.13
-0.11
-0.14
-0.12
-0.135
-0.105
-0.12
-0.09
-0.105
-0.075
-0.08
-0.05
-0.04
0.0
0.025
0.09
0.14
0.225
0.29
0.375
0.435
0.495
0.475
0.405
0.285
0.17
0.065
0.005
-0.035
-0.055
-0.065
-0.07
-0.075
-0.075
-0.075
-0.075
-0.075
-0.075
-0.075
-0.08
-0.075
-0.08
-0.075
-0.09
-0.085
-0.1
-0.095
-0.105
-0.1
-0.115
-0.11
-0.125
-0.11
-0.13
-0.12
-0.145
-0.125
-0.145
-0.125
-0.15
-0.125
-0.15
-0.14
-0.115
-0.09
-0.105
-0.105
-0.105
-0.115
-0.175
-0.195
-0.225
-0.19
-0.225
-0.185
-0.245
-0.285
0.27
1.385
2.055
0.685
0.0
-0.19
-0.14
-0.125
-0.16
-0.13
-0.15
-0.115
-0.135
-0.095
-0.11
-0.075
-0.08
-0.045
-0.035
0.01
0.04
0.105
0.155
0.25
0.31
0.395
0.45
0.485
0.445
0.365
0.235
0.13
0.04
-0.015
-0.05
-0.065
-0.075
-0.075
-0.08
-0.07
-0.07
-0.07
-0.07
-0.07
-0.065
-0.07
-0.07
-0.075
-0.075
-0.08
-0.08
-0.09
-0.095
-0.1
-0.105
-0.105
-0.11
-0.115
-0.115
-0.115
-0.115
-0.125
-0.12
-0.13
-0.13
-0.135
-0.13
-0.14
-0.14
-0.125
-0.08
-0.12
-0.075
-0.12
-0.105
-0.135
-0.18
-0.21
-0.2
-0.205
-0.19
-0.185
-0.295
-0.025
0.86
1.88
1.32
0.32
-0.13
-0.145
-0.115
-0.14
-0.13
-0.14
-0.125
-0.125
-0.11
-0.11
-0.09
-0.08
-0.06
-0.045
-0.01
0.015
0.075
0.13
0.205
0.275
0.355
0.43
0.48
0.475
0.41
0.3
0.18
0.075
0.005
-0.035
-0.06
-0.07
-0.075
-0.085
-0.08
-0.08
-0.075
-0.075
-0.075
-0.075
-0.075
-0.075
-0.08
-0.08
-0.085
-0.085
-0.09
-0.09
-0.1
-0.1
-0.1
-0.11
-0.11
-0.115
-0.12
-0.125
-0.125
-0.13
-0.13
-0.13
-0.13
-0.14
-0.135
-0.14
-0.145
-0.13
-0.09
-0.125
-0.075
-0.13
-0.115
-0.135
-0.18
-0.21
-0.2
-0.205
-0.2
-0.195
-0.3
-0.07
0.77
1.82
1.415
0.355
-0.135
-0.165
-0.125
-0.145
-0.14
-0.145
-0.13
-0.135
-0.12
-0.11
-0.095
-0.085
-0.065
-0.045
-0.015
0.015
0.065
0.125
0.205
0.275
0.355
0.42
0.48
0.485
0.43
0.325
0.2
0.095
0.02
-0.025
-0.05
-0.065
-0.07
-0.075
-0.075
-0.075
-0.075
-0.07
-0.075
-0.075
-0.07
-0.075
-0.075
-0.075
-0.08
-0.085
-0.085
-0.085
-0.095
-0.095
-0.1
-0.105
-0.105
-0.105
-0.12
-0.11
-0.12
-0.115
-0.135
-0.125
-0.14
-0.135
-0.145
-0.14
-0.125
-0.075
-0.12
-0.06
-0.125
-0.1
-0.14
-0.17
-0.21
-0.19
-0.21
-0.175
-0.195
-0.3
0.05
1.025
1.985
1.1
0.235
-0.145
-0.14
-0.115
-0.145
-0.125
-0.14
-0.115
-0.125
-0.1
-0.105
-0.08
-0.085
-0.05
-0.045
-0.005
0.015
0.08
0.13
0.21
0.29
0.365
0.435
0.485
0.475
0.41
0.29
0.175
0.075
0.005
-0.045
-0.06
-0.07
-0.075
-0.08
-0.075
-0.08
-0.08
-0.08
-0.08
-0.08
-0.08
-0.085
-0.08
-0.09
-0.09
-0.1
-0.095
-0.11
-0.11
-0.12
-0.11
-0.125
-0.12
-0.135
-0.125
-0.145
-0.125
-0.145
-0.13
-0.155
-0.135
-0.155
-0.145
-0.13
-0.085
-0.13
-0.09
-0.12
-0.12
-0.16
-0.185
-0.23
-0.2
-0.23
-0.19
-0.215
-0.31
0.095
1.13
2.035
0.94
0.145
-0.165
-0.145
-0.12
-0.16
-0.13
-0.155
-0.12
-0.135
-0.11
-0.12
-0.09
-0.095
-0.06
-0.06
-0.01
0.01
0.08
0.13
0.22
0.28
0.37
0.435
0.49
0.465
0.39
0.275
0.155
0.05
-0.005
-0.05
-0.065
-0.08
-0.08
-0.085
-0.085
-0.08
-0.085
-0.08
-0.07
-0.07
-0.08
-0.075
-0.08
-0.08
-0.09
-0.085
-0.095
-0.085
-0.1
-0.095
-0.115
-0.1
-0.12
-0.105
-0.125
-0.115
-0.135
-0.115
-0.145
-0.125
-0.14
-0.14
-0.115
-0.075
-0.12
-0.08
-0.11
-0.11
-0.145
-0.175
-0.22
-0.185
-0.21
-0.175
-0.2
-0.3
0.11
1.145
2.045
0.965
0.17
-0.15
-0.13
-0.105
-0.14
-0.115
-0.13
-0.105
-0.115
-0.09
-0.1
-0.065
-0.07
-0.035
-0.035
0.01
0.035
0.1
0.155
0.235
0.295
0.385
0.45
0.5
0.48
0.405
0.285
0.175
0.065
0.0
-0.035
-0.055
-0.065
-0.07
-0.08
-0.075
-0.075
-0.075
-0.075
-0.08
-0.08
-0.08
-0.085
-0.09
-0.085
-0.095
-0.095
-0.115
-0.11
-0.12
-0.115
-0.125
-0.115
-0.13
-0.12
-0.135
-0.125
-0.145
-0.13
-0.155
-0.135
-0.15
-0.14
-0.105
-0.105
-0.09
-0.115
-0.105
-0.11
-0.165
-0.19
-0.22
-0.19
-0.21
-0.175
-0.25
-0.225
0.425
1.56
1.95
0.58
-0.045
-0.17
-0.115
-0.115
-0.14
-0.115
-0.13
-0.1
-0.11
-0.085
-0.095
-0.065
-0.065
-0.035
-0.025
0.02
0.045
0.11
0.165
0.255
0.32
0.405
0.46
0.495
0.445
0.355
0.225
0.12
0.035
-0.015
-0.055
-0.065
-0.08
-0.08
-0.08
-0.08
-0.08
-0.08
-0.08
-0.08
-0.08
-0.085
-0.085
-0.09
-0.09
-0.095
-0.1
-0.105
-0.11
-0.115
-0.12
-0.125
-0.125
-0.13
-0.135
-0.14
-0.145
-0.15
-0.15
-0.145
-0.155
-0.135
-0.1
-0.13
-0.08
-0.13
-0.11
-0.135
-0.175
-0.21
-0.21
-0.21
-0.2
-0.19
-0.295
-0.085
0.755
1.795
1.465
0.39
-0.115
-0.16
-0.12
-0.14
-0.135
-0.135
-0.125
-0.115
-0.105
-0.1
-0.09
-0.075
-0.06
-0.04
-0.01
0.025
0.075
0.135
0.2
0.275
0.355
0.43
0.48
0.485
0.425
0.315
0.195
0.09
0.015
-0.035
-0.055
-0.075
-0.075
-0.08
-0.085
-0.08
-0.08
-0.085
-0.075
-0.08
-0.075
-0.08
-0.075
-0.085
-0.085
-0.09
-0.09
-0.105
-0.095
-0.11
-0.11
-0.125
-0.115
-0.135
-0.12
-0.14
-0.125
-0.14
-0.12
-0.14
-0.125
-0.1
-0.105
-0.08
-0.105
-0.1
-0.105
-0.165
-0.19
-0.215
-0.18
-0.21
-0.17
-0.255
-0.2
0.47
1.59
1.91
0.56
-0.055
-0.165
-0.115
-0.11
-0.13
-0.11
-0.13
-0.105
-0.12
-0.09
-0.1
-0.07
-0.075
-0.04
-0.025
0.015
0.05
0.115
0.175
0.25
0.325
0.405
0.46
0.49
0.44
0.34
0.215
0.105
0.025
-0.02
-0.055
-0.07
-0.08
-0.08
-0.085
-0.09
-0.085
-0.085
-0.085
-0.08
-0.09
-0.09
-0.095
-0.095
-0.095
-0.1
-0.1
-0.11
-0.11
-0.115
-0.12
-0.12
-0.125
-0.12
-0.13
-0.135
-0.135
-0.14
-0.14
-0.14
-0.14
-0.115
-0.085
-0.12
-0.075
-0.115
-0.11
-0.135
-0.18
-0.205
-0.205
-0.2
-0.19
-0.185
-0.29
-0.075
0.76
1.81
1.465
0.38
-0.115
-0.15
-0.115
-0.14
-0.135
-0.135
-0.125
-0.12
-0.115
-0.105
-0.085
-0.08
-0.06
-0.04
-0.015
0.025
0.075
0.13
0.205
0.28
0.355
0.43
0.485
0.495
0.43
0.32
0.205
0.1
0.025
-0.015
-0.045
-0.065
-0.07
-0.07
-0.065
-0.07
-0.06
-0.06
-0.065
-0.06
-0.065
-0.065
-0.075
-0.07
-0.08
-0.08
-0.095
-0.085
-0.095
-0.09
-0.1
-0.1
-0.11
-0.105
-0.12
-0.11
-0.13
-0.115
-0.13
-0.12
-0.14
-0.125
-0.145
-0.14
-0.11
-0.07
-0.11
-0.075
-0.1
-0.105
-0.14
-0.175
-0.205
-0.18
-0.2
-0.175
-0.19
-0.295
0.05
1.02
1.965
1.115
0.235
-0.145
-0.14
-0.115
-0.15
-0.13
-0.145
-0.12
-0.135
-0.11
-0.11
-0.085
-0.08
-0.045
-0.045
-0.005
0.015
0.075
0.13
0.205
0.27
0.355
0.42
0.48
0.475
0.415
0.305
0.19
0.09
0.015
-0.03
-0.055
-0.07
-0.075
-0.085
-0.08
-0.08
-0.08
-0.08
-0.08
-0.085
-0.075
-0.08
-0.07
-0.085
-0.075
-0.09
-0.085
-0.1
-0.095
-0.115
-0.105
-0.125
-0.12
-0.135
-0.12
-0.14
-0.13
-0.15
-0.135
-0.15
-0.145
-0.12
-0.085
-0.115
-0.085
-0.105
-0.11
-0.155
-0.185
-0.22
-0.195
-0.22
-0.19
-0.2
-0.31
0.04
1.015
1.96
1.085
0.23
-0.15
-0.145
-0.125
-0.155
-0.14
-0.155
-0.125
-0.135
-0.105
-0.115
-0.085
-0.085
-0.055
-0.05
-0.005
0.02
0.08
0.13
0.21
0.28
0.365
0.43
0.49
0.48
0.41
0.29
0.18
0.075
0.0
-0.04
-0.06
-0.08
-0.075
-0.08
-0.08
-0.07
-0.07
-0.07
-0.065
-0.065
-0.07
-0.075
-0.075
-0.08
-0.09
-0.085
-0.095
-0.095
-0.095
-0.105
-0.11
-0.105
-0.11
-0.115
-0.12
-0.12
-0.125
-0.13
-0.135
-0.13
-0.11
-0.075
-0.11
-0.07
-0.11
-0.105
-0.13
-0.175
-0.205
-0.205
-0.205
-0.19
-0.18
-0.29
-0.07
0.765
1.805
1.455
0.375
-0.11
-0.15
-0.115
-0.135
-0.135
-0.135
-0.13
-0.125
-0.115
-0.11
-0.095
-0.08
-0.06
-0.045
-0.015
0.01
0.06
0.125
0.195
0.27
0.345
0.42
0.48
0.485
0.425
0.32
0.2
0.095
0.02
-0.02
-0.05
-0.065
-0.07
-0.07
-0.075
-0.065
-0.075
-0.07
-0.07
-0.06
-0.07
-0.065
-0.07
-0.07
-0.08
-0.08
-0.09
-0.085
-0.1
-0.095
-0.11
-0.105
-0.12
-0.11
-0.13
-0.115
-0.145
-0.125
-0.15
-0.13
-0.15
-0.135
-0.11
-0.075
-0.095
-0.085
-0.105
-0.105
-0.155
-0.175
-0.215
-0.18
-0.21
-0.17
-0.205
-0.29
0.155
1.22
2.07
0.87
0.115
-0.155
-0.13
-0.115
-0.15
-0.125
-0.15
-0.115
-0.135
-0.095
-0.11
-0.08
-0.09
-0.05
-0.05
0.0
0.02
0.085
0.135
0.22
0.285
0.38
0.435
0.495
0.475
0.405
0.285
0.165
0.065
0.005
-0.04
-0.06
-0.07
-0.075
-0.08
-0.08
-0.075
-0.075
-0.07
-0.07
-0.065
-0.065
-0.065
-0.075
-0.07
-0.085
-0.075
-0.095
-0.085
-0.105
-0.095
-0.11
-0.105
-0.115
-0.11
-0.12
-0.115
-0.125
-0.12
-0.135
-0.125
-0.14
-0.125
-0.09
-0.105
-0.07
-0.11
-0.095
-0.105
-0.165
-0.19
-0.21
-0.185
-0.21
-0.175
-0.265
-0.185
0.515
1.63
1.83
0.515
-0.075
-0.17
-0.12
-0.125
-0.145
-0.125
-0.135
-0.115
-0.12
-0.1
-0.105
-0.08
-0.07
-0.04
-0.02
0.015
0.045
0.115
0.175
0.255
0.325
0.41
0.47
0.495
0.45
0.36
0.24
0.125
0.045
-0.015
-0.045
-0.07
-0.07
-0.07
-0.07
-0.075
-0.075
-0.07
-0.075
-0.075
-0.075
-0.08
-0.075
-0.08
-0.075
-0.095
-0.085
-0.1
-0.095
-0.11
-0.095
-0.12
-0.105
-0.125
-0.11
-0.13
-0.12
-0.14
-0.125
-0.14
-0.14
-0.115
-0.075
-0.11
-0.08
-0.095
-0.095
-0.15
-0.175
-0.215
-0.185
-0.215
-0.17
-0.205
-0.3
0.145
1.19
2.06
0.91
0.14
-0.16
-0.135
-0.11
-0.15
-0.135
-0.145
-0.125
-0.135
-0.1
-0.13
-0.09
-0.095
-0.06
-0.055
0.0
0.015
0.08
0.13
0.21
0.275
0.36
0.42
0.475
0.455
0.385
0.27
0.165
0.055
0.0
-0.04
-0.065
-0.085
-0.08
-0.09
-0.09
-0.09
-0.085
-0.09
-0.09
-0.09
-0.08
-0.095
-0.085
-0.095
-0.095
-0.1
-0.095
-0.11
-0.105
-0.12
-0.11
-0.125
-0.115
-0.135
-0.12
-0.145
-0.125
-0.15
-0.135
-0.115
-0.08
-0.115
-0.08
-0.11
-0.1
-0.15
-0.175
-0.22
-0.195
-0.215
-0.185
-0.205
-0.305
0.1
1.125
2.03
0.975
0.17
-0.155
-0.13
-0.115
-0.155
-0.13
-0.145
-0.12
-0.135
-0.105
-0.11
-0.08
-0.085
-0.05
-0.05
-0.005
0.01
0.08
0.125
0.215
0.28
0.365
0.43
0.49
0.46
0.395
0.275
0.155
0.055
-0.005
-0.055
-0.07
-0.085
-0.085
-0.095
-0.085
-0.09
-0.085
-0.095
-0.085
-0.09
-0.08
-0.085
-0.09
-0.095
-0.09
-0.11
-0.095
-0.115
-0.105
-0.12
-0.105
-0.125
-0.115
-0.135
-0.12
-0.14
-0.125
-0.14
-0.12
-0.09
-0.1
-0.08
-0.11
-0.095
-0.1
-0.165
-0.19
-0.215
-0.19
-0.21
-0.175
-0.255
-0.205
0.45
1.56
1.92
0.55
-0.065
-0.17
-0.125
-0.125
-0.155
-0.13
-0.145
-0.12
-0.13
-0.1
-0.11
-0.085
-0.085
-0.045
-0.035
0.005
0.035
0.105
0.165
0.25
0.315
0.4
0.45
0.485
0.435
0.345
0.215
0.11
0.02
-0.03
-0.06
-0.075
-0.085
-0.09
-0.08
-0.09
-0.08
-0.085
-0.08
-0.09
-0.09
-0.095
-0.085
-0.1
-0.095
-0.11
-0.1
-0.12
-0.11
-0.135
-0.12
-0.145
-0.125
-0.15
-0.13
-0.155
-0.13
-0.15
-0.14
-0.12
-0.09
-0.11
-0.1
-0.115
-0.115
-0.17
-0.195
-0.23
-0.195
-0.225
-0.18
-0.225
-0.295
0.18
1.26
2.07
0.81
0.07
-0.165
-0.13
-0.115
-0.155
-0.13
-0.145
-0.115
-0.135
-0.1
-0.115
-0.08
-0.085
-0.045
-0.045
0.0
0.02
0.09
0.14
0.23
0.295
0.38
0.44
0.495
0.46
0.385
0.265
0.155
0.055
0.0
-0.045
-0.055
-0.075
-0.075
-0.08
-0.08
-0.075
-0.075
-0.075
-0.075
-0.08
-0.085
-0.085
-0.085
-0.09
-0.095
-0.1
-0.105
-0.11
-0.115
-0.12
-0.12
-0.125
-0.13
-0.13
-0.13
-0.14
-0.135
-0.13
-0.14
-0.115
-0.075
-0.11
-0.065
-0.105
-0.095
-0.125
-0.17
-0.2
-0.185
-0.195
-0.175
-0.175
-0.28
-0.03
0.84
1.865
1.385
0.345
-0.11
-0.14
-0.115
-0.14
-0.135
-0.135
-0.125
-0.125
-0.11
-0.105
-0.09
-0.08
-0.06
-0.045
-0.015
0.015
0.07
0.125
0.195
0.27
0.35
0.42
0.475
0.48
0.425
0.315
0.195
0.09
0.02
-0.03
-0.055
-0.075
-0.08
-0.085
-0.08
-0.08
-0.08
-0.08
-0.07
-0.09
-0.08
-0.09
-0.085
-0.095
-0.085
-0.1
-0.09
-0.11
-0.1
-0.12
-0.11
-0.13
-0.12
-0.14
-0.12
-0.15
-0.13
-0.15
-0.14
-0.12
-0.085
-0.11
-0.09
-0.11
-0.105
-0.155
-0.18
-0.22
-0.19
-0.215
-0.18
-0.215
-0.295
0.165
1.235
2.055
0.83
0.09
-0.17
-0.135
-0.12
-0.155
-0.125
-0.155
-0.12
-0.14
-0.11
-0.125
-0.09
-0.095
-0.055
-0.05
-0.005
0.01
0.075
0.125
0.21
0.27
0.35
0.415
0.47
0.44
0.365
0.24
0.13
0.04
-0.015
-0.06
-0.08
-0.105
-0.095
-0.105
-0.1
-0.1
-0.105
-0.1
-0.095
-0.105
-0.095
-0.115
-0.11
-0.12
-0.105
-0.125
-0.12
-0.135
-0.125
-0.145
-0.13
-0.15
-0.135
-0.155
-0.145
-0.165
-0.145
-0.165
-0.155
-0.13
-0.105
-0.115
-0.105
-0.115
-0.11
-0.18
-0.195
-0.235
-0.2
-0.235
-0.19
-0.24
-0.29
0.235
1.34
2.07
0.745
0.04
-0.18
-0.13
-0.12
-0.155
-0.135
-0.145
-0.115
-0.135
-0.1
-0.12
-0.085
-0.09
-0.045
-0.04
0.005
0.02
0.1
0.14
0.23
0.28
0.375
0.43
0.48
0.455
0.38
0.26
0.15
0.055
0.005
-0.04
-0.055
-0.06
-0.065
-0.07
-0.06
-0.065
-0.06
-0.065
-0.055
-0.06
-0.055
-0.055
-0.055
-0.065
-0.06
-0.07
-0.06
-0.08
-0.07
-0.085
-0.08
-0.095
-0.085
-0.105
-0.09
-0.115
-0.095
-0.115
-0.105
-0.12
-0.115
-0.095
-0.055
-0.095
-0.06
-0.09
-0.085
-0.13
-0.155
-0.2
-0.18
-0.205
-0.17
-0.195
-0.29
0.11
1.125
2.015
0.985
0.175
-0.145
-0.11
-0.1
-0.14
-0.115
-0.135
-0.105
-0.12
-0.095
-0.105
-0.075
-0.085
-0.05
-0.04
0.0
0.02
0.085
0.135
0.22
0.29
0.37
0.435
0.495
0.48
0.41
0.295
0.18
0.075
0.01
-0.035
-0.05
-0.07
-0.075
-0.08
-0.075
-0.08
-0.075
-0.075
-0.07
-0.075
-0.07
-0.075
-0.07
-0.085
-0.08
-0.09
-0.085
-0.1
-0.095
-0.11
-0.095
-0.115
-0.105
-0.125
-0.11
-0.125
-0.12
-0.14
-0.12
-0.145
-0.125
-0.15
-0.125
-0.1
-0.1
-0.08
-0.105
-0.1
-0.105
-0.17
-0.185
-0.215
-0.185
-0.215
-0.17
-0.235
-0.24
0.365
1.475
1.985
0.615
-0.025
-0.175
-0.12
-0.115
-0.145
-0.115
-0.135
-0.105
-0.12
-0.085
-0.1
-0.065
-0.07
-0.035
-0.03
0.01
0.04
0.11
0.165
0.245
0.31
0.395
0.455
0.5
0.47
0.39
0.265
0.155
0.06
0.005
-0.03
-0.045
-0.06
-0.06
-0.065
-0.065
-0.065
-0.06
-0.06
-0.06
-0.065
-0.07
-0.07
-0.07
-0.075
-0.08
-0.085
-0.085
-0.085
-0.09
-0.1
-0.1
-0.1
-0.105
-0.11
-0.115
-0.115
-0.12
-0.12
-0.125
-0.125
-0.13
-0.135
-0.105
-0.075
-0.105
-0.065
-0.1
-0.105
-0.13
-0.17
-0.205
-0.19
-0.195
-0.18
-0.17
-0.28
-0.05
0.81
1.835
1.425
0.375
-0.105
-0.14
-0.1
-0.125
-0.12
-0.13
-0.115
-0.115
-0.095
-0.1
-0.08
-0.07
-0.055
-0.04
-0.01
0.02
0.065
0.125
0.195
0.27
0.35
0.415
0.485
0.495
0.445
0.345
0.225
0.115
0.035
-0.015
-0.04
-0.06
-0.065
-0.075
-0.07
-0.07
-0.06
-0.065
-0.065
-0.065
-0.06
-0.065
-0.065
-0.07
-0.075
-0.08
-0.08
-0.085
-0.085
-0.09
-0.095
-0.1
-0.105
-0.105
-0.11
-0.115
-0.12
-0.12
-0.125
-0.13
-0.125
-0.14
-0.115
-0.08
-0.11
-0.07
-0.11
-0.11
-0.135
-0.185
-0.21
-0.21
-0.21
-0.205
-0.19
-0.295
-0.09
0.735
1.78
1.465
0.38
-0.125
-0.165
-0.135
-0.145
-0.15
-0.155
-0.14
-0.135
-0.12
-0.115
-0.1
-0.1
-0.08
-0.065
-0.04
0.0
0.04
0.09
0.165
0.24
0.305
0.38
0.435
0.455
0.415
0.31
0.19
0.08
0.0
-0.045
-0.08
-0.095
-0.105
-0.11
-0.105
-0.11
-0.1
-0.115
-0.11
-0.105
-0.11
-0.115
-0.1
-0.12
-0.11
-0.125
-0.115
-0.13
-0.12
-0.14
-0.125
-0.14
-0.13
-0.155
-0.135
-0.16
-0.15
-0.17
-0.145
-0.17
-0.16
-0.14
-0.1
-0.135
-0.12
-0.13
-0.125
-0.185
-0.2
-0.235
-0.205
-0.235
-0.2
-0.24
-0.325
0.16
1.22
2.045
0.83
0.1
-0.19
-0.145
-0.125
-0.17
-0.14
-0.165
-0.13
-0.145
-0.115
-0.12
-0.09
-0.1
-0.06
-0.075
-0.01
0.01
0.07
0.12
0.205
0.265
0.355
0.41
0.47
0.44
0.385
0.275
0.155
0.06
0.0
-0.035
-0.055
-0.07
-0.08
-0.08
-0.075
-0.075
-0.075
-0.065
-0.065
-0.06
-0.06
-0.055
-0.06
-0.06
-0.065
-0.065
-0.075
-0.07
-0.08
-0.08
-0.085
-0.09
-0.095
-0.095
-0.11
-0.105
-0.115
-0.11
-0.12
-0.11
-0.125
-0.11
-0.065
-0.105
-0.065
-0.1
-0.08
-0.095
-0.15
-0.19
-0.195
-0.185
-0.185
-0.17
-0.265
-0.095
0.68
1.72
1.66
0.44
-0.095
-0.13
-0.11
-0.115
-0.13
-0.12
-0.12
-0.105
-0.105
-0.085
-0.08
-0.065
-0.055
-0.025
-0.005
0.03
0.07
0.13
0.195
0.275
0.35
0.425
0.49
0.515
0.465
0.365
0.245
0.135
0.045
-0.005
-0.045
-0.06
-0.07
-0.07
-0.075
-0.07
-0.065
-0.07
-0.07
-0.065
-0.07
-0.065
-0.07
-0.07
-0.075
-0.07
-0.085
-0.085
-0.09
-0.09
-0.1
-0.095
-0.115
-0.105
-0.125
-0.11
-0.125
-0.115
-0.135
-0.115
-0.14
-0.125
-0.15
-0.13
-0.15
-0.145
-0.125
-0.09
-0.12
-0.095
-0.115
-0.105
-0.165
-0.185
-0.225
-0.19
-0.22
-0.18
-0.22
-0.305
0.135
1.18
2.025
0.845
0.095
-0.175
-0.14
-0.13
-0.175
-0.15
-0.175
-0.14
-0.165
-0.135
-0.15
-0.115
-0.125
-0.09
-0.09
-0.05
-0.03
0.03
0.07
0.155
0.22
0.305
0.37
0.43
0.425
0.365
0.245
0.125
0.01
-0.06
-0.11
-0.14
-0.16
-0.16
-0.17
-0.175
-0.175
-0.175
-0.18
-0.185
-0.185
-0.19
-0.19
-0.205
-0.2
-0.205
-0.21
-0.215
-0.21
-0.225
-0.22
-0.23
-0.225
-0.24
-0.23
-0.24
-0.23
-0.24
-0.225
-0.19
-0.215
-0.18
-0.215
-0.205
-0.215
-0.275
-0.305
-0.315
-0.3
-0.31
-0.285
-0.38
-0.24
0.52
1.59
1.545
0.35
-0.195
-0.265
-0.225
-0.23
-0.25
-0.235
-0.24
-0.225
-0.22
-0.21
-0.2
-0.18
-0.17
-0.14
-0.13
-0.09
-0.045
0.005
0.065
0.155
0.225
0.295
0.355
0.385
0.33
0.225
0.11
0.0
-0.075
-0.125
-0.16
-0.17
-0.175
-0.185
-0.185
-0.185
-0.18
-0.19
-0.175
-0.18
-0.17
-0.18
-0.175
-0.185
-0.18
-0.19
-0.175
-0.195
-0.18
-0.195
-0.18
-0.21
-0.19
-0.195
-0.19
-0.16
-0.145
-0.14
-0.15
-0.14
-0.16
-0.21
-0.23
-0.27
-0.23
-0.26
-0.225
-0.295
-0.245
0.405
1.515
1.84
0.53
-0.09
-0.23
-0.16
-0.16
-0.18
-0.16
-0.16
-0.15
-0.155
-0.13
-0.145
-0.11
-0.1
-0.07
-0.07
-0.025
0.0
0.065
0.12
0.205
0.25
0.355
0.395
0.42
0.365
0.29
0.155
0.05
-0.015
-0.075
-0.1
-0.125
-0.135
-0.125
-0.14
-0.12
-0.135
-0.135
-0.13
-0.12
-0.135
-0.115
-0.105
-0.12
-0.135
-0.14
-0.135
-0.145
-0.145
-0.15
-0.145
-0.16
-0.09
-0.135
-0.08
-0.13
-0.115
-0.125
-0.19
-0.225
-0.225
-0.215
-0.235
-0.235
-0.315
-0.075
0.755
1.765
1.465
0.38
-0.12
-0.15
-0.12
-0.14
-0.125
-0.14
-0.13
-0.115
-0.13
-0.11
-0.12
-0.075
-0.07
-0.06
-0.015
0.015
0.05
0.105
0.17
0.255
0.335
0.405
0.45
0.43
0.35
0.24
0.135
0.03
-0.025
-0.055
-0.085
-0.1
-0.12
-0.1
-0.12
-0.115
-0.11
-0.1
-0.105
-0.095
-0.1
-0.08
-0.1
-0.075
-0.105
-0.085
-0.105
-0.08
-0.105
-0.095
-0.07
-0.04
-0.08
-0.045
-0.055
-0.05
-0.125
-0.145
-0.18
-0.145
-0.18
-0.135
-0.205
-0.225
0.38
1.485
2.09
0.69
0.02
-0.125
-0.075
-0.075
-0.125
-0.085
-0.105
-0.075
-0.09
-0.075
-0.08
-0.05
-0.06
-0.01
-0.01
0.03
0.05
0.13
0.195
0.255
0.33
0.41
0.455
0.47
0.415
0.315
0.19
0.105
0.02
-0.02
-0.045
-0.065
-0.08
-0.075
-0.09
-0.085
-0.09
-0.085
-0.085
-0.08
-0.08
-0.075
-0.085
-0.075
-0.08
-0.08
-0.09
-0.08
-0.015
0.01
0.035
0.075
0.055
0.05
0.005
-0.115
-0.17
-0.17
-0.175
-0.17
-0.17
-0.165
-0.25
-0.11
0.67
1.735
1.65
0.445
-0.11
-0.125
-0.095
-0.12
-0.12
-0.12
-0.125
-0.105
-0.1
-0.09
-0.085
-0.065
-0.055
-0.03
-0.005
0.035
0.07
0.13
0.205
0.27
0.345
0.42
0.46
0.45
0.365
0.265
0.15
0.05
-0.005
-0.045
-0.07
-0.075
-0.085
-0.08
-0.095
-0.075
-0.095
-0.075
-0.09
-0.085
-0.09
-0.085
-0.08
-0.1
-0.095
-0.08
-0.03
0.0
0.02
0.05
0.035
0.035
-0.005
-0.12
-0.185
-0.175
-0.195
-0.18
-0.19
-0.17
-0.25
-0.2
0.495
1.575
1.715
0.49
-0.09
-0.16
-0.125
-0.135
-0.16
-0.14
-0.155
-0.13
-0.13
-0.115
-0.115
-0.095
-0.085
-0.065
-0.04
0.0
0.045
0.1
0.155
0.23
0.305
0.375
0.42
0.415
0.335
0.235
0.12
0.015
-0.05
-0.09
-0.125
-0.13
-0.13
-0.13
-0.135
-0.14
-0.13
-0.125
-0.14
-0.14
-0.135
-0.155
-0.145
-0.145
-0.13
-0.075
-0.08
-0.03
-0.02
0.0
-0.03
-0.065
-0.18
-0.23
-0.225
-0.225
-0.235
-0.23
-0.215
-0.315
-0.18
0.58
1.63
1.45
0.41
-0.135
-0.215
-0.16
-0.175
-0.175
-0.175
-0.165
-0.15
-0.16
-0.145
-0.135
-0.135
-0.125
-0.095
-0.065
-0.025
0.015
0.08
0.13
0.2
0.275
0.34
0.38
0.35
0.28
0.18
0.065
-0.015
-0.06
-0.11
-0.13
-0.135
-0.125
-0.155
-0.13
-0.15
-0.135
-0.135
-0.125
-0.14
-0.11
-0.135
-0.135
-0.105
-0.05
-0.05
-0.005
-0.015
0.045
-0.01
-0.075
-0.215
-0.215
-0.23
-0.215
-0.245
-0.215
-0.235
-0.365
0.055
1.095
1.95
0.885
0.13
-0.195
-0.16
-0.15
-0.195
-0.175
-0.19
-0.15
-0.18
-0.14
-0.15
-0.125
-0.12
-0.085
-0.07
-0.035
0.0
0.065
0.115
0.2
0.245
0.34
0.375
0.39
0.325
0.24
0.125
0.045
-0.03
-0.075
-0.095
-0.105
-0.125
-0.11
-0.12
-0.115
-0.115
-0.11
-0.13
-0.095
-0.105
-0.09
-0.11
-0.08
-0.065
0.005
0.005
0.05
0.03
0.09
0.025
-0.04
-0.175
-0.165
-0.185
-0.19
-0.205
-0.175
-0.195
-0.305
0.125
1.18
2.03
0.91
0.15
-0.16
-0.11
-0.12
-0.155
-0.125
-0.14
-0.115
-0.135
-0.105
-0.12
-0.08
-0.085
-0.05
-0.055
0.0
0.015
0.09
0.15
0.22
0.285
0.365
0.405
0.425
0.355
0.26
0.145
0.055
-0.02
-0.06
-0.09
-0.085
-0.11
-0.105
-0.115
-0.105
-0.115
-0.1
-0.115
-0.1
-0.11
-0.1
-0.115
-0.105
-0.11
-0.1
-0.045
0.0
0.005
0.055
0.015
0.05
-0.01
-0.105
-0.205
-0.19
-0.22
-0.19
-0.225
-0.18
-0.24
-0.29
0.27
1.385
2.02
0.61
-0.06
-0.175
-0.135
-0.135
-0.165
-0.135
-0.155
-0.125
-0.145
-0.11
-0.12
-0.095
-0.095
-0.065
-0.05
-0.005
0.02
0.095
0.15
0.23
0.295
0.375
0.41
0.425
0.34
0.245
0.13
0.035
-0.03
-0.065
-0.1
-0.105
-0.12
-0.11
-0.12
-0.11
-0.125
-0.115
-0.125
-0.095
-0.135
-0.115
-0.14
-0.115
-0.13
-0.115
-0.085
-0.025
-0.03
0.02
-0.015
0.025
-0.03
-0.12
-0.215
-0.2
-0.235
-0.205
-0.24
-0.2
-0.24
-0.335
0.11
1.16
1.99
0.74
0.02
-0.2
-0.14
-0.14
-0.18
-0.15
-0.17
-0.15
-0.16
-0.125
-0.145
-0.105
-0.11
-0.075
-0.07
-0.015
0.0
0.065
0.125
0.2
0.26
0.34
0.38
0.4
0.32
0.24
0.125
0.025
-0.045
-0.08
-0.115
-0.13
-0.14
-0.145
-0.145
-0.15
-0.14
-0.15
-0.15
-0.155
-0.155
-0.16
-0.16
-0.165
-0.16
-0.17
-0.17
-0.15
-0.075
-0.085
-0.045
-0.045
0.005
-0.065
-0.125
-0.24
-0.25
-0.27
-0.255
-0.265
-0.265
-0.255
-0.375
-0.105
0.78
1.785
1.095
0.19
-0.205
-0.215
-0.2
-0.23
-0.22
-0.225
-0.2
-0.21
-0.195
-0.2
-0.165
-0.165
-0.145
-0.135
-0.09
-0.065
0.0
0.05
0.115
0.18
0.25
0.325
0.355
0.315
0.22
0.115
0.015
-0.065
-0.095
-0.14
-0.16
-0.16
-0.16
-0.165
-0.17
-0.15
-0.155
-0.15
-0.165
-0.145
-0.16
-0.145
-0.155
-0.145
-0.17
-0.15
-0.125
-0.06
-0.07
-0.005
-0.045
0.0
-0.065
-0.155
-0.24
-0.225
-0.26
-0.235
-0.265
-0.225
-0.27
-0.35
0.12
1.195
1.965
0.675
-0.03
-0.22
-0.175
-0.17
-0.215
-0.19
-0.2
-0.18
-0.195
-0.155
-0.19
-0.14
-0.155
-0.12
-0.115
-0.065
-0.03
0.03
0.075
0.17
0.22
0.305
0.345
0.36
0.285
0.185
0.07
-0.01
-0.08
-0.12
-0.16
-0.16
-0.175
-0.165
-0.175
-0.175
-0.175
-0.17
-0.175
-0.165
-0.175
-0.165
-0.18
-0.165
-0.14
-0.08
-0.075
-0.025
-0.03
0.01
-0.045
-0.095
-0.245
-0.23
-0.26
-0.24
-0.255
-0.225
-0.25
-0.36
-0.005
0.91
1.86
0.995
0.16
-0.195
-0.17
-0.155
-0.185
-0.185
-0.185
-0.165
-0.175
-0.15
-0.15
-0.125
-0.135
-0.09
-0.105
-0.055
-0.025
0.035
0.08
0.165
0.23
0.305
0.35
0.36
0.3
0.23
0.105
0.03
-0.035
-0.065
-0.115
-0.1
-0.115
-0.135
-0.14
-0.12
-0.14
-0.115
-0.125
-0.105
-0.115
-0.095
-0.115
-0.09
-0.055
0.0
0.01
0.065
0.035
0.09
0.005
-0.085
-0.18
-0.165
-0.205
-0.18
-0.205
-0.17
-0.205
-0.3
0.205
1.275
2.05
0.77
0.045
-0.16
-0.11
-0.11
-0.145
-0.11
-0.15
-0.11
-0.135
-0.095
-0.11
-0.065
-0.07
-0.045
-0.04
0.015
0.04
0.11
0.15
0.245
0.295
0.37
0.395
0.41
0.335
0.24
0.12
0.045
-0.02
-0.05
-0.09
-0.085
-0.095
-0.1
-0.11
-0.095
-0.095
-0.095
-0.105
-0.09
-0.105
-0.095
-0.11
-0.085
-0.115
-0.09
-0.04
0.0
0.01
0.045
0.035
0.05
-0.02
-0.125
-0.195
-0.185
-0.22
-0.195
-0.215
-0.185
-0.245
-0.265
0.335
1.465
1.945
0.545
-0.09
-0.175
-0.125
-0.11
-0.165
-0.12
-0.15
-0.115
-0.13
-0.1
-0.1
-0.075
-0.075
-0.04
-0.025
0.015
0.05
0.12
0.175
0.25
0.315
0.39
0.435
0.43
0.34
0.245
0.13
0.04
-0.015
-0.055
-0.08
-0.1
-0.1
-0.1
-0.095
-0.11
-0.105
-0.105
-0.1
-0.11
-0.105
-0.115
-0.105
-0.125
-0.11
-0.14
-0.115
-0.065
-0.025
-0.015
0.025
0.01
0.01
-0.035
-0.145
-0.205
-0.2
-0.225
-0.2
-0.225
-0.195
-0.25
-0.27
0.3
1.42
1.885
0.55
-0.09
-0.185
-0.145
-0.14
-0.175
-0.155
-0.165
-0.14
-0.14
-0.115
-0.125
-0.095
-0.105
-0.075
-0.055
-0.015
0.01
0.07
0.13
0.21
0.27
0.35
0.39
0.385
0.32
0.215
0.1
0.02
-0.055
-0.085
-0.1
-0.115
-0.12
-0.125
-0.12
-0.135
-0.13
-0.14
-0.125
-0.14
-0.14
-0.165
-0.145
-0.17
-0.16
-0.18
-0.165
-0.195
-0.17
-0.145
-0.08
-0.09
-0.03
-0.05
-0.03
-0.095
-0.21
-0.28
-0.26
-0.29
-0.27
-0.295
-0.265
-0.32
-0.375
0.15
1.25
1.895
0.56
-0.12
-0.285
-0.215
-0.21
-0.255
-0.235
-0.24
-0.225
-0.235
-0.21
-0.225
-0.185
-0.185
-0.15
-0.145
-0.09
-0.065
0.0
0.04
0.13
0.175
0.25
0.305
0.32
0.255
0.16
0.06
-0.02
-0.105
-0.135
-0.16
-0.16
-0.175
-0.175
-0.175
-0.18
-0.165
-0.17
-0.165
-0.165
-0.175
-0.17
-0.175
-0.18
-0.18
-0.18
-0.19
-0.19
-0.17
-0.1
-0.105
-0.045
-0.025
0.0
-0.045
-0.115
-0.225
-0.24
-0.25
-0.255
-0.25
-0.24
-0.235
-0.33
-0.13
0.7
1.73
1.31
0.315
-0.175
-0.18
-0.15
-0.185
-0.185
-0.165
-0.165
-0.16
-0.135
-0.13
-0.105
-0.09
-0.075
-0.045
-0.01
0.005
0.075
0.105
0.18
0.25
0.315
0.38
0.41
0.38
0.305
0.2
0.11
0.035
-0.025
-0.055
-0.065
-0.075
-0.085
-0.08
-0.09
-0.075
-0.08
-0.075
-0.085
-0.075
-0.08
-0.085
-0.08
-0.08
-0.09
-0.09
-0.115
-0.105
-0.09
-0.005
-0.015
0.04
0.03
0.065
0.015
-0.05
-0.175
-0.18
-0.195
-0.185
-0.2
-0.185
-0.19
-0.305
-0.01
0.9
1.87
1.175
0.255
-0.145
-0.095
-0.115
-0.14
-0.12
-0.135
-0.11
-0.115
-0.1
-0.105
-0.075
-0.08
-0.035
-0.04
0.0
0.025
0.085
0.14
0.21
0.275
0.36
0.4
0.44
0.395
0.31
0.21
0.1
0.015
-0.025
-0.045
-0.07
-0.075
-0.09
-0.075
-0.085
-0.085
-0.08
-0.085
-0.09
-0.08
-0.09
-0.085
-0.1
-0.095
-0.11
-0.11
-0.12
-0.115
-0.09
-0.02
-0.025
0.02
0.01
0.035
0.0
-0.07
-0.18
-0.185
-0.205
-0.19
-0.215
-0.19
-0.2
-0.3
-0.06
0.81
1.84
1.18
0.265
-0.14
-0.135
-0.12
-0.145
-0.135
-0.155
-0.125
-0.135
-0.115
-0.115
-0.09
-0.09
-0.06
-0.05
-0.015
0.015
0.07
0.125
0.195
0.255
0.33
0.4
0.43
0.395
0.315
0.205
0.11
0.02
-0.02
-0.06
-0.07
-0.08
-0.075
-0.085
-0.07
-0.09
-0.075
-0.09
-0.075
-0.09
-0.08
-0.105
-0.095
-0.11
-0.105
-0.125
-0.105
-0.125
-0.11
-0.08
-0.015
-0.015
0.035
0.005
0.04
-0.015
-0.105
-0.195
-0.18
-0.21
-0.185
-0.22
-0.185
-0.225
-0.31
0.16
1.22
2.0
0.73
0.025
-0.18
-0.135
-0.125
-0.16
-0.135
-0.16
-0.125
-0.145
-0.11
-0.12
-0.095
-0.1
-0.065
-0.055
-0.005
0.01
0.08
0.125
0.205
0.265
0.345
0.395
0.425
0.365
0.28
0.17
0.07
-0.005
-0.04
-0.07
-0.09
-0.09
-0.095
-0.095
-0.09
-0.09
-0.09
-0.09
-0.09
-0.085
-0.1
-0.095
-0.105
-0.105
-0.12
-0.11
-0.13
-0.12
-0.14
-0.125
-0.11
-0.035
-0.035
0.01
0.0
0.035
-0.03
-0.09
-0.195
-0.19
-0.225
-0.205
-0.22
-0.195
-0.21
-0.32
0.01
0.945
1.93
1.05
0.2
-0.165
-0.145
-0.125
-0.16
-0.14
-0.155
-0.135
-0.145
-0.115
-0.125
-0.095
-0.105
-0.065
-0.07
-0.015
0.0
0.06
0.11
0.185
0.24
0.32
0.37
0.415
0.38
0.3
0.2
0.1
0.02
-0.02
-0.06
-0.07
-0.085
-0.085
-0.09
-0.08
-0.09
-0.08
-0.085
-0.08
-0.09
-0.08
-0.095
-0.09
-0.105
-0.1
-0.11
-0.115
-0.125
-0.12
-0.135
-0.12
-0.14
-0.125
-0.07
-0.03
-0.01
0.015
0.0
0.01
-0.045
-0.145
-0.215
-0.2
-0.225
-0.2
-0.22
-0.19
-0.27
-0.23
0.425
1.535
1.835
0.52
-0.09
-0.175
-0.14
-0.15
-0.16
-0.145
-0.16
-0.135
-0.145
-0.12
-0.12
-0.095
-0.09
-0.055
-0.04
0.0
0.035
0.1
0.155
0.23
0.295
0.375
0.42
0.43
0.365
0.275
0.16
0.065
-0.01
-0.04
-0.07
-0.08
-0.09
-0.085
-0.09
-0.09
-0.095
-0.085
-0.09
-0.09
-0.095
-0.095
-0.105
-0.105
-0.115
-0.11
-0.12
-0.115
-0.13
-0.12
-0.135
-0.12
-0.145
-0.13
-0.15
-0.135
-0.115
-0.035
-0.045
0.0
-0.04
0.015
-0.05
-0.12
-0.22
-0.205
-0.24
-0.21
-0.24
-0.2
-0.235
-0.33
0.125
1.175
2.01
0.78
0.05
-0.19
-0.14
-0.125
-0.165
-0.135
-0.155
-0.125
-0.145
-0.115
-0.125
-0.085
-0.095
-0.05
-0.05
0.0
0.02
0.085
0.13
0.215
0.27
0.355
0.415
0.455
0.415
0.34
0.22
0.12
0.035
-0.01
-0.045
-0.06
-0.065
-0.065
-0.07
-0.07
-0.07
-0.065
-0.07
-0.07
-0.075
-0.075
-0.085
-0.085
-0.095
-0.095
-0.1
-0.105
-0.105
-0.1
-0.11
-0.11
-0.125
-0.115
-0.13
-0.125
-0.135
-0.125
-0.14
-0.13
-0.125
-0.04
-0.055
0.0
-0.015
0.02
-0.03
-0.08
-0.2
-0.2
-0.23
-0.21
-0.225
-0.2
-0.215
-0.33
-0.01
0.92
1.91
1.075
0.225
-0.16
-0.15
-0.13
-0.16
-0.14
-0.155
-0.135
-0.145
-0.115
-0.12
-0.095
-0.09
-0.06
-0.05
0.0
0.015
0.07
0.11
0.19
0.25
0.33
0.395
0.455
0.435
0.375
0.27
0.16
0.065
0.005
-0.03
-0.045
-0.065
-0.07
-0.07
-0.07
-0.07
-0.07
-0.075
-0.07
-0.075
-0.07
-0.08
-0.08
-0.09
-0.09
-0.095
-0.1
-0.1
-0.11
-0.105
-0.115
-0.11
-0.115
-0.115
-0.115
-0.115
-0.12
-0.12
-0.125
-0.12
-0.12
-0.04
-0.04
0.005
0.005
0.015
-0.015
-0.05
-0.165
-0.19
-0.205
-0.2
-0.205
-0.195
-0.2
-0.305
-0.065
0.795
1.82
1.29
0.315
-0.145
-0.16
-0.13
-0.155
-0.145
-0.155
-0.14
-0.14
-0.115
-0.12
-0.1
-0.09
-0.065
-0.05
-0.015
0.01
0.06
0.11
0.18
0.24
0.315
0.38
0.435
0.435
0.375
0.27
0.16
0.06
0.0
-0.045
-0.065
-0.08
-0.08
-0.08
-0.085
-0.08
-0.085
-0.085
-0.085
-0.08
-0.095
-0.09
-0.1
-0.1
-0.115
-0.11
-0.12
-0.115
-0.13
-0.125
-0.135
-0.125
-0.145
-0.13
-0.15
-0.135
-0.1
-0.04
-0.04
0.0
-0.03
0.01
-0.04
-0.125
-0.21
-0.195
-0.23
-0.205
-0.235
-0.195
-0.26
-0.29
0.3
1.41
1.97
0.595
-0.05
-0.205
-0.15
-0.15
-0.175
-0.15
-0.17
-0.14
-0.15
-0.115
-0.125
-0.095
-0.095
-0.055
-0.05
-0.005
0.02
0.085
0.14
0.22
0.275
0.36
0.41
0.44
0.38
0.3
0.18
0.08
0.0
-0.04
-0.075
-0.09
-0.095
-0.1
-0.105
-0.105
-0.1
-0.105
-0.1
-0.105
-0.1
-0.11
-0.105
-0.115
-0.115
-0.13
-0.125
-0.135
-0.125
-0.14
-0.135
-0.15
-0.135
-0.155
-0.145
-0.095
-0.055
-0.035
-0.005
-0.02
0.0
-0.055
-0.155
-0.22
-0.21
-0.24
-0.22
-0.235
-0.2
-0.285
-0.25
0.425
1.525
1.835
0.515
-0.1
-0.2
-0.15
-0.15
-0.175
-0.155
-0.165
-0.14
-0.15
-0.12
-0.125
-0.105
-0.095
-0.06
-0.05
-0.005
0.025
0.08
0.135
0.22
0.285
0.36
0.415
0.435
0.375
0.275
0.165
0.065
-0.015
-0.055
-0.08
-0.09
-0.105
-0.105
-0.11
-0.095
-0.11
-0.1
-0.105
-0.105
-0.11
-0.105
-0.11
-0.115
-0.12
-0.12
-0.125
-0.125
-0.135
-0.13
-0.135
-0.14
-0.145
-0.14
-0.145
-0.14
-0.075
-0.045
-0.015
0.0
0.0
0.0
-0.05
-0.155
-0.21
-0.21
-0.22
-0.21
-0.215
-0.195
-0.285
-0.175
0.555
1.655
1.69
0.47
-0.105
-0.18
-0.13
-0.14
-0.15
-0.14
-0.14
-0.13
-0.13
-0.11
-0.105
-0.09
-0.075
-0.045
-0.02
0.01
0.055
0.115
0.175
0.25
0.315
0.39
0.44
0.45
0.39
0.29
0.175
0.085
0.015
-0.02
-0.05
-0.06
-0.07
-0.075
-0.07
-0.07
-0.07
-0.075
-0.07
-0.065
-0.065
-0.07
-0.07
-0.08
-0.07
-0.085
-0.09
-0.1
-0.09
-0.105
-0.1
-0.11
-0.1
-0.12
-0.105
-0.13
-0.115
-0.13
-0.12
-0.105
-0.025
-0.04
0.015
0.0
0.03
-0.02
-0.065
-0.175
-0.185
-0.215
-0.19
-0.22
-0.185
-0.205
-0.315
0.06
1.065
1.99
0.98
0.165
-0.17
-0.14
-0.125
-0.16
-0.14
-0.155
-0.125
-0.135
-0.105
-0.12
-0.085
-0.085
-0.05
-0.045
0.0
0.02
0.08
0.13
0.21
0.275
0.355
0.415
0.47
0.45
0.385
0.265
0.16
0.06
0.005
-0.03
-0.05
-0.055
-0.065
-0.065
-0.065
-0.07
-0.06
-0.06
-0.06
-0.06
-0.055
-0.065
-0.065
-0.075
-0.075
-0.08
-0.085
-0.09
-0.09
-0.1
-0.095
-0.105
-0.1
-0.115
-0.105
-0.12
-0.11
-0.125
-0.115
-0.135
-0.12
-0.14
-0.12
-0.1
-0.03
-0.04
0.015
-0.015
0.03
-0.035
-0.095
-0.195
-0.185
-0.215
-0.19
-0.215
-0.18
-0.215
-0.305
0.14
1.195
2.045
0.83
0.095
-0.17
-0.135
-0.115
-0.155
-0.13
-0.145
-0.12
-0.135
-0.1
-0.115
-0.075
-0.075
-0.04
-0.035
0.01
0.03
0.09
0.14
0.225
0.285
0.375
0.435
0.495
0.47
0.405
0.285
0.175
0.075
0.02
-0.02
-0.04
-0.05
-0.055
-0.06
-0.06
-0.055
-0.055
-0.055
-0.05
-0.05
-0.055
-0.055
-0.06
-0.065
-0.07
-0.075
-0.08
-0.08
-0.085
-0.09
-0.095
-0.1
-0.1
-0.11
-0.115
-0.115
-0.12
-0.12
-0.12
-0.13
-0.135
-0.13
-0.13
-0.135
-0.135
-0.145
-0.14
-0.15
-0.14
-0.085
-0.065
-0.025
0.0
-0.01
-0.015
-0.055
-0.17
-0.205
-0.21
-0.22
-0.21
-0.205
-0.19
-0.3
-0.13
0.67
1.725
1.525
0.41
-0.125
-0.175
-0.125
-0.14
-0.145
-0.15
-0.135
-0.13
-0.12
-0.105
-0.085
-0.07
-0.055
-0.035
-0.005
0.02
0.065
0.115
0.185
0.255
0.33
0.405
0.465
0.495
0.45
0.36
0.24
0.13
0.045
-0.005
-0.035
-0.05
-0.055
-0.06
-0.06
-0.065
-0.065
-0.065
-0.065
-0.065
-0.065
-0.065
-0.065
-0.07
-0.08
-0.08
-0.08
-0.09
-0.09
-0.095
-0.095
-0.105
-0.105
-0.11
-0.105
-0.12
-0.11
-0.125
-0.115
-0.135
-0.115
-0.135
-0.125
-0.14
-0.125
-0.11
-0.035
-0.05
0.005
-0.015
0.025
-0.04
-0.1
-0.2
-0.195
-0.23
-0.2
-0.23
-0.195
-0.24
-0.33
0.14
1.215
2.03
0.78
0.065
-0.195
-0.15
-0.14
-0.175
-0.15
-0.165
-0.13
-0.15
-0.11
-0.12
-0.09
-0.09
-0.055
-0.045
0.0
0.015
0.085
0.135
0.215
0.28
0.365
0.42
0.48
0.46
0.395
0.28
0.165
0.06
-0.005
-0.045
-0.065
-0.08
-0.08
-0.085
-0.085
-0.085
-0.085
-0.08
-0.085
-0.085
-0.085
-0.09
-0.09
-0.1
-0.1
-0.105
-0.11
-0.115
-0.11
-0.125
-0.12
-0.13
-0.12
-0.135
-0.13
-0.145
-0.135
-0.15
-0.135
-0.155
-0.14
-0.16
-0.145
-0.115
-0.055
-0.06
0.0
-0.035
0.01
-0.06
-0.125
-0.215
-0.205
-0.235
-0.21
-0.24
-0.2
-0.25
-0.315
0.235
1.34
2.02
0.66
-0.005
-0.21
-0.155
-0.14
-0.175
-0.15
-0.17
-0.14
-0.16
-0.125
-0.135
-0.095
-0.11
-0.075
-0.065
-0.01
0.005
0.07
0.12
0.2
0.265
0.35
0.41
0.46
0.435
0.365
0.24
0.13
0.035
-0.02
-0.06
-0.08
-0.09
-0.1
-0.1
-0.1
-0.1
-0.095
-0.085
-0.09
-0.085
-0.095
-0.095
-0.095
-0.095
-0.105
-0.1
-0.11
-0.11
-0.12
-0.12
-0.125
-0.12
-0.135
-0.13
-0.14
-0.135
-0.15
-0.15
-0.155
-0.145
-0.085
-0.06
-0.03
-0.01
-0.025
-0.02
-0.07
-0.165
-0.22
-0.215
-0.23
-0.225
-0.225
-0.21
-0.305
-0.19
0.555
1.645
1.675
0.44
-0.135
-0.205
-0.16
-0.17
-0.18
-0.165
-0.155
-0.145
-0.145
-0.13
-0.12
-0.105
-0.09
-0.065
-0.05
-0.005
0.03
0.09
0.155
0.23
0.305
0.385
0.445
0.47
0.415
0.315
0.19
0.08
0.0
-0.05
-0.075
-0.09
-0.1
-0.1
-0.1
-0.105
-0.1
-0.1
-0.1
-0.105
-0.1
-0.11
-0.105
-0.115
-0.105
-0.12
-0.115
-0.135
-0.125
-0.145
-0.135
-0.145
-0.135
-0.15
-0.14
-0.105
-0.045
-0.045
0.0
-0.03
0.015
-0.05
-0.125
-0.22
-0.21
-0.245
-0.22
-0.24
-0.21
-0.27
-0.29
0.29
1.405
2.005
0.615
-0.045
-0.21
-0.155
-0.145
-0.18
-0.16
-0.175
-0.15
-0.165
-0.13
-0.135
-0.105
-0.105
-0.065
-0.06
-0.01
0.015
0.08
0.135
0.22
0.285
0.38
0.425
0.465
0.41
0.315
0.19
0.08
0.0
-0.05
-0.085
-0.095
-0.105
-0.11
-0.115
-0.115
-0.11
-0.115
-0.11
-0.11
-0.11
-0.12
-0.11
-0.13
-0.115
-0.135
-0.12
-0.135
-0.13
-0.155
-0.135
-0.12
-0.045
-0.055
0.0
-0.02
0.03
-0.04
-0.095
-0.215
-0.205
-0.245
-0.22
-0.24
-0.215
-0.245
-0.33
0.11
1.165
2.03
0.82
0.06
-0.2
-0.155
-0.16
-0.2
-0.16
-0.18
-0.16
-0.17
-0.14
-0.15
-0.115
-0.12
-0.085
-0.08
-0.03
0.015
0.05
0.105
0.17
0.235
0.32
0.38
0.425
0.365
0.275
0.15
0.04
-0.04
-0.095
-0.125
-0.135
-0.16
-0.16
-0.15
-0.18
-0.16
-0.16
-0.185
-0.175
-0.175
-0.18
-0.18
-0.19
-0.18
-0.19
-0.205
-0.195
-0.195
-0.15
-0.125
-0.065
-0.055
-0.055
-0.075
-0.12
-0.25
-0.26
-0.3
-0.255
-0.295
-0.305
-0.275
-0.385
-0.2
0.605
1.645
1.345
0.295
-0.21
-0.265
-0.18
-0.245
-0.265
-0.215
-0.235
-0.23
-0.2
-0.22
-0.215
-0.195
-0.14
-0.135
-0.125
-0.06
-0.06
0.015
0.095
0.14
0.205
0.3
0.305
0.295
0.22
0.135
0.01
-0.09
-0.145
-0.155
-0.205
-0.185
-0.2
-0.215
-0.19
-0.215
-0.18
-0.195
-0.22
-0.2
-0.18
-0.205
-0.2
-0.155
-0.2
-0.205
-0.195
-0.105
-0.105
-0.06
-0.03
-0.03
-0.075
-0.1
-0.235
-0.26
-0.275
-0.265
-0.27
-0.245
-0.25
-0.35
-0.075
0.87
1.84
1.085
0.195
-0.2
-0.2
-0.165
-0.205
-0.16
-0.22
-0.16
-0.145
-0.175
-0.155
-0.165
-0.12
-0.085
-0.085
-0.03
0.01
0.06
0.14
0.19
0.19
0.3
0.355
0.39
0.33
0.255
0.15
0.07
0.0
-0.085
-0.09
-0.095
-0.12
-0.125
-0.09
-0.16
-0.1
-0.1
-0.115
-0.12
-0.105
-0.09
-0.145
-0.085
-0.115
-0.09
-0.025
-0.035
0.025
0.05
0.025
0.02
0.0
-0.2
-0.21
-0.165
-0.235
-0.21
-0.18
-0.255
-0.31
-0.07
0.805
1.805
1.255
0.325
-0.155
-0.145
-0.075
-0.19
-0.14
-0.14
-0.135
-0.155
-0.115
-0.09
-0.095
-0.1
-0.06
-0.07
0.0
0.02
0.075
0.155
0.155
0.285
0.345
0.385
0.455
0.36
0.255
0.17
0.09
-0.005
-0.06
-0.075
-0.105
-0.075
-0.13
-0.095
-0.095
-0.12
-0.105
-0.11
-0.085
-0.115
-0.1
-0.11
-0.1
-0.085
-0.035
-0.005
0.0
0.065
0.07
0.065
-0.065
-0.16
-0.19
-0.195
-0.205
-0.2
-0.19
-0.21
-0.295
-0.145
0.705
1.62
1.46
0.42
-0.13
-0.16
-0.135
-0.16
-0.14
-0.165
-0.14
-0.15
-0.14
-0.105
-0.09
-0.105
-0.065
-0.065
-0.035
0.01
0.125
0.09
0.185
0.29
0.285
0.375
0.385
0.37
0.285
0.19
0.09
0.035
-0.035
-0.05
-0.09
-0.08
-0.06
0.035
-0.17
-0.11
-0.14
-0.085
-0.135
-0.1
-0.115
-0.05
-0.045
0.005
-0.03
0.08
0.125
0.0
-0.06
-0.07
-0.205
-0.185
-0.205
-0.18
-0.19
-0.185
-0.2
-0.32
0.14
1.205
2.07
0.785
0.11
-0.195
-0.15
-0.145
-0.16
-0.12
-0.175
-0.11
-0.03
-0.145
-0.165
-0.105
-0.105
-0.035
-0.035
-0.005
0.045
0.09
0.11
0.215
0.285
0.4
0.375
0.43
0.325
0.23
0.145
0.04
-0.02
-0.015
-0.1
-0.095
-0.11
-0.115
-0.075
-0.09
-0.105
-0.075
-0.14
-0.12
-0.025
-0.16
-0.035
-0.045
-0.07
-0.03
0.025
0.0
0.02
-0.015
-0.14
-0.21
-0.195
-0.235
-0.205
-0.21
-0.195
-0.285
-0.265
0.355
1.405
1.835
0.56
-0.08
-0.19
-0.15
-0.135
-0.195
-0.155
-0.075
-0.21
-0.195
-0.125
-0.135
-0.1
-0.12
-0.065
-0.04
0.0
-0.015
0.08
0.135
0.21
0.26
0.35
0.42
0.375
0.245
0.18
0.065
0.005
-0.035
-0.085
-0.125
-0.11
-0.1
-0.115
-0.105
-0.125
-0.135
-0.105
-0.105
-0.105
-0.14
-0.105
-0.08
-0.025
-0.03
0.03
-0.01
0.065
-0.01
-0.05
-0.19
-0.195
-0.215
-0.195
-0.22
-0.19
-0.24
-0.345
0.105
1.145
1.965
0.76
0.075
-0.18
-0.145
-0.125
-0.185
-0.155
-0.17
-0.15
-0.16
-0.135
-0.14
-0.105
-0.115
-0.06
-0.07
0.015
0.03
0.035
0.085
0.175
0.24
0.32
0.355
0.36
0.305
0.21
0.105
-0.005
-0.055
-0.085
-0.11
-0.115
-0.09
-0.145
-0.125
-0.095
-0.13
-0.145
-0.125
-0.135
-0.12
-0.08
0.0
-0.02
0.0
-0.02
0.03
0.0
-0.08
-0.185
-0.2
-0.23
-0.21
-0.22
-0.16
-0.255
-0.37
-0.005
0.965
1.915
0.97
0.175
-0.19
-0.14
-0.115
-0.2
-0.18
-0.17
-0.145
-0.18
-0.15
-0.145
-0.115
-0.11
-0.12
-0.095
-0.04
-0.015
0.03
0.065
0.16
0.225
0.29
0.34
0.33
0.28
0.2
0.06
-0.025
-0.085
-0.09
-0.15
-0.155
-0.165
-0.17
-0.15
-0.165
-0.15
-0.17
-0.15
-0.17
-0.135
-0.08
-0.055
-0.065
0.0
-0.035
0.0
-0.04
-0.16
-0.245
-0.205
-0.23
-0.235
-0.215
-0.235
-0.325
-0.285
0.365
1.46
1.825
0.51
-0.105
-0.19
-0.145
-0.17
-0.215
-0.17
-0.195
-0.17
-0.165
-0.155
-0.145
-0.115
-0.145
-0.085
-0.095
-0.035
-0.01
0.06
0.105
0.17
0.245
0.3
0.34
0.275
0.2
0.11
0.02
-0.045
-0.09
-0.135
-0.115
-0.165
-0.15
-0.135
-0.155
-0.155
-0.135
-0.135
-0.125
-0.16
-0.115
-0.075
0.0
-0.065
0.03
0.0
0.025
-0.04
-0.165
-0.235
-0.225
-0.255
-0.2
-0.26
-0.24
-0.26
-0.32
0.265
1.355
2.0
0.6
-0.07
-0.225
-0.165
-0.145
-0.18
-0.19
-0.19
-0.13
-0.19
-0.145
-0.185
-0.115
-0.13
-0.09
-0.065
-0.015
0.0
0.065
0.12
0.16
0.235
0.315
0.325
0.315
0.235
0.145
0.045
0.0
-0.055
-0.1
-0.115
-0.095
-0.13
-0.075
-0.14
-0.1
-0.125
-0.095
-0.1
-0.075
-0.07
-0.12
-0.05
0.0
0.005
0.065
0.035
0.075
0.015
-0.135
-0.215
-0.165
-0.24
-0.21
-0.235
-0.195
-0.235
-0.33
0.21
1.345
2.025
0.655
-0.02
-0.18
-0.105
-0.145
-0.17
-0.13
-0.155
-0.125
-0.14
-0.115
-0.1
-0.08
-0.115
-0.065
-0.055
-0.005
0.015
0.085
0.135
0.215
0.275
0.345
0.38
0.35
0.285
0.18
0.075
-0.01
-0.02
-0.03
-0.13
-0.145
-0.115
-0.11
-0.115
-0.13
-0.095
-0.11
-0.105
-0.125
-0.1
-0.12
-0.12
-0.105
-0.135
-0.075
-0.025
-0.025
0.02
-0.005
0.02
-0.035
-0.125
-0.22
-0.195
-0.23
-0.21
-0.24
-0.2
-0.245
-0.325
0.17
1.275
1.985
0.655
-0.025
-0.215
-0.145
-0.15
-0.185
-0.135
-0.175
-0.15
-0.16
-0.14
-0.145
-0.08
-0.13
-0.06
-0.055
-0.02
0.02
0.09
0.11
0.205
0.27
0.35
0.39
0.385
0.315
0.215
0.095
0.01
-0.045
-0.07
-0.085
-0.105
-0.12
-0.11
-0.115
-0.1
-0.12
-0.105
-0.115
-0.1
-0.105
-0.115
-0.13
-0.13
-0.135
-0.13
-0.145
-0.13
-0.08
-0.015
-0.035
0.01
0.0
0.015
-0.045
-0.14
-0.24
-0.2
-0.235
-0.215
-0.235
-0.195
-0.255
-0.31
0.25
1.35
1.87
0.58
-0.06
-0.195
-0.14
-0.155
-0.145
-0.16
-0.18
-0.145
-0.155
-0.125
-0.12
-0.1
-0.105
-0.06
-0.055
0.0
0.0
0.07
0.13
0.23
0.27
0.35
0.375
0.375
0.31
0.24
0.12
0.01
-0.03
-0.065
-0.085
-0.09
-0.095
-0.11
-0.095
-0.105
-0.095
-0.105
-0.07
-0.11
-0.105
-0.12
-0.1
-0.13
-0.11
-0.14
-0.125
-0.085
-0.025
0.0
0.0
0.0
0.015
-0.04
-0.14
-0.22
-0.2
-0.235
-0.2
-0.24
-0.205
-0.235
-0.32
0.15
1.21
1.94
0.68
0.0
-0.195
-0.155
-0.145
-0.175
-0.155
-0.18
-0.14
-0.165
-0.125
-0.14
-0.11
-0.1
-0.07
-0.07
-0.02
0.005
0.07
0.115
0.2
0.25
0.325
0.36
0.37
0.29
0.22
0.095
0.02
-0.045
-0.07
-0.105
-0.1
-0.11
-0.105
-0.11
-0.1
-0.115
-0.1
-0.105
-0.1
-0.115
-0.11
-0.115
-0.125
-0.145
-0.13
-0.145
-0.145
-0.115
-0.045
-0.045
0.0
-0.005
0.025
-0.02
-0.115
-0.215
-0.215
-0.24
-0.215
-0.235
-0.2
-0.22
-0.335
-0.015
0.91
1.87
1.035
0.2
-0.165
-0.145
-0.135
-0.17
-0.145
-0.165
-0.135
-0.14
-0.125
-0.12
-0.095
-0.095
-0.06
-0.05
0.0
0.01
0.075
0.115
0.195
0.25
0.32
0.37
0.39
0.34
0.265
0.17
0.065
0.0
-0.025
-0.07
-0.075
-0.085
-0.08
-0.09
-0.085
-0.09
-0.08
-0.09
-0.075
-0.085
-0.075
-0.095
-0.085
-0.105
-0.095
-0.115
-0.1
-0.125
-0.115
-0.075
-0.015
-0.015
0.035
0.01
0.05
-0.015
-0.11
-0.2
-0.185
-0.22
-0.195
-0.225
-0.19
-0.215
-0.315
0.09
1.09
1.955
0.865
0.1
-0.175
-0.125
-0.13
-0.16
-0.135
-0.155
-0.13
-0.145
-0.11
-0.12
-0.09
-0.095
-0.05
-0.05
0.0
0.02
0.09
0.135
0.215
0.275
0.355
0.405
0.43
0.37
0.285
0.17
0.085
0.01
-0.03
-0.06
-0.07
-0.08
-0.08
-0.08
-0.08
-0.075
-0.075
-0.075
-0.08
-0.075
-0.08
-0.085
-0.09
-0.095
-0.1
-0.105
-0.11
-0.11
-0.12
-0.115
-0.125
-0.13
-0.14
-0.135
-0.145
-0.135
-0.12
-0.04
-0.05
0.0
-0.01
0.02
-0.02
-0.085
-0.19
-0.2
-0.225
-0.215
-0.225
-0.2
-0.2
-0.305
-0.035
0.845
1.85
1.185
0.265
-0.145
-0.14
-0.12
-0.15
-0.135
-0.155
-0.135
-0.135
-0.11
-0.11
-0.085
-0.08
-0.055
-0.04
-0.005
0.02
0.075
0.125
0.2
0.26
0.335
0.4
0.45
0.425
0.35
0.245
0.14
0.05
0.0
-0.03
-0.055
-0.055
-0.055
-0.055
-0.055
-0.06
-0.055
-0.06
-0.055
-0.06
-0.06
-0.06
-0.065
-0.075
-0.08
-0.085
-0.085
-0.09
-0.09
-0.1
-0.1
-0.105
-0.105
-0.11
-0.105
-0.115
-0.11
-0.125
-0.115
-0.125
-0.12
-0.14
-0.12
-0.145
-0.13
-0.125
-0.04
-0.055
0.005
-0.005
0.03
-0.03
-0.07
-0.19
-0.185
-0.215
-0.195
-0.22
-0.185
-0.215
-0.315
0.115
1.14
1.985
0.795
0.09
-0.175
-0.14
-0.125
-0.165
-0.14
-0.16
-0.13
-0.145
-0.11
-0.12
-0.085
-0.095
-0.055
-0.05
0.0
0.015
0.08
0.13
0.205
0.26
0.345
0.395
0.45
0.425
0.355
0.245
0.15
0.055
0.005
-0.04
-0.055
-0.065
-0.065
-0.07
-0.065
-0.07
-0.07
-0.065
-0.07
-0.065
-0.07
-0.065
-0.07
-0.075
-0.08
-0.08
-0.09
-0.095
-0.095
-0.095
-0.105
-0.105
-0.105
-0.11
-0.115
-0.115
-0.12
-0.125
-0.13
-0.125
-0.135
-0.135
-0.145
-0.14
-0.08
-0.045
-0.02
0.0
-0.01
0.0
-0.04
-0.145
-0.2
-0.2
-0.215
-0.205
-0.215
-0.195
-0.29
-0.195
0.535
1.62
1.625
0.455
-0.115
-0.19
-0.14
-0.15
-0.165
-0.15
-0.15
-0.14
-0.135
-0.115
-0.115
-0.09
-0.08
-0.055
-0.025
0.01
0.055
0.11
0.165
0.24
0.305
0.38
0.43
0.445
0.395
0.3
0.185
0.09
0.02
-0.02
-0.045
-0.055
-0.06
-0.06
-0.065
-0.06
-0.065
-0.06
-0.065
-0.06
-0.055
-0.055
-0.06
-0.065
-0.07
-0.075
-0.085
-0.09
-0.09
-0.1
-0.1
-0.105
-0.105
-0.115
-0.115
-0.12
-0.115
-0.13
-0.12
-0.135
-0.13
-0.145
-0.135
-0.15
-0.135
-0.15
-0.14
-0.125
-0.05
-0.06
0.0
-0.02
0.02
-0.045
-0.09
-0.205
-0.195
-0.23
-0.205
-0.23
-0.19
-0.235
-0.305
0.22
1.31
2.005
0.675
0.0
-0.2
-0.14
-0.135
-0.17
-0.14
-0.155
-0.125
-0.14
-0.11
-0.12
-0.085
-0.09
-0.05
-0.04
0.0
0.025
0.09
0.13
0.215
0.27
0.355
0.41
0.455
0.42
0.35
0.24
0.135
0.04
-0.01
-0.04
-0.055
-0.07
-0.07
-0.075
-0.07
-0.075
-0.07
-0.07
-0.07
-0.08
-0.075
-0.07
-0.075
-0.08
-0.085
-0.09
-0.095
-0.1
-0.105
-0.105
-0.11
-0.115
-0.11
-0.115
-0.115
-0.12
-0.125
-0.13
-0.125
-0.13
-0.125
-0.13
-0.13
-0.07
-0.045
-0.01
0.005
0.0
0.005
-0.025
-0.15
-0.2
-0.2
-0.215
-0.21
-0.21
-0.19
-0.295
-0.15
0.625
1.685
1.58
0.435
-0.11
-0.17
-0.125
-0.14
-0.15
-0.135
-0.14
-0.125
-0.12
-0.105
-0.09
-0.07
-0.06
-0.03
-0.01
0.025
0.07
0.13
0.19
0.265
0.33
0.405
0.46
0.47
0.415
0.315
0.2
0.095
0.025
-0.015
-0.04
-0.055
-0.06
-0.065
-0.065
-0.065
-0.065
-0.065
-0.06
-0.06
-0.06
-0.06
-0.06
-0.065
-0.065
-0.065
-0.075
-0.075
-0.08
-0.085
-0.09
-0.09
-0.095
-0.095
-0.105
-0.1
-0.105
-0.105
-0.11
-0.11
-0.12
-0.115
-0.125
-0.12
-0.135
-0.125
-0.145
-0.13
-0.145
-0.13
-0.125
-0.045
-0.055
0.0
-0.01
0.02
-0.04
-0.085
-0.2
-0.195
-0.225
-0.205
-0.235
-0.195
-0.25
-0.31
0.22
1.31
2.01
0.67
0.0
-0.205
-0.155
-0.145
-0.185
-0.155
-0.175
-0.145
-0.16
-0.13
-0.14
-0.105
-0.105
-0.07
-0.06
-0.015
0.005
0.07
0.115
0.2
0.26
0.35
0.4
0.455
0.43
0.365
0.24
0.14
0.04
-0.015
-0.055
-0.075
-0.085
-0.095
-0.095
-0.1
-0.095
-0.1
-0.095
-0.095
-0.09
-0.095
-0.095
-0.1
-0.1
-0.11
-0.1
-0.12
-0.11
-0.125
-0.12
-0.135
-0.125
-0.145
-0.13
-0.155
-0.135
-0.115
-0.045
-0.05
0.0
-0.025
0.02
-0.045
-0.105
-0.205
-0.2
-0.235
-0.21
-0.235
-0.2
-0.255
-0.295
0.27
1.375
2.005
0.63
-0.025
-0.2
-0.145
-0.14
-0.175
-0.15
-0.17
-0.135
-0.15
-0.12
-0.13
-0.095
-0.095
-0.055
-0.055
-0.005
0.02
0.09
0.135
0.22
0.285
0.365
0.415
0.445
0.39
0.3
0.175
0.075
-0.005
-0.055
-0.09
-0.1
-0.115
-0.115
-0.12
-0.115
-0.12
-0.115
-0.12
-0.11
-0.12
-0.11
-0.12
-0.11
-0.13
-0.115
-0.135
-0.125
-0.15
-0.14
-0.155
-0.145
-0.145
-0.06
-0.07
-0.005
-0.02
0.015
-0.04
-0.09
-0.205
-0.2
-0.24
-0.22
-0.245
-0.225
-0.25
-0.35
0.09
1.125
1.99
0.82
0.07
-0.205
-0.17
-0.155
-0.19
-0.165
-0.195
-0.165
-0.175
-0.145
-0.155
-0.12
-0.13
-0.085
-0.08
-0.03
-0.005
0.05
0.1
0.185
0.25
0.325
0.385
0.42
0.365
0.275
0.15
0.055
-0.025
-0.08
-0.115
-0.12
-0.14
-0.14
-0.15
-0.14
-0.145
-0.135
-0.14
-0.135
-0.145
-0.135
-0.145
-0.14
-0.15
-0.145
-0.15
-0.145
-0.165
-0.155
-0.12
-0.065
-0.065
-0.015
-0.03
0.0
-0.06
-0.17
-0.24
-0.235
-0.245
-0.235
-0.26
-0.23
-0.31
-0.275
0.395
1.49
1.81
0.495
-0.11
-0.23
-0.175
-0.17
-0.2
-0.18
-0.195
-0.16
-0.17
-0.145
-0.145
-0.125
-0.12
-0.08
-0.075
-0.03
0.005
0.08
0.135
0.21
0.27
0.35
0.375
0.385
0.31
0.205
0.095
0.01
-0.06
-0.095
-0.105
-0.12
-0.135
-0.13
-0.135
-0.13
-0.13
-0.12
-0.125
-0.12
-0.12
-0.12
-0.12
-0.115
-0.125
-0.12
-0.135
-0.135
-0.13
-0.05
-0.05
0.0
0.005
0.035
-0.01
-0.06
-0.2
-0.215
-0.23
-0.22
-0.235
-0.2
-0.21
-0.335
0.0
0.94
1.885
1.1
0.21
-0.18
-0.14
-0.14
-0.165
-0.15
-0.16
-0.125
-0.145
-0.14
-0.14
-0.105
-0.105
-0.07
-0.065
-0.015
0.005
0.06
0.12
0.19
0.255
0.33
0.385
0.415
0.37
0.27
0.165
0.06
-0.02
-0.075
-0.105
-0.115
-0.125
-0.14
-0.125
-0.145
-0.12
-0.14
-0.125
-0.135
-0.12
-0.13
-0.115
-0.13
-0.125
-0.13
-0.13
-0.14
-0.14
-0.1
-0.04
-0.035
0.015
-0.015
0.02
-0.03
-0.135
-0.215
-0.2
-0.23
-0.21
-0.24
-0.2
-0.265
-0.275
0.325
1.45
1.91
0.545
-0.085
-0.19
-0.14
-0.155
-0.17
-0.16
-0.17
-0.145
-0.15
-0.115
-0.14
-0.105
-0.1
-0.06
-0.055
-0.01
0.025
0.095
0.155
0.235
0.29
0.38
0.415
0.415
0.345
0.24
0.115
0.025
-0.045
-0.075
-0.105
-0.11
-0.115
-0.11
-0.12
-0.115
-0.12
-0.11
-0.12
-0.11
-0.115
-0.105
-0.135
-0.12
-0.14
-0.12
-0.145
-0.135
-0.125
-0.05
-0.055
0.0
-0.01
0.025
-0.04
-0.095
-0.205
-0.2
-0.23
-0.21
-0.24
-0.205
-0.225
-0.34
0.065
1.075
1.98
0.84
0.09
-0.18
-0.14
-0.135
-0.165
-0.15
-0.17
-0.135
-0.155
-0.13
-0.135
-0.1
-0.105
-0.065
-0.06
-0.015
0.01
0.075
0.125
0.205
0.27
0.355
0.395
0.42
0.355
0.27
0.15
0.065
-0.015
-0.055
-0.09
-0.1
-0.11
-0.095
-0.115
-0.11
-0.11
-0.1
-0.115
-0.105
-0.12
-0.1
-0.13
-0.12
-0.135
-0.125
-0.14
-0.13
-0.08
-0.04
-0.03
0.02
-0.01
0.02
-0.04
-0.135
-0.21
-0.205
-0.23
-0.215
-0.23
-0.2
-0.26
-0.29
0.3
1.4
1.89
0.58
-0.06
-0.2
-0.15
-0.155
-0.18
-0.15
-0.185
-0.15
-0.155
-0.12
-0.14
-0.11
-0.105
-0.07
-0.065
-0.015
0.015
0.08
0.135
0.22
0.28
0.35
0.39
0.39
0.315
0.215
0.1
0.005
-0.05
-0.085
-0.11
-0.115
-0.12
-0.125
-0.11
-0.12
-0.115
-0.125
-0.115
-0.13
-0.12
-0.135
-0.115
-0.135
-0.125
-0.15
-0.135
-0.105
-0.04
-0.05
0.005
-0.015
0.03
-0.035
-0.125
-0.22
-0.205
-0.25
-0.225
-0.25
-0.21
-0.255
-0.33
0.21
1.29
1.97
0.64
-0.045
-0.23
-0.155
-0.165
-0.195
-0.17
-0.185
-0.16
-0.18
-0.14
-0.16
-0.12
-0.12
-0.085
-0.08
-0.005
0.0
0.07
0.125
0.2
0.26
0.34
0.365
0.375
0.305
0.2
0.085
0.01
-0.06
-0.09
-0.115
-0.135
-0.135
-0.135
-0.14
-0.135
-0.13
-0.135
-0.12
-0.125
-0.13
-0.13
-0.12
-0.13
-0.135
-0.14
-0.135
-0.13
-0.05
-0.05
0.0
0.005
0.04
-0.005
-0.07
-0.21
-0.22
-0.245
-0.23
-0.245
-0.23
-0.235
-0.35
-0.055
0.84
1.815
1.19
0.25
-0.185
-0.165
-0.16
-0.18
-0.185
-0.185
-0.165
-0.175
-0.155
-0.16
-0.135
-0.13
-0.105
-0.095
-0.055
-0.02
0.03
0.08
0.155
0.21
0.285
0.34
0.36
0.3
0.215
0.1
0.0
-0.065
-0.12
-0.145
-0.16
-0.17
-0.18
-0.18
-0.18
-0.175
-0.18
-0.165
-0.18
-0.165
-0.18
-0.165
-0.195
-0.18
-0.195
-0.185
-0.215
-0.195
-0.18
-0.095
-0.105
-0.055
-0.075
-0.03
-0.09
-0.17
-0.28
-0.275
-0.31
-0.285
-0.315
-0.275
-0.3
-0.405
0.005
1.025
1.895
0.755
0.0
-0.26
-0.2
-0.205
-0.23
-0.21
-0.23
-0.2
