signal
-0.035
-0.015
0.04
0.055
-0.02
-0.06
-0.075
-0.11
-0.12
-0.14
-0.145
-0.145
-0.15
-0.155
-0.065
0.265
0.76
0.805
-0.27
-0.97
-0.52
-0.18
-0.095
-0.06
-0.04
-0.025
-0.015
-0.01
0.005
0.025
0.04
0.065
0.09
0.125
0.16
0.21
0.265
0.34
0.405
0.485
0.56
0.61
0.65
0.645
0.585
0.49
0.375
0.26
0.13
0.04
-0.03
-0.055
-0.08
-0.08
-0.1
-0.08
-0.1
-0.105
-0.1
-0.08
-0.08
-0.075
-0.075
-0.07
-0.06
-0.075
-0.08
-0.07
-0.09
-0.1
-0.115
-0.11
-0.12
-0.115
-0.12
-0.12
-0.13
-0.12
-0.11
-0.12
-0.12
-0.09
-0.05
-0.03
-0.03
0.04
0.045
-0.02
-0.06
-0.08
-0.14
-0.155
-0.145
-0.16
-0.16
-0.155
-0.165
-0.06
0.37
0.85
0.65
-0.53
-1.015
-0.43
-0.16
-0.095
-0.075
-0.04
-0.03
-0.015
-0.005
0.005
0.035
0.06
0.08
0.105
0.15
0.2
0.26
0.32
0.38
0.47
0.565
0.64
0.72
0.74
0.72
0.655
0.56
0.43
0.29
0.16
0.065
-0.005
-0.04
-0.05
-0.06
-0.075
-0.08
-0.08
-0.08
-0.08
-0.06
-0.055
-0.055
-0.04
-0.035
-0.025
-0.04
-0.04
-0.06
-0.06
-0.075
-0.075
-0.08
-0.095
-0.11
-0.1
-0.1
-0.095
-0.105
-0.105
-0.1
-0.095
-0.095
-0.08
-0.06
-0.015
0.0
0.03
0.105
0.085
-0.015
-0.05
-0.075
-0.115
-0.13
-0.12
-0.13
-0.14
-0.15
-0.12
0.03
0.565
0.98
0.385
-0.855
-0.96
-0.315
-0.11
-0.06
-0.025
-0.01
0.005
0.02
0.04
0.05
0.08
0.095
0.13
0.17
0.205
0.25
0.32
0.38
0.465
0.545
0.63
0.72
0.78
0.795
0.765
0.695
0.575
0.44
0.29
0.17
0.09
0.03
-0.015
-0.025
-0.035
-0.04
-0.05
-0.04
-0.035
-0.03
-0.02
-0.015
-0.01
-0.005
-0.01
-0.01
-0.015
-0.02
-0.035
-0.035
-0.05
-0.05
-0.06
-0.06
-0.065
-0.075
-0.075
-0.07
-0.08
-0.08
-0.08
-0.07
-0.09
-0.095
-0.08
-0.08
-0.06
-0.02
0.015
0.025
0.08
0.135
0.065
-0.01
-0.03
-0.075
-0.11
-0.11
-0.12
-0.12
-0.12
-0.12
-0.06
0.2
0.765
1.0
-0.06
-1.085
-0.76
-0.215
-0.08
-0.035
-0.01
0.005
0.02
0.04
0.05
0.08
0.095
0.12
0.145
0.17
0.23
0.27
0.34
0.415
0.505
0.585
0.67
0.75
0.795
0.805
0.78
0.68
0.56
0.42
0.28
0.17
0.08
0.025
-0.005
-0.02
-0.03
-0.02
-0.025
-0.03
-0.02
-0.015
-0.005
0.02
0.01
0.01
0.01
0.01
-0.01
0.0
-0.015
-0.035
-0.035
-0.04
-0.05
-0.055
-0.06
-0.06
-0.07
-0.07
-0.07
-0.07
-0.065
-0.08
-0.07
-0.07
-0.075
-0.07
-0.07
-0.03
0.025
0.04
0.08
0.14
0.125
0.025
-0.015
-0.05
-0.1
-0.1
-0.11
-0.11
-0.11
-0.11
-0.11
-0.005
0.39
0.955
0.885
-0.52
-1.3
-0.69
-0.24
-0.08
-0.03
-0.005
0.025
0.04
0.055
0.08
0.11
0.14
0.16
0.2
0.23
0.285
0.335
0.41
0.5
0.585
0.68
0.76
0.825
0.86
0.845
0.78
0.67
0.53
0.37
0.23
0.14
0.05
0.02
-0.005
-0.02
-0.01
-0.02
-0.015
0.0
0.005
0.005
0.015
0.03
0.02
0.005
0.0
0.0
-0.015
-0.035
-0.025
-0.04
-0.055
-0.055
-0.07
-0.075
-0.065
-0.08
-0.08
-0.075
-0.08
-0.09
-0.09
-0.08
-0.095
-0.08
-0.095
-0.08
-0.065
-0.03
0.01
0.025
0.08
0.13
0.08
-0.02
-0.04
-0.075
-0.11
-0.115
-0.11
-0.12
-0.1
-0.105
-0.09
0.08
0.62
1.1
0.4
-1.01
-1.18
-0.46
-0.175
-0.065
-0.01
0.01
0.03
0.055
0.07
0.09
0.12
0.145
0.175
0.205
0.25
0.305
0.38
0.445
0.53
0.62
0.7
0.78
0.84
0.84
0.82
0.725
0.585
0.44
0.305
0.175
0.095
0.05
0.005
-0.01
-0.02
-0.02
-0.02
-0.02
-0.005
0.0
0.01
0.015
0.01
0.01
0.01
0.015
-0.005
-0.015
-0.025
-0.04
-0.05
-0.055
-0.07
-0.075
-0.075
-0.075
-0.08
-0.09
-0.08
-0.09
-0.095
-0.1
-0.1
-0.095
-0.095
-0.095
-0.095
-0.095
-0.08
-0.08
-0.1
-0.07
-0.01
0.005
0.04
0.09
0.11
0.03
-0.04
-0.055
-0.09
-0.115
-0.12
-0.12
-0.12
-0.135
-0.15
-0.08
0.24
0.795
0.99
-0.16
-1.15
-0.785
-0.24
-0.115
-0.06
-0.015
-0.005
0.01
0.035
0.04
0.06
0.09
0.11
0.15
0.19
0.24
0.285
0.35
0.43
0.51
0.605
0.69
0.77
0.82
0.82
0.785
0.68
0.56
0.42
0.27
0.155
0.08
0.01
-0.02
-0.035
-0.05
-0.055
-0.06
-0.05
-0.05
-0.04
-0.035
-0.025
-0.015
-0.02
-0.01
0.0
-0.02
-0.03
-0.04
-0.05
-0.06
-0.05
-0.075
-0.075
-0.08
-0.08
-0.08
-0.09
-0.08
-0.08
-0.08
-0.08
-0.08
-0.095
-0.1
-0.095
-0.1
-0.095
-0.095
-0.1
-0.095
-0.1
-0.1
-0.06
0.005
0.015
0.05
0.105
0.095
-0.005
-0.03
-0.06
-0.1
-0.12
-0.12
-0.12
-0.115
-0.12
-0.12
-0.02
0.42
0.93
0.78
-0.54
-1.135
-0.51
-0.165
-0.065
-0.02
-0.005
0.01
0.025
0.04
0.065
0.085
0.105
0.14
0.16
0.2
0.26
0.305
0.375
0.445
0.53
0.625
0.72
0.785
0.825
0.83
0.775
0.68
0.54
0.4
0.26
0.145
0.08
0.02
-0.015
-0.025
-0.04
-0.04
-0.04
-0.05
-0.04
-0.035
-0.03
-0.035
-0.015
-0.01
-0.015
-0.02
-0.02
-0.035
-0.04
-0.04
-0.045
-0.065
-0.07
-0.08
-0.07
-0.08
-0.08
-0.08
-0.08
-0.08
-0.08
-0.08
-0.08
-0.08
-0.095
-0.095
-0.095
-0.095
-0.1
-0.1
-0.095
-0.095
-0.06
0.0
0.01
0.04
0.09
0.105
0.04
-0.025
-0.04
-0.095
-0.12
-0.12
-0.11
-0.13
-0.12
-0.12
-0.05
0.3
0.86
0.89
-0.36
-1.175
-0.635
-0.18
-0.07
-0.03
-0.005
0.005
0.025
0.04
0.06
0.08
0.1
0.125
0.165
0.205
0.255
0.3
0.38
0.45
0.54
0.625
0.73
0.79
0.84
0.84
0.79
0.705
0.57
0.425
0.3
0.155
0.08
0.025
-0.015
-0.03
-0.035
-0.035
-0.035
-0.04
-0.02
-0.02
-0.015
-0.005
0.0
-0.005
-0.01
-0.015
-0.02
-0.035
-0.04
-0.05
-0.055
-0.055
-0.06
-0.065
-0.07
-0.08
-0.08
-0.08
-0.08
-0.09
-0.08
-0.08
-0.08
-0.08
-0.08
-0.095
-0.095
-0.1
-0.1
-0.105
-0.1
-0.07
-0.025
-0.005
0.025
0.1
0.12
0.045
-0.04
-0.06
-0.095
-0.12
-0.12
-0.13
-0.13
-0.135
-0.14
-0.06
0.205
0.79
1.065
-0.115
-1.245
-0.955
-0.34
-0.135
-0.055
-0.015
0.0
0.02
0.045
0.065
0.085
0.12
0.135
0.17
0.22
0.25
0.315
0.38
0.46
0.545
0.645
0.725
0.805
0.86
0.84
0.81
0.73
0.6
0.445
0.305
0.18
0.085
0.025
-0.005
-0.03
-0.04
-0.04
-0.03
-0.02
-0.02
-0.01
-0.005
-0.005
0.005
0.015
-0.005
-0.005
-0.02
-0.035
-0.04
-0.04
-0.06
-0.065
-0.08
-0.08
-0.075
-0.09
-0.085
-0.08
-0.08
-0.09
-0.08
-0.095
-0.1
-0.08
-0.095
-0.095
-0.08
-0.095
-0.09
-0.08
-0.095
-0.08
-0.06
-0.01
0.005
0.03
0.1
0.12
0.03
-0.04
-0.06
-0.08
-0.12
-0.115
-0.115
-0.12
-0.11
-0.13
-0.04
0.27
0.85
1.05
-0.2
-1.275
-0.875
-0.3
-0.11
-0.035
-0.005
0.02
0.04
0.06
0.08
0.085
0.12
0.15
0.18
0.22
0.265
0.32
0.38
0.46
0.545
0.64
0.725
0.805
0.85
0.845
0.78
0.685
0.55
0.405
0.265
0.15
0.07
0.02
-0.015
-0.025
-0.04
-0.04
-0.035
-0.035
-0.02
-0.02
-0.02
-0.015
-0.005
-0.015
-0.01
-0.025
-0.04
-0.035
-0.05
-0.06
-0.07
-0.08
-0.09
-0.1
-0.09
-0.1
-0.095
-0.11
-0.11
-0.1
-0.105
-0.11
-0.115
-0.115
-0.1
-0.1
-0.105
-0.115
-0.1
-0.11
-0.11
-0.1
-0.1
-0.08
-0.02
-0.005
0.02
0.085
0.09
-0.005
-0.05
-0.08
-0.12
-0.14
-0.135
-0.145
-0.15
-0.15
-0.155
-0.05
0.38
0.9
0.795
-0.52
-1.2
-0.6
-0.185
-0.095
-0.05
-0.035
-0.01
0.02
0.03
0.05
0.06
0.085
0.12
0.155
0.2
0.24
0.29
0.36
0.43
0.52
0.62
0.69
0.77
0.81
0.82
0.75
0.65
0.525
0.385
0.245
0.135
0.05
0.005
-0.04
-0.06
-0.07
-0.07
-0.075
-0.08
-0.06
-0.05
-0.04
-0.03
-0.035
-0.02
-0.03
-0.03
-0.04
-0.04
-0.065
-0.07
-0.07
-0.08
-0.08
-0.08
-0.1
-0.1
-0.105
-0.105
-0.11
-0.105
-0.11
-0.11
-0.115
-0.115
-0.12
-0.105
-0.115
-0.115
-0.12
-0.105
-0.115
-0.1
-0.065
-0.015
0.005
0.04
0.09
0.085
-0.015
-0.05
-0.08
-0.13
-0.14
-0.14
-0.14
-0.145
-0.15
-0.14
-0.02
0.505
0.96
0.565
-0.76
-1.13
-0.455
-0.155
-0.08
-0.03
-0.03
0.005
0.02
0.04
0.04
0.08
0.08
0.13
0.145
0.185
0.24
0.3
0.36
0.44
0.53
0.625
0.7
0.77
0.805
0.795
0.725
0.625
0.485
0.36
0.215
0.12
0.045
-0.01
-0.05
-0.06
-0.075
-0.06
-0.07
-0.055
-0.055
-0.04
-0.035
-0.03
-0.035
-0.02
-0.03
-0.025
-0.045
-0.055
-0.06
-0.055
-0.08
-0.08
-0.1
-0.09
-0.1
-0.1
-0.105
-0.1
-0.115
-0.11
-0.11
-0.1
-0.115
-0.11
-0.12
-0.115
-0.12
-0.12
-0.11
-0.115
-0.11
-0.055
-0.015
0.0
0.045
0.12
0.08
-0.02
-0.06
-0.08
-0.135
-0.135
-0.135
-0.14
-0.14
-0.14
-0.12
0.08
0.635
1.06
0.24
-1.08
-1.145
-0.425
-0.175
-0.075
-0.03
-0.01
0.01
0.04
0.05
0.07
0.085
0.12
0.15
0.19
0.24
0.285
0.35
0.43
0.52
0.62
0.7
0.785
0.845
0.88
0.855
0.765
0.65
0.49
0.345
0.215
0.12
0.04
-0.015
-0.02
-0.04
-0.035
-0.04
-0.035
-0.035
-0.015
-0.02
-0.01
-0.005
0.01
-0.02
-0.015
-0.025
-0.025
-0.04
-0.05
-0.065
-0.055
-0.08
-0.08
-0.095
-0.09
-0.1
-0.095
-0.1
-0.1
-0.105
-0.08
-0.1
-0.1
-0.105
-0.1
-0.1
-0.1
-0.1
-0.08
-0.035
-0.01
0.01
0.08
0.105
0.04
-0.04
-0.06
-0.11
-0.13
-0.13
-0.13
-0.12
-0.13
-0.14
-0.04
0.28
0.86
1.005
-0.295
-1.36
-0.895
-0.33
-0.12
-0.055
-0.005
0.01
0.03
0.045
0.065
0.095
0.14
0.15
0.185
0.22
0.28
0.325
0.4
0.47
0.56
0.66
0.75
0.83
0.88
0.86
0.825
0.72
0.6
0.43
0.29
0.17
0.1
0.04
0.005
-0.015
-0.015
-0.02
-0.01
-0.01
0.005
0.005
0.015
0.01
0.015
0.01
0.015
0.005
-0.005
-0.02
-0.02
-0.04
-0.04
-0.05
-0.05
-0.07
-0.07
-0.07
-0.07
-0.08
-0.08
-0.08
-0.08
-0.08
-0.07
-0.08
-0.08
-0.08
-0.075
-0.075
-0.025
0.005
0.02
0.065
0.14
0.08
-0.01
-0.04
-0.06
-0.11
-0.11
-0.1
-0.115
-0.13
-0.12
-0.1
0.06
0.615
1.09
0.5
-0.92
-1.22
-0.475
-0.175
-0.055
-0.02
0.01
0.02
0.05
0.08
0.09
0.1
0.135
0.165
0.205
0.245
0.295
0.345
0.44
0.52
0.615
0.685
0.775
0.84
0.88
0.82
0.75
0.625
0.49
0.34
0.22
0.11
0.04
-0.01
-0.035
-0.04
-0.04
-0.05
-0.035
-0.04
-0.03
-0.02
-0.015
-0.025
-0.02
-0.025
-0.02
-0.03
-0.04
-0.035
-0.04
-0.06
-0.075
-0.08
-0.07
-0.08
-0.08
-0.08
-0.095
-0.1
-0.08
-0.095
-0.1
-0.095
-0.08
-0.1
-0.08
-0.095
-0.055
-0.015
-0.01
0.02
0.085
0.07
-0.005
-0.055
-0.06
-0.12
-0.135
-0.125
-0.135
-0.135
-0.12
-0.135
0.01
0.47
0.885
0.52
-0.67
-1.035
-0.425
-0.165
-0.065
-0.05
-0.02
-0.015
0.01
0.015
0.04
0.05
0.08
0.095
0.13
0.155
0.2
0.245
0.315
0.38
0.46
0.53
0.59
0.65
0.66
0.635
0.58
0.475
0.375
0.25
0.14
0.065
0.0
-0.04
-0.055
-0.065
-0.08
-0.07
-0.06
-0.075
-0.065
-0.06
-0.055
-0.05
-0.04
-0.05
-0.05
-0.06
-0.06
-0.06
-0.08
-0.08
-0.08
-0.1
-0.1
-0.1
-0.115
-0.115
-0.115
-0.12
-0.12
-0.13
-0.12
-0.105
-0.06
-0.055
-0.04
0.03
0.03
-0.04
-0.08
-0.11
-0.14
-0.165
-0.165
-0.17
-0.15
-0.16
-0.15
-0.015
0.44
0.825
0.41
-0.66
-0.895
-0.35
-0.15
-0.11
-0.07
-0.05
-0.04
-0.015
-0.01
0.01
0.03
0.045
0.085
0.1
0.14
0.185
0.24
0.31
0.385
0.45
0.53
0.6
0.65
0.68
0.65
0.585
0.49
0.37
0.245
0.14
0.04
-0.02
-0.055
-0.08
-0.09
-0.08
-0.09
-0.1
-0.08
-0.095
-0.075
-0.08
-0.06
-0.06
-0.05
-0.075
-0.06
-0.06
-0.07
-0.075
-0.08
-0.1
-0.08
-0.095
-0.1
-0.11
-0.11
-0.115
-0.115
-0.11
-0.075
-0.025
-0.025
0.0
0.08
0.055
-0.02
-0.05
-0.09
-0.14
-0.135
-0.14
-0.135
-0.15
-0.145
-0.08
0.15
0.66
0.94
0.03
-1.01
-0.805
-0.23
-0.095
-0.055
-0.03
-0.01
0.01
0.03
0.04
0.065
0.09
0.12
0.145
0.19
0.24
0.285
0.34
0.42
0.52
0.605
0.7
0.775
0.82
0.84
0.795
0.72
0.58
0.42
0.28
0.16
0.08
0.025
-0.01
-0.035
-0.04
-0.04
-0.025
-0.035
-0.04
-0.035
-0.02
-0.015
-0.01
-0.02
-0.015
-0.02
-0.02
-0.015
-0.03
-0.04
-0.05
-0.055
-0.06
-0.07
-0.07
-0.06
-0.075
-0.025
0.015
0.03
0.065
0.125
0.1
0.015
-0.02
-0.065
-0.115
-0.11
-0.115
-0.12
-0.13
-0.125
-0.06
0.19
0.75
1.02
-0.015
-1.1
-0.805
-0.24
-0.08
-0.05
-0.02
-0.01
0.0
0.02
0.04
0.06
0.095
0.115
0.15
0.185
0.22
0.285
0.36
0.44
0.535
0.63
0.72
0.805
0.86
0.855
0.805
0.71
0.56
0.405
0.245
0.12
0.05
-0.005
-0.025
-0.04
-0.04
-0.055
-0.05
-0.05
-0.05
-0.025
-0.015
-0.02
-0.005
-0.02
-0.005
0.01
-0.03
-0.04
-0.035
-0.055
-0.06
-0.07
-0.07
-0.08
-0.04
-0.01
0.02
0.04
0.09
0.13
0.04
-0.035
-0.055
-0.1
-0.125
-0.12
-0.14
-0.135
-0.15
-0.135
0.01
0.475
0.98
0.68
-0.68
-1.165
-0.5
-0.18
-0.095
-0.045
-0.04
-0.015
-0.005
0.02
0.04
0.06
0.085
0.11
0.15
0.185
0.24
0.32
0.4
0.465
0.56
0.65
0.73
0.795
0.82
0.79
0.7
0.57
0.405
0.26
0.135
0.055
-0.005
-0.04
-0.06
-0.06
-0.07
-0.06
-0.05
-0.05
-0.02
-0.02
-0.02
-0.01
-0.01
-0.02
-0.015
-0.02
-0.04
-0.05
-0.055
-0.06
-0.06
-0.08
-0.07
-0.035
0.02
0.04
0.06
0.12
0.13
0.025
-0.025
-0.055
-0.105
-0.12
-0.12
-0.12
-0.13
-0.12
-0.115
0.06
0.63
1.09
0.46
-0.975
-1.195
-0.44
-0.16
-0.07
-0.035
-0.005
0.02
0.04
0.06
0.08
0.1
0.14
0.165
0.205
0.245
0.295
0.35
0.44
0.52
0.61
0.695
0.765
0.81
0.82
0.77
0.68
0.54
0.38
0.24
0.135
0.06
-0.005
-0.015
-0.03
-0.04
-0.035
-0.02
-0.025
-0.015
-0.02
-0.01
-0.01
-0.01
-0.02
-0.02
-0.025
-0.03
-0.03
-0.04
-0.04
-0.05
-0.06
-0.035
-0.01
0.015
0.03
0.06
0.105
0.06
-0.02
-0.03
-0.07
-0.11
-0.115
-0.115
-0.12
-0.115
-0.12
-0.035
0.32
0.76
0.75
-0.315
-0.98
-0.53
-0.17
-0.08
-0.055
-0.04
-0.035
-0.025
-0.015
0.01
0.03
0.05
0.08
0.09
0.125
0.17
0.22
0.27
0.34
0.41
0.485
0.545
0.6
0.62
0.58
0.51
0.405
0.29
0.165
0.08
0.0
-0.04
-0.06
-0.07
-0.08
-0.09
-0.095
-0.09
-0.095
-0.095
-0.08
-0.08
-0.08
-0.095
-0.08
-0.08
-0.11
-0.115
-0.105
-0.11
-0.13
-0.12
-0.105
-0.08
-0.055
-0.06
-0.015
0.025
-0.025
-0.075
-0.1
-0.14
-0.165
-0.17
-0.19
-0.165
-0.165
-0.18
-0.095
0.225
0.605
0.525
-0.38
-0.86
-0.44
-0.175
-0.12
-0.11
-0.105
-0.07
-0.055
-0.075
-0.07
-0.03
-0.02
0.01
0.03
0.06
0.1
0.14
0.21
0.255
0.335
0.4
0.445
0.485
0.5
0.47
0.415
0.32
0.2
0.1
0.015
-0.055
-0.08
-0.105
-0.12
-0.13
-0.12
-0.12
-0.12
-0.12
-0.12
-0.13
-0.115
-0.12
-0.12
-0.12
-0.12
-0.13
-0.12
-0.12
-0.14
-0.145
-0.155
-0.15
-0.14
-0.1
-0.08
-0.1
-0.04
-0.005
-0.06
-0.12
-0.135
-0.175
-0.21
-0.19
-0.2
-0.215
-0.215
-0.2
-0.105
0.22
0.6
0.525
-0.44
-0.905
-0.445
-0.2
-0.16
-0.14
-0.12
-0.1
-0.105
-0.09
-0.07
-0.04
-0.04
-0.01
0.02
0.05
0.09
0.145
0.19
0.27
0.34
0.41
0.47
0.52
0.52
0.5
0.43
0.34
0.205
0.085
-0.005
-0.07
-0.08
-0.11
-0.12
-0.12
-0.13
-0.13
-0.135
-0.135
-0.13
-0.12
-0.12
-0.12
-0.12
-0.115
-0.12
-0.12
-0.115
-0.13
-0.135
-0.14
-0.155
-0.155
-0.165
-0.155
-0.15
-0.14
-0.105
-0.08
-0.08
-0.015
0.025
-0.05
-0.11
-0.12
-0.16
-0.19
-0.2
-0.185
-0.195
-0.2
-0.21
-0.115
0.22
0.68
0.71
-0.34
-0.97
-0.495
-0.2
-0.15
-0.12
-0.11
-0.08
-0.075
-0.055
-0.04
-0.03
-0.005
0.02
0.06
0.095
0.13
0.18
0.24
0.305
0.4
0.47
0.55
0.61
0.625
0.605
0.56
0.44
0.31
0.18
0.07
-0.01
-0.06
-0.08
-0.1
-0.11
-0.12
-0.115
-0.115
-0.12
-0.115
-0.105
-0.08
-0.08
-0.08
-0.08
-0.08
-0.08
-0.095
-0.1
-0.115
-0.12
-0.12
-0.13
-0.13
-0.13
-0.13
-0.14
-0.14
-0.14
-0.135
-0.1
-0.065
-0.055
-0.02
0.05
0.045
-0.055
-0.095
-0.115
-0.165
-0.175
-0.175
-0.18
-0.185
-0.18
-0.185
-0.06
0.41
0.795
0.41
-0.7
-0.925
-0.325
-0.14
-0.11
-0.08
-0.06
-0.05
-0.04
-0.015
0.0
0.02
0.04
0.07
0.1
0.145
0.175
0.24
0.3
0.38
0.46
0.545
0.62
0.68
0.695
0.665
0.58
0.48
0.34
0.21
0.105
0.03
-0.01
-0.045
-0.06
-0.08
-0.09
-0.08
-0.07
-0.08
-0.065
-0.06
-0.06
-0.05
-0.04
-0.04
-0.055
-0.05
-0.075
-0.08
-0.08
-0.08
-0.095
-0.09
-0.1
-0.1
-0.105
-0.105
-0.11
-0.11
-0.115
-0.105
-0.11
-0.08
-0.04
-0.02
-0.01
0.065
0.1
-0.005
-0.065
-0.075
-0.12
-0.12
-0.15
-0.155
-0.14
-0.155
-0.155
-0.04
0.28
0.76
0.76
-0.4
-1.09
-0.58
-0.2
-0.11
-0.07
-0.05
-0.04
-0.01
-0.015
0.02
0.03
0.045
0.08
0.095
0.14
0.165
0.21
0.27
0.33
0.42
0.48
0.54
0.585
0.62
0.61
0.56
0.445
0.33
0.2
0.09
0.01
-0.04
-0.07
-0.08
-0.08
-0.08
-0.095
-0.08
-0.08
-0.08
-0.08
-0.075
-0.065
-0.075
-0.075
-0.08
-0.09
-0.095
-0.1
-0.11
-0.11
-0.115
-0.135
-0.135
-0.135
-0.14
-0.14
-0.145
-0.15
-0.14
-0.145
-0.145
-0.15
-0.14
-0.135
-0.1
-0.07
-0.055
-0.03
0.03
0.025
-0.06
-0.09
-0.11
-0.14
-0.165
-0.16
-0.165
-0.17
-0.165
-0.145
-0.01
0.37
0.725
0.33
-0.67
-0.88
-0.32
-0.15
-0.11
-0.075
-0.05
-0.05
-0.035
-0.02
-0.01
0.0
0.025
0.045
0.085
0.105
0.135
0.195
0.25
0.3
0.38
0.43
0.485
0.525
0.535
0.52
0.445
0.34
0.24
0.14
0.05
-0.01
-0.04
-0.065
-0.08
-0.08
-0.08
-0.08
-0.08
-0.08
-0.08
-0.085
-0.065
-0.07
-0.06
-0.06
-0.07
-0.08
-0.08
-0.08
-0.08
-0.1
-0.105
-0.12
-0.12
-0.115
-0.115
-0.135
-0.12
-0.13
-0.135
-0.135
-0.135
-0.13
-0.135
-0.14
-0.12
-0.08
-0.055
-0.065
-0.025
0.03
0.0
-0.065
-0.08
-0.12
-0.15
-0.145
-0.145
-0.16
-0.155
-0.165
-0.1
0.085
0.52
0.75
-0.015
-0.84
-0.63
-0.21
-0.1
-0.08
-0.06
-0.06
-0.03
-0.03
-0.005
-0.005
0.025
0.04
0.065
0.085
0.135
0.17
0.22
0.28
0.35
0.41
0.485
0.53
0.57
0.575
0.53
0.455
0.375
0.25
0.145
0.05
-0.015
-0.05
-0.06
-0.1
-0.095
-0.095
-0.08
-0.08
-0.075
-0.075
-0.05
-0.06
-0.05
-0.045
-0.05
-0.05
-0.055
-0.07
-0.07
-0.08
-0.08
-0.1
-0.095
-0.11
-0.1
-0.1
-0.1
-0.11
-0.11
-0.115
-0.1
-0.11
-0.11
-0.12
-0.115
-0.12
-0.11
-0.12
-0.11
-0.11
-0.075
-0.04
-0.02
-0.01
0.05
0.035
-0.035
-0.07
-0.075
-0.12
-0.135
-0.135
-0.14
-0.14
-0.135
-0.14
0.02
0.47
0.795
0.24
-0.74
-0.76
-0.23
-0.1
-0.06
-0.04
-0.015
-0.015
0.02
0.02
0.04
0.06
0.085
0.1
0.14
0.155
0.215
0.26
0.325
0.4
0.46
0.52
0.6
0.64
0.66
0.625
0.58
0.465
0.36
0.245
0.14
0.065
0.025
-0.03
-0.035
-0.05
-0.05
-0.05
-0.04
-0.05
-0.025
-0.02
-0.005
-0.01
-0.01
-0.005
0.0
-0.015
-0.015
-0.03
-0.03
-0.045
-0.05
-0.06
-0.06
-0.06
-0.06
-0.075
-0.06
-0.075
-0.075
-0.075
-0.08
-0.08
-0.075
-0.09
-0.08
-0.09
-0.07
-0.08
-0.08
-0.08
-0.07
-0.05
0.005
0.02
0.06
0.1
0.12
0.03
-0.01
-0.035
-0.075
-0.1
-0.08
-0.1
-0.1
-0.1
-0.09
0.04
0.51
0.945
0.53
-0.68
-0.94
-0.34
-0.08
-0.04
0.005
0.02
0.04
0.05
0.08
0.09
0.11
0.125
0.155
0.185
0.24
0.25
0.32
0.37
0.45
0.525
0.6
0.665
0.735
0.75
0.735
0.66
0.56
0.44
0.325
0.185
0.11
0.04
0.01
-0.02
-0.015
-0.03
-0.015
-0.01
0.01
0.0
0.02
0.01
0.03
0.02
0.02
0.01
0.02
-0.005
-0.005
-0.02
-0.03
-0.03
-0.04
-0.05
-0.055
-0.07
-0.06
-0.06
-0.06
-0.07
-0.055
-0.07
-0.06
-0.075
-0.075
-0.08
-0.07
-0.08
-0.07
-0.075
-0.07
-0.07
-0.03
0.01
0.04
0.06
0.12
0.105
0.04
-0.015
-0.03
-0.08
-0.08
-0.1
-0.1
-0.115
-0.1
-0.08
0.08
0.605
1.02
0.34
-0.85
-0.94
-0.31
-0.1
-0.03
0.0
0.02
0.03
0.045
0.06
0.08
0.1
0.135
0.15
0.19
0.22
0.265
0.325
0.4
0.46
0.54
0.6
0.68
0.74
0.76
0.72
0.635
0.53
0.415
0.28
0.185
0.09
0.04
-0.01
-0.02
-0.04
-0.03
-0.02
-0.01
-0.015
0.015
0.01
0.025
0.03
0.03
0.02
0.01
0.0
-0.005
-0.02
-0.02
-0.05
-0.06
-0.04
-0.04
-0.06
-0.06
-0.075
-0.06
-0.065
-0.07
-0.08
-0.07
-0.08
-0.06
-0.07
-0.06
-0.08
-0.07
-0.08
-0.075
-0.08
-0.07
-0.06
-0.01
0.01
0.03
0.08
0.13
0.065
-0.005
-0.03
-0.055
-0.11
-0.105
-0.11
-0.105
-0.11
-0.11
-0.035
0.265
0.81
0.975
-0.23
-1.185
-0.785
-0.25
-0.11
-0.03
-0.005
0.025
0.025
0.06
0.065
0.1
0.11
0.145
0.18
0.225
0.25
0.32
0.38
0.465
0.535
0.63
0.7
0.77
0.805
0.795
0.74
0.64
0.52
0.4
0.245
0.145
0.07
0.015
-0.02
-0.015
-0.035
-0.035
-0.015
-0.005
-0.02
0.005
0.01
0.02
0.01
0.02
-0.005
0.005
-0.02
-0.02
-0.04
-0.04
-0.06
-0.06
-0.065
-0.06
-0.08
-0.075
-0.08
-0.07
-0.095
-0.095
-0.1
-0.09
-0.1
-0.095
-0.11
-0.095
-0.115
-0.1
-0.1
-0.1
-0.095
-0.035
-0.015
0.0
0.08
0.12
0.045
-0.04
-0.07
-0.095
-0.13
-0.12
-0.135
-0.12
-0.14
-0.135
-0.05
0.23
0.78
1.005
-0.2
-1.26
-0.88
-0.315
-0.14
-0.065
-0.025
-0.005
0.01
0.04
0.045
0.07
0.09
0.13
0.165
0.215
0.26
0.325
0.375
0.445
0.52
0.62
0.68
0.765
0.8
0.79
0.725
0.635
0.49
0.35
0.215
0.125
0.04
0.01
-0.03
-0.025
-0.035
-0.03
-0.03
-0.015
-0.02
-0.01
0.005
0.005
0.005
0.01
-0.005
0.0
-0.015
-0.01
-0.04
-0.035
-0.06
-0.055
-0.06
-0.07
-0.075
-0.07
-0.07
-0.075
-0.07
-0.07
-0.08
-0.08
-0.095
-0.08
-0.08
-0.08
-0.1
-0.1
-0.095
-0.09
-0.095
-0.06
-0.05
-0.005
-0.005
0.045
0.1
0.08
-0.02
-0.05
-0.09
-0.115
-0.135
-0.12
-0.14
-0.14
-0.15
-0.13
0.02
0.56
0.985
0.41
-0.87
-1.055
-0.395
-0.145
-0.075
-0.03
-0.015
0.005
0.02
0.04
0.04
0.06
0.085
0.13
0.16
0.2
0.245
0.32
0.365
0.46
0.54
0.63
0.7
0.765
0.78
0.76
0.655
0.555
0.42
0.285
0.16
0.08
-0.005
-0.04
-0.07
-0.07
-0.08
-0.07
-0.07
-0.07
-0.065
-0.055
-0.04
-0.03
-0.035
-0.03
-0.04
-0.04
-0.055
-0.06
-0.075
-0.075
-0.095
-0.09
-0.11
-0.11
-0.12
-0.12
-0.115
-0.115
-0.1
-0.11
-0.12
-0.12
-0.12
-0.12
-0.12
-0.12
-0.135
-0.12
-0.135
-0.12
-0.13
-0.12
-0.1
-0.04
-0.035
-0.01
0.03
0.085
0.01
-0.05
-0.075
-0.11
-0.15
-0.14
-0.16
-0.155
-0.155
-0.165
-0.11
0.14
0.68
0.945
-0.055
-1.07
-0.815
-0.26
-0.12
-0.065
-0.045
-0.02
-0.015
-0.005
0.01
0.04
0.055
0.085
0.11
0.14
0.185
0.24
0.3
0.38
0.45
0.545
0.61
0.7
0.735
0.745
0.7
0.63
0.5
0.37
0.24
0.12
0.03
-0.015
-0.05
-0.06
-0.08
-0.09
-0.095
-0.09
-0.09
-0.075
-0.07
-0.04
-0.055
-0.04
-0.04
-0.035
-0.05
-0.06
-0.07
-0.075
-0.08
-0.1
-0.1
-0.1
-0.115
-0.115
-0.115
-0.115
-0.12
-0.12
-0.12
-0.12
-0.12
-0.12
-0.135
-0.13
-0.14
-0.135
-0.13
-0.13
-0.12
-0.14
-0.14
-0.135
-0.135
-0.13
-0.115
-0.06
-0.035
-0.015
0.04
0.055
-0.025
-0.08
-0.095
-0.14
-0.165
-0.165
-0.175
-0.175
-0.175
-0.17
-0.08
0.3
0.825
0.785
-0.45
-1.15
-0.6
-0.21
-0.12
-0.08
-0.06
-0.04
-0.02
0.0
0.015
0.04
0.055
0.085
0.105
0.14
0.185
0.24
0.3
0.4
0.46
0.55
0.62
0.705
0.73
0.72
0.68
0.58
0.46
0.335
0.2
0.105
0.025
-0.025
-0.065
-0.08
-0.095
-0.08
-0.09
-0.08
-0.08
-0.065
-0.06
-0.05
-0.035
-0.04
-0.045
-0.055
-0.07
-0.07
-0.08
-0.08
-0.1
-0.1
-0.115
-0.115
-0.12
-0.12
-0.12
-0.12
-0.13
-0.12
-0.135
-0.135
-0.135
-0.135
-0.14
-0.13
-0.13
-0.135
-0.14
-0.135
-0.12
-0.12
-0.13
-0.135
-0.13
-0.12
-0.105
-0.06
-0.03
-0.025
0.04
0.06
0.005
-0.06
-0.08
-0.12
-0.15
-0.15
-0.165
-0.155
-0.17
-0.165
-0.095
0.2
0.76
0.92
-0.23
-1.13
-0.72
-0.23
-0.11
-0.06
-0.04
-0.025
-0.015
0.01
0.025
0.05
0.07
0.1
0.125
0.165
0.2
0.24
0.31
0.38
0.46
0.54
0.625
0.69
0.74
0.75
0.695
0.62
0.5
0.37
0.245
0.13
0.055
-0.01
-0.04
-0.06
-0.07
-0.075
-0.075
-0.05
-0.055
-0.045
-0.035
-0.035
-0.02
-0.02
-0.025
-0.03
-0.035
-0.04
-0.05
-0.06
-0.07
-0.08
-0.095
-0.08
-0.08
-0.09
-0.105
-0.105
-0.105
-0.1
-0.11
-0.115
-0.12
-0.11
-0.11
-0.115
-0.11
-0.115
-0.12
-0.115
-0.12
-0.115
-0.12
-0.13
-0.12
-0.12
-0.12
-0.06
-0.02
-0.015
0.01
0.08
0.06
-0.02
-0.06
-0.08
-0.14
-0.155
-0.155
-0.14
-0.16
-0.155
-0.145
-0.01
0.475
0.965
0.56
-0.72
-1.075
-0.44
-0.155
-0.07
-0.035
-0.02
0.005
0.005
0.02
0.045
0.06
0.08
0.12
0.145
0.185
0.225
0.28
0.345
0.43
0.51
0.6
0.665
0.73
0.755
0.74
0.68
0.575
0.455
0.32
0.19
0.1
0.03
-0.01
-0.04
-0.07
-0.07
-0.065
-0.06
-0.06
-0.04
-0.035
-0.03
-0.025
-0.02
-0.02
-0.03
-0.04
-0.04
-0.04
-0.055
-0.07
-0.08
-0.075
-0.095
-0.095
-0.08
-0.1
-0.11
-0.1
-0.1
-0.12
-0.11
-0.12
-0.12
-0.11
-0.12
-0.13
-0.12
-0.13
-0.12
-0.12
-0.12
-0.12
-0.13
-0.13
-0.13
-0.135
-0.115
-0.065
-0.03
-0.015
0.03
0.08
0.015
-0.06
-0.075
-0.12
-0.14
-0.165
-0.155
-0.155
-0.175
-0.175
-0.095
0.2
0.77
0.97
-0.23
-1.245
-0.88
-0.32
-0.155
-0.08
-0.065
-0.05
-0.02
-0.015
0.005
0.04
0.045
0.08
0.11
0.15
0.205
0.255
0.32
0.4
0.475
0.58
0.66
0.725
0.775
0.77
0.725
0.63
0.52
0.38
0.24
0.13
0.04
-0.02
-0.05
-0.075
-0.09
-0.08
-0.08
-0.065
-0.07
-0.06
-0.07
-0.05
-0.06
-0.05
-0.06
-0.065
-0.08
-0.08
-0.1
-0.105
-0.095
-0.115
-0.12
-0.135
-0.14
-0.13
-0.14
-0.15
-0.15
-0.155
-0.16
-0.15
-0.165
-0.155
-0.165
-0.165
-0.155
-0.15
-0.165
-0.165
-0.17
-0.17
-0.165
-0.165
-0.14
-0.1
-0.065
-0.06
-0.005
0.03
-0.05
-0.115
-0.135
-0.175
-0.185
-0.2
-0.195
-0.19
-0.2
-0.21
-0.1
0.25
0.79
0.82
-0.43
-1.23
-0.76
-0.315
-0.18
-0.13
-0.105
-0.08
-0.06
-0.055
-0.04
-0.02
0.005
0.025
0.06
0.095
0.14
0.2
0.245
0.32
0.385
0.46
0.545
0.6
0.625
0.62
0.565
0.475
0.37
0.24
0.12
0.025
-0.04
-0.08
-0.115
-0.135
-0.14
-0.14
-0.14
-0.13
-0.12
-0.115
-0.1
-0.1
-0.11
-0.11
-0.11
-0.11
-0.11
-0.115
-0.13
-0.14
-0.165
-0.17
-0.17
-0.18
-0.18
-0.185
-0.185
-0.185
-0.185
-0.2
-0.2
-0.19
-0.19
-0.195
-0.2
-0.195
-0.2
-0.165
-0.135
-0.115
-0.11
-0.055
-0.04
-0.1
-0.15
-0.165
-0.21
-0.22
-0.23
-0.23
-0.235
-0.24
-0.215
-0.08
0.37
0.8
0.5
-0.655
-1.07
-0.505
-0.24
-0.175
-0.14
-0.115
-0.1
-0.08
-0.075
-0.06
-0.035
-0.015
0.015
0.045
0.08
0.125
0.18
0.26
0.32
0.4
0.475
0.56
0.605
0.625
0.6
0.54
0.445
0.325
0.19
0.08
-0.005
-0.07
-0.12
-0.14
-0.14
-0.15
-0.15
-0.145
-0.15
-0.14
-0.115
-0.11
-0.1
-0.105
-0.105
-0.11
-0.1
-0.115
-0.11
-0.12
-0.135
-0.14
-0.135
-0.145
-0.17
-0.165
-0.165
-0.155
-0.165
-0.17
-0.175
-0.17
-0.17
-0.18
-0.17
-0.165
-0.165
-0.135
-0.095
-0.07
-0.04
0.02
0.02
-0.06
-0.1
-0.13
-0.18
-0.19
-0.195
-0.19
-0.2
-0.2
-0.195
-0.06
0.46
0.905
0.5
-0.785
-1.125
-0.47
-0.2
-0.12
-0.08
-0.06
-0.055
-0.03
-0.02
0.0
0.04
0.06
0.085
0.125
0.17
0.21
0.27
0.36
0.43
0.53
0.62
0.705
0.78
0.795
0.785
0.72
0.6
0.46
0.305
0.17
0.07
-0.005
-0.055
-0.07
-0.08
-0.09
-0.1
-0.1
-0.09
-0.08
-0.06
-0.07
-0.055
-0.05
-0.055
-0.04
-0.04
-0.05
-0.06
-0.07
-0.08
-0.08
-0.08
-0.1
-0.105
-0.1
-0.11
-0.1
-0.115
-0.12
-0.115
-0.12
-0.12
-0.11
-0.12
-0.13
-0.12
-0.12
-0.08
-0.03
-0.01
0.015
0.08
0.08
0.005
-0.04
-0.08
-0.13
-0.14
-0.14
-0.14
-0.15
-0.145
-0.135
0.025
0.54
1.03
0.54
-0.84
-1.175
-0.455
-0.165
-0.07
-0.03
-0.005
0.005
0.04
0.04
0.08
0.095
0.125
0.15
0.185
0.24
0.29
0.34
0.435
0.505
0.615
0.705
0.795
0.865
0.905
0.88
0.795
0.68
0.52
0.37
0.225
0.11
0.045
0.005
-0.015
-0.03
-0.03
-0.04
-0.03
-0.02
-0.02
-0.01
0.005
-0.005
0.045
0.01
0.005
0.01
-0.01
-0.015
-0.02
-0.03
-0.03
-0.04
-0.02
-0.06
-0.04
-0.06
-0.055
-0.06
-0.065
-0.06
-0.06
-0.075
-0.06
-0.07
-0.06
-0.075
-0.08
-0.075
-0.035
0.02
0.045
0.05
0.13
0.14
0.06
-0.01
-0.035
-0.08
-0.1
-0.1
-0.11
-0.105
-0.105
-0.115
-0.015
0.345
0.95
1.005
-0.36
-1.27
-0.72
-0.215
-0.065
-0.015
0.015
0.04
0.06
0.065
0.09
0.1
0.14
0.16
0.22
0.25
0.3
0.35
0.435
0.52
0.625
0.72
0.81
0.885
0.95
0.935
0.88
0.78
0.63
0.465
0.31
0.19
0.1
0.04
0.015
-0.01
-0.015
-0.015
-0.01
-0.015
0.0
0.0
0.03
0.025
0.045
0.04
0.04
0.02
0.015
-0.005
-0.005
-0.02
-0.03
-0.035
-0.04
-0.05
-0.055
-0.055
-0.055
-0.06
-0.055
-0.07
-0.055
-0.07
-0.07
-0.07
-0.06
-0.065
-0.065
-0.08
-0.07
-0.04
0.02
0.04
0.08
0.125
0.145
0.05
-0.02
-0.04
-0.08
-0.115
-0.105
-0.105
-0.11
-0.12
-0.12
-0.005
0.42
1.015
0.98
-0.495
-1.4
-0.81
-0.29
-0.115
-0.03
0.005
0.02
0.045
0.065
0.08
0.12
0.14
0.17
0.2
0.26
0.3
0.37
0.445
0.525
0.625
0.73
0.82
0.92
0.94
0.945
0.86
0.765
0.6
0.445
0.25
0.15
0.065
0.025
-0.01
-0.025
-0.04
-0.03
-0.035
-0.025
-0.02
-0.005
-0.02
0.005
0.005
0.01
-0.005
0.0
-0.02
-0.02
-0.035
-0.04
-0.06
-0.055
-0.07
-0.065
-0.08
-0.08
-0.08
-0.08
-0.1
-0.1
-0.105
-0.095
-0.105
-0.1
-0.11
-0.1
-0.09
-0.05
-0.005
0.0
0.055
0.14
0.1
-0.005
-0.06
-0.08
-0.13
-0.135
-0.14
-0.13
-0.145
-0.15
-0.14
0.005
0.54
1.09
0.63
-0.905
-1.42
-0.65
-0.27
-0.12
-0.07
-0.02
0.005
0.03
0.045
0.08
0.095
0.125
0.15
0.2
0.245
0.32
0.37
0.455
0.545
0.65
0.76
0.845
0.905
0.94
0.9
0.82
0.69
0.52
0.34
0.205
0.095
0.03
-0.03
-0.04
-0.06
-0.07
-0.065
-0.06
-0.055
-0.05
-0.055
-0.04
-0.035
-0.02
-0.03
-0.035
-0.035
-0.04
-0.06
-0.06
-0.075
-0.075
-0.09
-0.08
-0.095
-0.105
-0.12
-0.12
-0.12
-0.115
-0.12
-0.11
-0.12
-0.12
-0.13
-0.12
-0.12
-0.12
-0.135
-0.11
-0.125
-0.105
-0.055
-0.02
-0.015
0.06
0.09
0.03
-0.055
-0.08
-0.13
-0.165
-0.165
-0.165
-0.17
-0.165
-0.175
-0.14
0.04
0.63
1.06
0.32
-1.055
-1.16
-0.43
-0.18
-0.105
-0.04
-0.025
0.005
0.015
0.04
0.055
0.08
0.1
0.145
0.18
0.225
0.28
0.36
0.43
0.54
0.635
0.74
0.83
0.905
0.93
0.895
0.795
0.685
0.52
0.35
0.205
0.105
0.02
-0.04
-0.06
-0.07
-0.07
-0.08
-0.08
-0.07
-0.08
-0.065
-0.06
-0.04
-0.05
-0.025
-0.04
-0.035
-0.055
-0.04
-0.055
-0.065
-0.08
-0.075
-0.08
-0.095
-0.1
-0.095
-0.12
-0.12
-0.12
-0.11
-0.115
-0.115
-0.12
-0.115
-0.12
-0.11
-0.11
-0.12
-0.12
-0.12
-0.12
-0.12
-0.115
-0.115
-0.13
-0.105
-0.07
-0.01
-0.005
0.045
0.105
0.08
-0.025
-0.05
-0.1
-0.13
-0.15
-0.14
-0.155
-0.16
-0.165
-0.155
-0.065
0.4
0.955
0.83
-0.58
-1.285
-0.64
-0.215
-0.1
-0.05
-0.03
-0.01
0.02
0.04
0.05
0.08
0.09
0.12
0.155
0.2
0.245
0.315
0.38
0.475
0.57
0.67
0.78
0.865
0.9
0.9
0.83
0.725
0.585
0.43
0.275
0.145
0.05
-0.02
-0.05
-0.08
-0.095
-0.095
-0.095
-0.08
-0.1
-0.08
-0.08
-0.08
-0.08
-0.07
-0.07
-0.075
-0.08
-0.08
-0.095
-0.1
-0.11
-0.12
-0.135
-0.145
-0.16
-0.16
-0.165
-0.175
-0.175
-0.175
-0.18
-0.17
-0.17
-0.18
-0.195
-0.19
-0.18
-0.18
-0.19
-0.195
-0.195
-0.2
-0.19
-0.195
-0.19
-0.19
-0.15
-0.08
-0.08
-0.04
0.02
-0.02
-0.1
-0.15
-0.18
-0.23
-0.235
-0.235
-0.24
-0.24
-0.24
-0.26
-0.12
0.38
0.92
0.6
-0.83
-1.36
-0.66
-0.295
-0.195
-0.145
-0.12
-0.095
-0.08
-0.06
-0.04
-0.015
0.0
0.04
0.07
0.105
0.16
0.22
0.305
0.4
0.485
0.585
0.68
0.77
0.795
0.795
0.72
0.615
0.465
0.31
0.155
0.025
-0.06
-0.11
-0.15
-0.165
-0.18
-0.18
-0.18
-0.185
-0.18
-0.165
-0.155
-0.16
-0.145
-0.15
-0.14
-0.15
-0.155
-0.165
-0.175
-0.19
-0.18
-0.2
-0.21
-0.215
-0.215
-0.215
-0.22
-0.22
-0.23
-0.23
-0.23
-0.24
-0.235
-0.235
-0.24
-0.24
-0.24
-0.24
-0.23
-0.235
-0.24
-0.24
-0.235
-0.215
-0.165
-0.12
-0.115
-0.045
-0.005
-0.07
-0.17
-0.195
-0.22
-0.265
-0.27
-0.24
-0.26
-0.28
-0.26
-0.24
-0.065
0.525
0.965
0.165
-1.24
-1.36
-0.6
-0.31
-0.2
-0.15
-0.13
-0.11
-0.08
-0.06
-0.03
-0.02
0.01
0.045
0.095
0.145
0.205
0.28
0.365
0.45
0.57
0.67
0.77
0.86
0.88
0.845
0.76
0.63
0.47
0.3
0.145
0.025
-0.05
-0.105
-0.135
-0.155
-0.165
-0.155
-0.155
-0.165
-0.145
-0.13
-0.12
-0.12
-0.11
-0.11
-0.11
-0.12
-0.13
-0.135
-0.14
-0.15
-0.16
-0.165
-0.17
-0.17
-0.18
-0.18
-0.18
-0.19
-0.19
-0.185
-0.185
-0.19
-0.195
-0.19
-0.19
-0.19
-0.175
-0.2
-0.19
-0.175
-0.12
-0.08
-0.07
-0.005
0.06
-0.02
-0.11
-0.12
-0.175
-0.2
-0.21
-0.22
-0.21
-0.22
-0.215
-0.18
0.0
0.585
1.09
0.315
-1.195
-1.39
-0.62
-0.295
-0.155
-0.095
-0.05
-0.04
-0.02
0.005
0.04
0.06
0.09
0.12
0.15
0.205
0.265
0.34
0.43
0.525
0.63
0.735
0.83
0.905
0.93
0.895
0.795
0.68
0.51
0.33
0.185
0.08
0.0
-0.04
-0.07
-0.08
-0.08
-0.1
-0.095
-0.08
-0.07
-0.06
-0.05
-0.06
-0.045
-0.055
-0.055
-0.06
-0.06
-0.075
-0.08
-0.08
-0.08
-0.105
-0.11
-0.12
-0.11
-0.125
-0.125
-0.12
-0.12
-0.12
-0.12
-0.13
-0.13
-0.12
-0.135
-0.125
-0.12
-0.12
-0.12
-0.135
-0.13
-0.11
-0.055
-0.02
-0.005
0.06
0.13
0.04
-0.04
-0.08
-0.105
-0.145
-0.145
-0.15
-0.14
-0.155
-0.15
-0.12
0.08
0.685
1.105
0.24
-1.15
-1.195
-0.45
-0.175
-0.07
-0.035
-0.005
0.02
0.04
0.055
0.085
0.095
0.13
0.165
0.21
0.25
0.32
0.38
0.47
0.57
0.68
0.77
0.86
0.93
0.95
0.9
0.82
0.685
0.535
0.375
0.22
0.105
0.03
-0.01
-0.04
-0.06
-0.065
-0.07
-0.055
-0.06
-0.05
-0.04
-0.025
-0.03
-0.005
-0.02
-0.015
-0.02
-0.02
-0.04
-0.04
-0.05
-0.07
-0.075
-0.08
-0.095
-0.08
-0.095
-0.1
-0.11
-0.1
-0.1
-0.1
-0.115
-0.11
-0.105
-0.11
-0.11
-0.1
-0.115
-0.11
-0.095
-0.04
-0.005
0.025
0.07
0.125
0.08
-0.02
-0.04
-0.08
-0.13
-0.14
-0.135
-0.135
-0.15
-0.14
-0.12
0.04
0.6
1.06
0.44
-0.96
-1.19
-0.425
-0.165
-0.06
-0.015
0.01
0.02
0.045
0.06
0.085
0.105
0.125
0.17
0.205
0.24
0.305
0.37
0.46
0.56
0.65
0.76
0.86
0.935
0.96
0.925
0.84
0.72
0.57
0.4
0.26
0.14
0.05
-0.005
-0.025
-0.05
-0.05
-0.06
-0.055
-0.06
-0.055
-0.05
-0.035
-0.03
-0.02
-0.02
-0.015
-0.025
-0.02
-0.035
-0.04
-0.05
-0.06
-0.07
-0.07
-0.08
-0.075
-0.08
-0.08
-0.075
-0.075
-0.08
-0.08
-0.08
-0.08
-0.08
-0.09
-0.1
-0.08
-0.095
-0.075
-0.025
0.02
0.03
0.08
0.14
0.065
-0.015
-0.04
-0.09
-0.12
-0.12
-0.12
-0.13
-0.135
-0.12
-0.08
0.145
0.745
1.08
0.08
-1.175
-1.01
-0.315
-0.115
-0.04
-0.01
0.02
0.04
0.04
0.07
0.085
0.12
0.145
0.185
0.215
0.265
0.31
0.39
0.475
0.575
0.665
0.77
0.86
0.93
0.94
0.9
0.805
0.69
0.52
0.36
0.24
0.12
0.04
-0.005
-0.02
-0.04
-0.04
-0.04
-0.05
-0.04
-0.03
-0.025
-0.02
-0.015
-0.015
-0.01
-0.015
-0.01
-0.015
-0.03
-0.04
-0.055
-0.065
-0.06
-0.08
-0.075
-0.08
-0.08
-0.08
-0.07
-0.08
-0.09
-0.08
-0.08
-0.095
-0.1
-0.1
-0.08
-0.08
-0.035
0.01
0.04
0.08
0.135
0.09
-0.01
-0.05
-0.075
-0.13
-0.12
-0.145
-0.15
-0.15
-0.14
-0.13
0.045
0.62
1.095
0.42
-1.06
-1.33
-0.555
-0.22
-0.1
-0.04
-0.005
0.01
0.03
0.05
0.08
0.1
0.12
0.16
0.2
0.24
0.305
0.37
0.46
0.55
0.66
0.76
0.865
0.935
0.97
0.96
0.85
0.705
0.545
0.38
0.22
0.09
0.02
-0.05
-0.075
-0.08
-0.09
-0.095
-0.095
-0.095
-0.08
-0.08
-0.07
-0.055
-0.07
-0.065
-0.07
-0.07
-0.08
-0.11
-0.11
-0.13
-0.14
-0.145
-0.15
-0.165
-0.17
-0.17
-0.175
-0.175
-0.175
-0.18
-0.19
-0.19
-0.185
-0.195
-0.2
-0.185
-0.12
-0.095
-0.08
-0.01
0.05
-0.035
-0.135
-0.155
-0.19
-0.23
-0.235
-0.24
-0.24
-0.24
-0.24
-0.17
0.095
0.68
1.04
-0.15
-1.495
-1.27
-0.56
-0.305
-0.195
-0.135
-0.11
-0.08
-0.07
-0.04
-0.02
-0.005
0.04
0.08
0.125
0.17
0.225
0.305
0.4
0.48
0.58
0.69
0.79
0.845
0.85
0.795
0.685
0.53
0.375
0.205
0.085
-0.03
-0.1
-0.12
-0.14
-0.14
-0.15
-0.165
-0.155
-0.135
-0.115
-0.13
-0.13
-0.135
-0.12
-0.12
-0.12
-0.13
-0.14
-0.16
-0.145
-0.18
-0.175
-0.19
-0.19
-0.2
-0.2
-0.21
-0.215
-0.22
-0.215
-0.22
-0.215
-0.22
-0.215
-0.215
-0.16
-0.12
-0.11
-0.05
0.025
-0.04
-0.13
-0.18
-0.19
-0.24
-0.235
-0.25
-0.25
-0.25
-0.255
-0.225
-0.035
0.52
0.985
0.24
-1.265
-1.46
-0.635
-0.32
-0.18
-0.13
-0.095
-0.07
-0.04
-0.035
0.005
0.02
0.065
0.105
0.155
0.18
0.255
0.325
0.43
0.52
0.625
0.725
0.82
0.88
0.9
0.84
0.74
0.6
0.425
0.26
0.125
0.01
-0.06
-0.1
-0.115
-0.135
-0.135
-0.12
-0.11
-0.12
-0.115
-0.095
-0.09
-0.1
-0.08
-0.1
-0.095
-0.115
-0.11
-0.13
-0.13
-0.14
-0.155
-0.155
-0.16
-0.165
-0.165
-0.17
-0.17
-0.17
-0.175
-0.175
-0.17
-0.175
-0.17
-0.175
-0.17
-0.16
-0.13
-0.07
-0.04
-0.02
0.06
0.04
-0.06
-0.115
-0.14
-0.185
-0.185
-0.2
-0.2
-0.2
-0.2
-0.2
-0.07
0.43
0.945
0.665
-0.775
-1.36
-0.6
-0.24
-0.13
-0.07
-0.05
-0.025
-0.005
0.005
0.03
0.055
0.095
0.12
0.155
0.19
0.26
0.315
0.4
0.49
0.6
0.705
0.81
0.865
0.93
0.89
0.82
0.69
0.56
0.385
0.24
0.11
0.03
-0.035
-0.055
-0.08
-0.08
-0.08
-0.095
-0.095
-0.08
-0.08
-0.065
-0.06
-0.05
-0.06
-0.04
-0.05
-0.04
-0.06
-0.065
-0.08
-0.08
-0.1
-0.09
-0.105
-0.11
-0.115
-0.11
-0.115
-0.12
-0.12
-0.115
-0.12
-0.115
-0.1
-0.04
-0.015
0.015
0.08
0.12
0.05
-0.03
-0.07
-0.11
-0.14
-0.13
-0.14
-0.145
-0.15
-0.14
-0.09
0.22
0.81
1.09
-0.13
-1.36
-1.055
-0.34
-0.14
-0.05
-0.005
0.02
0.04
0.065
0.1
0.11
0.13
0.18
0.2
0.26
0.3
0.375
0.445
0.535
0.62
0.74
0.825
0.925
0.98
0.995
0.93
0.83
0.68
0.52
0.35
0.24
0.12
0.065
0.015
-0.005
-0.01
-0.01
-0.02
-0.02
-0.015
-0.005
-0.005
0.015
0.005
0.02
0.01
0.02
0.01
0.01
-0.005
-0.015
-0.02
-0.015
-0.03
-0.035
-0.04
-0.04
-0.055
-0.04
-0.06
-0.05
-0.05
-0.04
-0.01
0.04
0.04
0.08
0.13
0.125
0.025
0.0
-0.02
-0.06
-0.08
-0.08
-0.09
-0.08
-0.08
-0.06
0.08
0.55
0.93
0.44
-0.75
-0.96
-0.35
-0.1
-0.035
0.02
0.025
0.055
0.08
0.08
0.1
0.12
0.125
0.16
0.18
0.24
0.27
0.32
0.39
0.46
0.54
0.62
0.68
0.73
0.73
0.72
0.63
0.55
0.405
0.3
0.18
0.105
0.055
0.025
0.0
0.0
-0.02
-0.005
-0.02
-0.005
-0.005
-0.005
-0.005
0.01
-0.005
0.02
-0.005
0.015
-0.005
-0.005
-0.02
-0.015
-0.03
-0.025
-0.04
-0.04
-0.05
-0.04
-0.05
-0.04
-0.03
0.01
0.01
0.04
0.08
0.1
0.03
0.0
-0.02
-0.06
-0.1
-0.06
-0.095
-0.08
-0.08
-0.095
0.02
0.415
0.74
0.47
-0.46
-0.76
-0.275
-0.07
-0.065
-0.015
0.01
0.02
0.02
0.055
0.045
0.08
0.085
0.105
0.125
0.155
0.195
0.245
0.29
0.385
0.46
0.5
0.54
0.61
0.625
0.625
0.56
0.46
0.34
0.24
0.13
0.08
0.025
-0.02
-0.04
-0.02
-0.05
-0.04
-0.04
-0.04
-0.055
-0.035
-0.04
-0.03
-0.035
-0.035
-0.035
-0.015
-0.04
-0.03
-0.03
-0.035
-0.055
-0.04
-0.065
-0.04
-0.07
-0.07
-0.065
-0.035
-0.005
0.02
0.025
0.085
0.065
0.0
-0.02
-0.03
-0.08
-0.08
-0.095
-0.08
-0.1
-0.09
-0.065
0.12
0.55
0.84
0.19
-0.71
-0.66
-0.18
-0.06
-0.01
0.01
0.02
0.03
0.05
0.045
0.085
0.095
0.12
0.14
0.18
0.21
0.255
0.305
0.375
0.44
0.52
0.6
0.68
0.725
0.72
0.69
0.61
0.485
0.37
0.24
0.155
0.08
0.04
0.01
0.005
-0.01
-0.02
-0.02
-0.015
-0.02
0.01
-0.005
0.02
0.01
0.015
0.01
0.04
0.01
0.015
0.005
-0.005
-0.015
-0.01
-0.03
-0.02
-0.025
-0.03
-0.015
0.04
0.05
0.065
0.12
0.155
0.1
0.05
0.02
-0.02
-0.07
-0.055
-0.065
-0.08
-0.08
-0.08
0.02
0.385
0.88
0.855
-0.32
-0.97
-0.455
-0.075
-0.005
0.025
0.03
0.065
0.08
0.1
0.12
0.135
0.145
0.185
0.21
0.255
0.3
0.36
0.415
0.505
0.58
0.68
0.75
0.84
0.85
0.845
0.77
0.68
0.51
0.365
0.23
0.14
0.06
0.04
-0.005
0.0
-0.02
-0.02
-0.02
-0.005
-0.02
0.005
0.0
0.025
0.02
0.03
0.01
0.02
0.01
0.0
-0.02
-0.01
-0.04
-0.03
-0.04
-0.04
-0.015
0.04
0.04
0.07
0.12
0.14
0.06
0.01
-0.02
-0.06
-0.08
-0.075
-0.08
-0.095
-0.11
-0.075
0.08
0.605
1.04
0.6
-0.7
-1.02
-0.37
-0.095
-0.03
0.01
0.025
0.055
0.05
0.08
0.1
0.12
0.145
0.185
0.205
0.265
0.305
0.375
0.46
0.545
0.615
0.725
0.785
0.865
0.86
0.825
0.725
0.605
0.44
0.285
0.165
0.085
0.04
0.01
-0.02
-0.015
-0.03
-0.02
-0.02
-0.005
-0.01
-0.01
0.01
0.01
0.0
-0.005
-0.02
-0.015
-0.03
-0.04
-0.05
-0.04
-0.07
-0.07
-0.065
-0.02
0.02
0.04
0.06
0.14
0.105
0.02
-0.02
-0.06
-0.105
-0.105
-0.115
-0.11
-0.115
-0.12
-0.06
0.2
0.74
1.03
0.0
-1.08
-0.82
-0.23
-0.1
-0.04
-0.01
0.005
0.01
0.05
0.05
0.08
0.1
0.135
0.16
0.205
0.245
0.315
0.38
0.47
0.565
0.655
0.76
0.845
0.88
0.88
0.805
0.7
0.53
0.375
0.22
0.12
0.04
0.005
-0.02
-0.03
-0.055
-0.04
-0.06
-0.04
-0.04
-0.015
-0.015
0.01
0.005
-0.01
-0.015
-0.005
-0.02
-0.035
-0.04
-0.04
-0.05
-0.06
-0.04
0.03
0.02
0.05
0.12
0.11
0.01
-0.03
-0.07
-0.095
-0.115
-0.11
-0.12
-0.12
-0.12
-0.075
0.105
0.62
0.965
0.235
-0.935
-0.93
-0.315
-0.12
-0.06
-0.02
-0.02
0.01
0.02
0.04
0.05
0.08
0.1
0.14
0.16
0.22
0.26
0.31
0.39
0.465
0.535
0.625
0.66
0.72
0.71
0.665
0.56
0.44
0.28
0.18
0.08
0.04
-0.02
-0.02
-0.04
-0.04
-0.04
-0.04
-0.04
-0.04
-0.04
-0.03
-0.03
-0.035
-0.04
-0.025
-0.035
-0.04
-0.04
-0.06
-0.06
-0.06
-0.06
-0.03
-0.015
0.0
0.015
0.075
0.04
-0.025
-0.05
-0.08
-0.13
-0.13
-0.13
-0.12
-0.14
-0.14
-0.08
0.14
0.56
0.76
-0.06
-0.835
-0.6
-0.195
-0.1
-0.07
-0.075
-0.06
-0.04
-0.03
-0.03
-0.01
-0.005
0.005
0.04
0.07
0.1
0.15
0.19
0.25
0.32
0.365
0.42
0.475
0.495
0.48
0.42
0.36
0.25
0.12
0.03
-0.035
-0.08
-0.08
-0.11
-0.115
-0.12
-0.13
-0.135
-0.135
-0.115
-0.12
-0.125
-0.115
-0.13
-0.12
-0.11
-0.12
-0.115
-0.12
-0.13
-0.135
-0.14
-0.135
-0.105
-0.08
-0.08
-0.05
0.01
-0.01
-0.1
-0.13
-0.15
-0.17
-0.17
-0.165
-0.18
-0.175
-0.185
-0.1
0.15
0.52
0.54
-0.32
-0.85
-0.47
-0.195
-0.13
-0.12
-0.11
-0.11
-0.08
-0.07
-0.07
-0.04
-0.03
-0.01
0.03
0.06
0.09
0.12
0.175
0.24
0.32
0.37
0.44
0.485
0.5
0.475
0.42
0.33
0.22
0.095
0.01
-0.04
-0.075
-0.105
-0.11
-0.12
-0.12
-0.12
-0.115
-0.125
-0.12
-0.135
-0.12
-0.125
-0.12
-0.13
-0.13
-0.13
-0.12
-0.14
-0.14
-0.15
-0.165
-0.17
-0.16
-0.13
-0.09
-0.09
-0.07
-0.005
-0.01
-0.1
-0.13
-0.15
-0.18
-0.19
-0.195
-0.2
-0.21
-0.2
-0.15
0.07
0.505
0.74
-0.035
-0.84
-0.64
-0.235
-0.14
-0.12
-0.1
-0.08
-0.075
-0.06
-0.04
-0.035
0.0
0.005
0.04
0.07
0.11
0.16
0.225
0.285
0.36
0.42
0.49
0.545
0.57
0.56
0.51
0.42
0.32
0.19
0.08
-0.005
-0.04
-0.07
-0.08
-0.08
-0.09
-0.11
-0.1
-0.095
-0.095
-0.09
-0.08
-0.075
-0.065
-0.06
-0.065
-0.07
-0.08
-0.08
-0.09
-0.1
-0.1
-0.105
-0.115
-0.12
-0.12
-0.115
-0.08
-0.045
-0.035
0.01
0.08
0.05
-0.04
-0.095
-0.115
-0.155
-0.165
-0.155
-0.145
-0.155
-0.155
-0.12
0.11
0.565
0.84
0.02
-0.88
-0.7
-0.21
-0.11
-0.075
-0.075
-0.04
-0.03
-0.02
-0.015
0.01
0.025
0.065
0.1
0.125
0.165
0.22
0.27
0.35
0.42
0.505
0.58
0.635
0.665
0.665
0.61
0.525
0.4
0.265
0.14
0.055
-0.01
-0.04
-0.065
-0.065
-0.08
-0.08
-0.08
-0.07
-0.06
-0.06
-0.04
-0.045
-0.04
-0.03
-0.04
-0.04
-0.055
-0.04
-0.07
-0.075
-0.08
-0.075
-0.095
-0.08
-0.08
-0.095
-0.08
-0.1
-0.11
-0.08
-0.04
-0.01
0.015
0.08
0.14
0.08
-0.035
-0.04
-0.08
-0.12
-0.13
-0.135
-0.135
-0.14
-0.155
-0.075
0.2
0.705
0.885
-0.14
-1.04
-0.66
-0.175
-0.055
-0.035
-0.02
-0.005
0.0
0.02
0.04
0.065
0.085
0.12
0.145
0.18
0.24
0.285
0.345
0.42
0.505
0.59
0.69
0.77
0.795
0.785
0.73
0.635
0.505
0.345
0.22
0.12
0.05
0.02
-0.015
-0.035
-0.04
-0.04
-0.04
-0.03
-0.02
-0.02
0.0
-0.005
0.005
0.01
0.0
0.0
-0.01
-0.03
-0.03
-0.035
-0.04
-0.05
-0.06
-0.06
-0.07
-0.065
-0.065
-0.07
-0.075
-0.075
-0.08
-0.08
-0.08
-0.075
-0.015
0.02
0.025
0.09
0.165
0.09
-0.015
-0.04
-0.065
-0.12
-0.12
-0.12
-0.13
-0.13
-0.12
-0.08
0.185
0.74
0.96
-0.12
-1.125
-0.77
-0.22
-0.08
-0.04
-0.025
0.005
0.025
0.025
0.05
0.08
0.09
0.125
0.15
0.2
0.245
0.3
0.38
0.47
0.55
0.655
0.74
0.82
0.865
0.87
0.795
0.7
0.565
0.405
0.25
0.145
0.06
0.01
-0.02
-0.025
-0.03
-0.03
-0.035
-0.03
-0.02
-0.005
-0.005
0.0
-0.005
-0.005
-0.01
-0.01
-0.025
-0.04
-0.055
-0.055
-0.06
-0.07
-0.06
-0.08
-0.09
-0.08
-0.09
-0.095
-0.1
-0.1
-0.1
-0.1
-0.1
-0.1
-0.11
-0.1
-0.05
-0.01
0.02
0.06
0.14
0.12
0.0
-0.055
-0.075
-0.12
-0.14
-0.14
-0.13
-0.145
-0.14
-0.11
0.045
0.59
1.04
0.35
-1.04
-1.24
-0.51
-0.2
-0.095
-0.04
-0.015
0.01
0.04
0.03
0.065
0.09
0.13
0.14
0.18
0.24
0.28
0.35
0.43
0.505
0.605
0.695
0.77
0.825
0.84
0.785
0.69
0.565
0.405
0.26
0.14
0.065
0.015
-0.02
-0.04
-0.055
-0.055
-0.05
-0.03
-0.03
-0.015
-0.01
-0.01
-0.02
-0.02
-0.035
-0.035
-0.03
-0.04
-0.06
-0.065
-0.065
-0.08
-0.08
-0.08
-0.1
-0.1
-0.1
-0.1
-0.1
-0.11
-0.115
-0.13
-0.115
-0.11
-0.12
-0.12
-0.115
-0.11
-0.105
-0.055
-0.03
-0.02
0.055
0.105
0.03
-0.05
-0.08
-0.115
-0.15
-0.155
-0.15
-0.15
-0.165
-0.165
-0.075
0.21
0.73
0.975
-0.28
-1.395
-0.98
-0.37
-0.165
-0.095
-0.04
-0.025
-0.01
0.01
0.04
0.065
0.085
0.12
0.145
0.185
0.24
0.31
0.38
0.455
0.535
0.63
0.72
0.78
0.82
0.82
0.75
0.635
0.5
0.345
0.21
0.11
0.03
-0.005
-0.03
-0.05
-0.055
-0.05
-0.055
-0.05
-0.04
-0.04
-0.04
-0.03
-0.035
-0.03
-0.035
-0.04
-0.05
-0.075
-0.08
-0.075
-0.08
-0.1
-0.105
-0.105
-0.12
-0.11
-0.11
-0.125
-0.125
-0.12
-0.12
-0.12
-0.13
-0.12
-0.12
-0.135
-0.12
-0.135
-0.135
-0.135
-0.15
-0.13
-0.11
-0.06
-0.035
-0.04
0.035
0.055
-0.005
-0.08
-0.1
-0.13
-0.165
-0.165
-0.155
-0.165
-0.17
-0.17
-0.08
0.26
0.78
0.81
-0.36
-1.14
-0.645
-0.24
-0.12
-0.08
-0.055
-0.04
-0.02
0.005
0.01
0.025
0.05
0.08
0.12
0.14
0.185
0.245
0.32
0.4
0.45
0.54
0.62
0.67
0.7
0.68
0.625
0.54
0.41
0.285
0.165
0.065
0.0
-0.04
-0.075
-0.1
-0.11
-0.11
-0.11
-0.095
-0.09
-0.08
-0.075
-0.06
-0.055
-0.055
-0.06
-0.065
-0.075
-0.08
-0.09
-0.105
-0.11
-0.115
-0.12
-0.13
-0.125
-0.13
-0.14
-0.14
-0.135
-0.14
-0.13
-0.135
-0.13
-0.14
-0.14
-0.145
-0.14
-0.145
-0.15
-0.15
-0.135
-0.09
-0.05
-0.04
0.015
0.06
0.015
-0.06
-0.08
-0.135
-0.165
-0.175
-0.175
-0.17
-0.175
-0.185
-0.11
0.21
0.725
0.88
-0.255
-1.14
-0.73
-0.26
-0.135
-0.09
-0.07
-0.055
-0.03
-0.02
0.005
0.03
0.06
0.065
0.095
0.12
0.185
0.24
0.31
0.4
0.46
0.545
0.64
0.725
0.76
0.76
0.705
0.61
0.49
0.345
0.205
0.09
0.0
-0.055
-0.08
-0.11
-0.115
-0.12
-0.13
-0.12
-0.11
-0.1
-0.095
-0.08
-0.075
-0.08
-0.075
-0.08
-0.08
-0.09
-0.12
-0.11
-0.115
-0.13
-0.14
-0.14
-0.145
-0.14
-0.15
-0.16
-0.155
-0.18
-0.17
-0.17
-0.165
-0.165
-0.16
-0.165
-0.175
-0.155
-0.165
-0.17
-0.17
-0.165
-0.14
-0.08
-0.06
-0.05
0.02
0.06
-0.02
-0.1
-0.13
-0.17
-0.195
-0.2
-0.195
-0.195
-0.205
-0.22
-0.105
0.32
0.84
0.69
-0.625
-1.27
-0.64
-0.255
-0.14
-0.1
-0.07
-0.05
-0.035
-0.02
0.005
0.025
0.045
0.085
0.115
0.145
0.21
0.27
0.34
0.425
0.52
0.61
0.705
0.77
0.795
0.785
0.72
0.615
0.46
0.33
0.185
0.08
-0.005
-0.065
-0.08
-0.11
-0.11
-0.13
-0.11
-0.1
-0.095
-0.08
-0.075
-0.06
-0.065
-0.075
-0.075
-0.08
-0.08
-0.095
-0.11
-0.11
-0.12
-0.13
-0.13
-0.15
-0.14
-0.15
-0.15
-0.16
-0.145
-0.15
-0.15
-0.155
-0.16
-0.155
-0.15
-0.16
-0.15
-0.155
-0.155
-0.165
-0.165
-0.165
-0.155
-0.12
-0.055
-0.04
-0.02
0.045
0.06
-0.03
-0.08
-0.12
-0.155
-0.18
-0.17
-0.19
-0.18
-0.19
-0.17
-0.04
0.49
0.96
0.52
-0.86
-1.225
-0.515
-0.2
-0.12
-0.065
-0.06
-0.03
-0.01
0.005
0.01
0.05
0.07
0.1
0.14
0.185
0.225
0.3
0.365
0.465
0.545
0.635
0.725
0.795
0.815
0.8
0.72
0.62
0.47
0.32
0.18
0.08
0.0
-0.04
-0.07
-0.08
-0.1
-0.08
-0.08
-0.075
-0.07
-0.055
-0.055
-0.04
-0.05
-0.04
-0.05
-0.06
-0.08
-0.07
-0.095
-0.09
-0.11
-0.12
-0.13
-0.13
-0.14
-0.135
-0.14
-0.14
-0.145
-0.13
-0.14
-0.145
-0.14
-0.14
-0.155
-0.135
-0.145
-0.14
-0.14
-0.14
-0.14
-0.135
-0.14
-0.135
-0.13
-0.08
-0.04
-0.01
0.02
0.095
0.04
-0.05
-0.08
-0.11
-0.165
-0.165
-0.17
-0.17
-0.165
-0.165
-0.1
0.185
0.75
0.985
-0.23
-1.31
-0.95
-0.34
-0.165
-0.08
-0.05
-0.025
-0.02
0.01
0.02
0.05
0.06
0.105
0.13
0.18
0.215
0.285
0.36
0.45
0.54
0.645
0.74
0.825
0.86
0.88
0.82
0.72
0.58
0.43
0.265
0.15
0.04
-0.015
-0.055
-0.06
-0.095
-0.08
-0.095
-0.08
-0.07
-0.04
-0.05
-0.04
-0.055
-0.04
-0.04
-0.06
-0.06
-0.065
-0.08
-0.095
-0.11
-0.1
-0.12
-0.12
-0.14
-0.135
-0.14
-0.14
-0.155
-0.15
-0.155
-0.15
-0.15
-0.15
-0.165
-0.15
-0.16
-0.145
-0.155
-0.15
-0.155
-0.155
-0.16
-0.14
-0.15
-0.14
-0.1
-0.055
-0.04
0.03
0.065
0.01
-0.1
-0.11
-0.155
-0.18
-0.19
-0.18
-0.2
-0.195
-0.2
-0.08
0.24
0.84
0.99
-0.38
-1.48
-0.995
-0.4
-0.195
-0.12
-0.06
-0.05
-0.015
-0.01
0.02
0.04
0.065
0.09
0.14
0.155
0.22
0.265
0.36
0.445
0.545
0.625
0.73
0.785
0.83
0.82
0.765
0.655
0.52
0.35
0.225
0.1
0.03
-0.05
-0.07
-0.08
-0.08
-0.1
-0.08
-0.095
-0.075
-0.07
-0.06
-0.055
-0.06
-0.065
-0.07
-0.08
-0.08
-0.1
-0.105
-0.13
-0.14
-0.14
-0.14
-0.165
-0.155
-0.165
-0.17
-0.18
-0.17
-0.18
-0.18
-0.18
-0.18
-0.185
-0.175
-0.19
-0.18
-0.195
-0.195
-0.19
-0.19
-0.185
-0.175
-0.17
-0.105
-0.08
-0.055
0.02
0.03
-0.07
-0.12
-0.165
-0.19
-0.22
-0.22
-0.225
-0.225
-0.24
-0.24
-0.14
0.29
0.84
0.77
-0.65
-1.445
-0.82
-0.34
-0.2
-0.145
-0.115
-0.09
-0.065
-0.055
-0.04
-0.01
0.015
0.05
0.08
0.125
0.17
0.24
0.32
0.4
0.485
0.6
0.68
0.765
0.795
0.79
0.7
0.59
0.44
0.305
0.155
0.05
-0.06
-0.105
-0.145
-0.16
-0.17
-0.165
-0.17
-0.15
-0.14
-0.13
-0.135
-0.125
-0.115
-0.115
-0.135
-0.12
-0.145
-0.14
-0.165
-0.165
-0.18
-0.18
-0.19
-0.185
-0.2
-0.185
-0.19
-0.195
-0.205
-0.195
-0.215
-0.2
-0.2
-0.2
-0.205
-0.21
-0.215
-0.21
-0.21
-0.2
-0.215
-0.21
-0.22
-0.215
-0.21
-0.16
-0.115
-0.095
-0.07
0.005
-0.005
-0.08
-0.15
-0.175
-0.21
-0.23
-0.24
-0.23
-0.235
-0.24
-0.25
-0.105
0.4
0.89
0.53
-0.875
-1.35
-0.615
-0.28
-0.18
-0.135
-0.1
-0.09
-0.065
-0.04
-0.02
-0.01
0.025
0.06
0.1
0.14
0.21
0.25
0.33
0.42
0.52
0.605
0.725
0.77
0.8
0.785
0.72
0.6
0.465
0.305
0.17
0.055
-0.03
-0.08
-0.12
-0.14
-0.145
-0.145
-0.13
-0.135
-0.12
-0.115
-0.1
-0.1
-0.095
-0.1
-0.095
-0.105
-0.11
-0.13
-0.115
-0.135
-0.15
-0.155
-0.165
-0.17
-0.16
-0.17
-0.17
-0.175
-0.18
-0.175
-0.18
-0.18
-0.18
-0.185
-0.185
-0.185
-0.185
-0.185
-0.175
-0.19
-0.18
-0.195
-0.18
-0.18
-0.17
-0.12
-0.06
-0.06
-0.01
0.045
0.01
-0.09
-0.115
-0.16
-0.2
-0.2
-0.195
-0.21
-0.21
-0.195
-0.16
0.05
0.64
1.0
0.01
-1.235
-1.07
-0.39
-0.19
-0.13
-0.075
-0.08
-0.04
-0.04
-0.01
0.005
0.04
0.065
0.11
0.135
0.19
0.24
0.31
0.385
0.485
0.57
0.685
0.75
0.825
0.82
0.79
0.72
0.57
0.425
0.28
0.145
0.05
-0.025
-0.07
-0.08
-0.1
-0.11
-0.1
-0.1
-0.08
-0.08
-0.07
-0.07
-0.06
-0.06
-0.055
-0.07
-0.07
-0.095
-0.095
-0.11
-0.1
-0.115
-0.12
-0.13
-0.12
-0.135
-0.13
-0.135
-0.135
-0.15
-0.14
-0.155
-0.14
-0.145
-0.135
-0.14
-0.14
-0.15
-0.14
-0.14
-0.145
-0.14
-0.135
-0.14
-0.12
-0.07
-0.035
-0.025
0.04
0.085
0.04
-0.055
-0.08
-0.12
-0.165
-0.16
-0.165
-0.175
-0.175
-0.18
-0.11
0.175
0.77
1.025
-0.165
-1.295
-0.95
-0.325
-0.135
-0.08
-0.05
-0.035
-0.01
0.02
0.04
0.05
0.07
0.1
0.13
0.185
0.24
0.29
0.36
0.44
0.53
0.625
0.725
0.8
0.86
0.86
0.81
0.72
0.59
0.45
0.295
0.175
0.085
0.02
-0.02
-0.06
-0.055
-0.06
-0.05
-0.05
-0.04
-0.035
-0.02
-0.02
-0.015
-0.015
-0.02
-0.035
-0.035
-0.05
-0.04
-0.07
-0.075
-0.08
-0.08
-0.1
-0.08
-0.095
-0.105
-0.11
-0.11
-0.115
-0.11
-0.12
-0.11
-0.105
-0.11
-0.115
-0.1
-0.105
-0.115
-0.115
-0.12
-0.11
-0.11
-0.115
-0.08
-0.055
-0.005
0.015
0.055
0.12
0.08
-0.025
-0.05
-0.08
-0.135
-0.14
-0.135
-0.155
-0.14
-0.15
-0.08
0.125
0.72
1.08
0.105
-1.16
-1.04
-0.35
-0.135
-0.05
-0.015
0.02
0.025
0.04
0.07
0.08
0.105
0.14
0.17
0.21
0.25
0.305
0.375
0.46
0.54
0.64
0.74
0.81
0.88
0.88
0.855
0.76
0.635
0.5
0.36
0.225
0.12
0.05
0.01
-0.03
-0.035
-0.035
-0.025
-0.015
-0.01
-0.01
0.01
0.01
0.0
0.0
0.005
0.0
0.0
-0.01
-0.035
-0.04
-0.055
-0.05
-0.055
-0.06
-0.065
-0.07
-0.08
-0.08
-0.075
-0.08
-0.095
-0.08
-0.1
-0.08
-0.1
-0.1
-0.105
-0.08
-0.1
-0.1
-0.11
-0.1
-0.1
-0.07
-0.015
0.01
0.03
0.09
0.1
0.01
-0.055
-0.075
-0.135
-0.145
-0.155
-0.165
-0.17
-0.165
-0.17
-0.03
0.46
0.985
0.68
-0.78
-1.32
-0.61
-0.23
-0.13
-0.08
-0.055
-0.04
-0.02
-0.01
0.01
0.04
0.065
0.09
0.12
0.155
0.21
0.275
0.34
0.41
0.52
0.6
0.69
0.765
0.78
0.76
0.68
0.58
0.445
0.3
0.15
0.03
-0.06
-0.115
-0.14
-0.165
-0.17
-0.175
-0.175
-0.17
-0.16
-0.145
-0.15
-0.135
-0.15
-0.155
-0.16
-0.18
-0.19
-0.2
-0.21
-0.215
-0.23
-0.235
-0.255
-0.24
-0.265
-0.27
-0.28
-0.275
-0.28
-0.28
-0.28
-0.29
-0.28
-0.3
-0.3
-0.305
-0.31
-0.3
-0.305
-0.31
-0.315
-0.315
-0.275
-0.215
-0.19
-0.17
-0.1
-0.095
-0.18
-0.25
-0.28
-0.33
-0.35
-0.35
-0.35
-0.355
-0.36
-0.36
-0.215
0.255
0.795
0.525
-0.94
-1.54
-0.83
-0.425
-0.3
-0.25
-0.22
-0.21
-0.19
-0.165
-0.14
-0.11
-0.1
-0.06
-0.03
0.015
0.07
0.135
0.21
0.3
0.4
0.49
0.59
0.67
0.705
0.69
0.615
0.5
0.365
0.2
0.065
-0.05
-0.14
-0.19
-0.23
-0.24
-0.255
-0.26
-0.25
-0.235
-0.225
-0.23
-0.21
-0.22
-0.22
-0.21
-0.22
-0.23
-0.24
-0.24
-0.255
-0.26
-0.275
-0.28
-0.29
-0.3
-0.3
-0.305
-0.3
-0.3
-0.3
-0.31
-0.31
-0.315
-0.315
-0.31
-0.3
-0.32
-0.3
-0.31
-0.3
-0.295
-0.25
-0.21
-0.18
-0.13
-0.06
-0.12
-0.22
-0.255
-0.28
-0.315
-0.325
-0.325
-0.33
-0.34
-0.32
-0.255
0.01
0.605
0.99
-0.08
-1.44
-1.335
-0.62
-0.35
-0.235
-0.19
-0.15
-0.135
-0.115
-0.095
-0.06
-0.035
0.0
0.04
0.08
0.11
0.18
0.26
0.345
0.44
0.55
0.635
0.73
0.775
0.79
0.74
0.635
0.5
0.36
0.2
0.08
-0.035
-0.08
-0.135
-0.155
-0.165
-0.16
-0.15
-0.14
-0.14
-0.13
-0.12
-0.115
-0.12
-0.12
-0.13
-0.11
-0.135
-0.14
-0.15
-0.155
-0.165
-0.165
-0.175
-0.18
-0.185
-0.185
-0.19
-0.18
-0.195
-0.185
-0.2
-0.2
-0.19
-0.185
-0.19
-0.175
-0.185
-0.18
-0.165
-0.12
-0.08
-0.07
-0.02
0.06
0.01
-0.08
-0.12
-0.14
-0.19
-0.185
-0.195
-0.19
-0.2
-0.185
-0.14
0.08
0.66
1.1
0.16
-1.26
-1.265
-0.505
-0.22
-0.1
-0.055
-0.02
-0.01
0.02
0.04
0.07
0.1
0.13
0.16
0.22
0.26
0.32
0.4
0.475
0.575
0.685
0.78
0.875
0.92
0.925
0.87
0.775
0.635
0.5
0.33
0.205
0.105
0.05
0.0
-0.015
-0.04
-0.03
-0.025
0.0
-0.005
0.02
0.01
0.01
0.01
0.02
0.005
0.005
-0.01
-0.015
-0.025
-0.03
-0.04
-0.04
-0.065
-0.06
-0.06
-0.065
-0.07
-0.065
-0.07
-0.075
-0.08
-0.07
-0.075
-0.075
-0.08
-0.07
-0.07
-0.08
-0.08
-0.04
-0.005
0.04
0.06
0.12
0.16
0.105
0.005
-0.01
-0.055
-0.08
-0.1
-0.08
-0.105
-0.09
-0.11
-0.03
0.22
0.805
1.09
0.01
-1.185
-0.92
-0.265
-0.08
-0.005
0.05
0.08
0.085
0.105
0.13
0.145
0.18
0.2
0.245
0.28
0.325
0.385
0.46
0.54
0.64
0.735
0.85
0.935
0.99
1.0
0.95
0.84
0.705
0.56
0.41
0.28
0.17
0.1
0.06
0.03
0.025
0.02
0.03
0.025
0.03
0.04
0.05
0.055
0.06
0.06
0.08
0.06
0.06
0.04
0.045
0.02
0.02
0.01
0.005
-0.01
-0.01
-0.02
-0.01
-0.02
-0.015
-0.015
-0.02
-0.035
-0.015
-0.02
-0.02
-0.025
-0.03
-0.03
0.02
0.065
0.1
0.12
0.185
0.2
0.13
0.045
0.035
-0.03
-0.04
-0.04
-0.04
-0.055
-0.05
-0.06
0.06
0.475
1.04
0.96
-0.435
-1.235
-0.58
-0.13
0.01
0.06
0.105
0.11
0.14
0.15
0.18
0.2
0.22
0.245
0.295
0.335
0.385
0.44
0.53
0.61
0.72
0.805
0.92
0.99
1.04
1.015
0.945
0.84
0.69
0.54
0.39
0.265
0.18
0.12
0.1
0.065
0.065
0.07
0.08
0.08
0.085
0.085
0.105
0.1
0.105
0.105
0.105
0.1
0.09
0.08
0.08
0.07
0.065
0.05
0.045
0.04
0.045
0.035
0.04
0.03
0.025
0.02
0.025
0.025
0.03
0.02
0.03
0.03
0.03
0.04
0.085
0.125
0.14
0.19
0.26
0.215
0.12
0.08
0.05
0.005
0.01
0.005
-0.005
-0.015
-0.015
0.025
0.23
0.81
1.22
0.4
-0.955
-0.99
-0.25
-0.01
0.08
0.12
0.14
0.16
0.18
0.2
0.22
0.24
0.28
0.31
0.345
0.4
0.46
0.51
0.61
0.69
0.795
0.895
0.98
1.05
1.08
1.02
0.94
0.795
0.65
0.485
0.36
0.245
0.19
0.14
0.12
0.09
0.1
0.1
0.105
0.11
0.125
0.125
0.13
0.12
0.13
0.12
0.125
0.12
0.11
0.09
0.095
0.07
0.08
0.055
0.05
0.045
0.05
0.04
0.045
0.04
0.04
0.03
0.04
0.03
0.05
0.04
0.045
0.06
0.11
0.14
0.155
0.22
0.28
0.18
0.11
0.08
0.03
-0.005
0.005
-0.005
-0.005
-0.015
-0.01
0.09
0.42
1.02
1.16
-0.19
-1.255
-0.805
-0.18
0.02
0.1
0.125
0.145
0.16
0.195
0.21
0.24
0.265
0.305
0.33
0.4
0.44
0.505
0.585
0.67
0.78
0.89
0.98
1.08
1.12
1.115
1.06
0.96
0.79
0.63
0.465
0.34
0.24
0.17
0.12
0.125
0.12
0.12
0.105
0.12
0.12
0.13
0.14
0.15
0.145
0.135
0.12
0.14
0.12
0.12
0.105
0.095
0.09
0.1
0.08
0.08
0.065
0.08
0.06
0.065
0.06
0.065
0.05
0.06
0.05
0.095
0.13
0.16
0.17
0.25
0.29
0.215
0.105
0.1
0.045
0.025
0.01
0.01
0.01
0.015
0.0
0.125
0.475
1.08
1.2
-0.2
-1.335
-0.84
-0.22
0.005
0.09
0.14
0.15
0.185
0.2
0.22
0.25
0.28
0.31
0.345
0.4
0.45
0.505
0.59
0.68
0.78
0.88
0.99
1.06
1.11
1.085
1.03
0.91
0.76
0.585
0.425
0.295
0.22
0.155
0.13
0.115
0.105
0.09
0.11
0.11
0.13
0.125
0.135
0.125
0.14
0.12
0.125
0.125
0.12
0.095
0.1
0.08
0.065
0.055
0.05
0.05
0.05
0.045
0.05
0.04
0.05
0.03
0.045
0.04
0.04
0.055
0.105
0.13
0.15
0.225
0.265
0.16
0.1
0.07
0.04
-0.005
0.0
-0.015
-0.01
-0.015
-0.015
0.08
0.45
1.0
1.14
-0.26
-1.38
-0.84
-0.23
-0.025
0.08
0.12
0.145
0.165
0.19
0.2
0.24
0.24
0.29
0.32
0.37
0.43
0.49
0.56
0.66
0.76
0.85
0.94
1.04
1.06
1.065
0.99
0.865
0.7
0.55
0.38
0.28
0.18
0.14
0.09
0.09
0.08
0.08
0.08
0.08
0.08
0.095
0.09
0.1
0.09
0.105
0.09
0.09
0.08
0.08
0.05
0.06
0.04
0.04
0.025
0.025
0.0
0.005
-0.01
0.005
0.0
-0.005
-0.01
-0.005
-0.015
-0.01
0.015
0.09
0.09
0.12
0.19
0.205
0.105
0.04
0.005
-0.03
-0.07
-0.06
-0.07
-0.06
-0.08
-0.08
0.01
0.445
0.99
0.98
-0.47
-1.375
-0.75
-0.21
-0.07
0.005
0.025
0.045
0.06
0.09
0.105
0.145
0.15
0.185
0.21
0.28
0.31
0.4
0.465
0.56
0.655
0.765
0.855
0.935
0.97
0.95
0.865
0.76
0.58
0.42
0.255
0.13
0.03
-0.01
-0.055
-0.06
-0.08
-0.075
-0.075
-0.07
-0.08
-0.07
-0.07
-0.04
-0.06
-0.055
-0.065
-0.06
-0.08
-0.08
-0.1
-0.095
-0.12
-0.12
-0.14
-0.12
-0.145
-0.14
-0.155
-0.135
-0.165
-0.145
-0.155
-0.155
-0.165
-0.155
-0.13
-0.06
-0.06
-0.03
0.03
0.06
-0.04
-0.095
-0.145
-0.18
-0.22
-0.21
-0.22
-0.215
-0.235
-0.215
-0.145
0.255
0.81
0.885
-0.495
-1.39
-0.825
-0.305
-0.18
-0.115
-0.11
-0.06
-0.06
-0.03
-0.02
0.025
0.03
0.065
0.1
0.155
0.21
0.27
0.335
0.44
0.52
0.64
0.74
0.84
0.865
0.88
0.79
0.685
0.53
0.365
0.2
0.09
-0.01
-0.06
-0.11
-0.115
-0.135
-0.13
-0.145
-0.115
-0.135
-0.12
-0.115
-0.1
-0.1
-0.09
-0.1
-0.08
-0.11
-0.11
-0.12
-0.115
-0.14
-0.14
-0.145
-0.145
-0.155
-0.145
-0.165
-0.155
-0.165
-0.165
-0.175
-0.15
-0.15
-0.08
-0.06
-0.04
0.01
0.08
0.0
-0.08
-0.12
-0.15
-0.19
-0.185
-0.21
-0.19
-0.19
-0.195
-0.165
0.085
0.67
1.05
0.005
-1.32
-1.2
-0.45
-0.22
-0.11
-0.08
-0.035
-0.015
0.015
0.02
0.06
0.08
0.12
0.155
0.21
0.245
0.33
0.385
0.495
0.6
0.72
0.825
0.925
0.98
1.01
0.94
0.845
0.685
0.51
0.32
0.185
0.065
0.02
-0.04
-0.055
-0.07
-0.06
-0.06
-0.06
-0.06
-0.04
-0.055
-0.03
-0.04
-0.035
-0.04
-0.03
-0.04
-0.035
-0.055
-0.06
-0.06
-0.065
-0.08
-0.08
-0.08
-0.08
-0.08
-0.08
-0.1
-0.09
-0.11
-0.08
-0.065
-0.005
0.01
0.06
0.1
0.1
-0.005
-0.05
-0.06
-0.095
-0.13
-0.12
-0.12
-0.12
-0.12
-0.1
-0.005
0.46
0.9
0.59
-0.675
-1.105
-0.485
-0.165
-0.07
-0.015
0.005
0.03
0.03
0.045
0.05
0.1
0.105
0.14
0.155
0.215
0.225
0.305
0.35
0.44
0.52
0.6
0.66
0.725
0.72
0.71
0.625
0.54
0.4
0.29
0.165
0.1
0.02
-0.005
-0.03
-0.01
-0.035
-0.035
-0.05
-0.025
-0.025
-0.015
-0.04
-0.015
-0.02
-0.01
-0.015
-0.015
-0.035
-0.015
-0.04
-0.035
-0.06
-0.06
-0.075
-0.06
-0.075
-0.06
-0.07
-0.08
-0.07
-0.01
-0.01
-0.02
0.04
0.06
0.01
-0.04
-0.065
-0.1
-0.12
-0.105
-0.12
-0.12
-0.135
-0.11
-0.015
0.325
0.65
0.4
-0.495
-0.775
-0.32
-0.12
-0.075
-0.05
-0.04
-0.025
-0.02
-0.005
0.005
0.025
0.03
0.055
0.045
0.11
0.13
0.185
0.24
0.29
0.36
0.445
0.495
0.535
0.53
0.52
0.44
0.375
0.25
0.155
0.065
0.01
-0.05
-0.055
-0.07
-0.07
-0.08
-0.08
-0.09
-0.08
-0.1
-0.095
-0.08
-0.075
-0.09
-0.07
-0.07
-0.05
-0.08
-0.06
-0.09
-0.08
-0.095
-0.075
-0.08
-0.08
-0.11
-0.1
-0.09
-0.06
-0.04
-0.035
-0.02
0.04
-0.015
-0.055
-0.08
-0.115
-0.14
-0.115
-0.145
-0.13
-0.145
-0.135
-0.08
0.145
0.44
0.46
-0.27
-0.68
-0.365
-0.12
-0.1
-0.07
-0.075
-0.055
-0.06
-0.06
-0.04
-0.01
-0.015
0.02
0.01
0.045
0.08
0.125
0.155
0.22
0.26
0.335
0.4
0.425
0.44
0.44
0.365
0.305
0.2
0.115
0.025
-0.02
-0.07
-0.08
-0.1
-0.08
-0.11
-0.1
-0.11
-0.095
-0.1
-0.1
-0.115
-0.11
-0.115
-0.095
-0.095
-0.08
-0.1
-0.095
-0.11
-0.095
-0.11
-0.115
-0.135
-0.12
-0.135
-0.12
-0.105
-0.06
-0.07
-0.06
-0.02
0.025
-0.05
-0.08
-0.1
-0.12
-0.155
-0.135
-0.155
-0.14
-0.165
-0.14
-0.03
0.345
0.69
0.42
-0.47
-0.71
-0.3
-0.12
-0.095
-0.065
-0.065
-0.035
-0.03
-0.015
-0.015
0.015
0.02
0.05
0.08
0.11
0.14
0.185
0.24
0.32
0.37
0.43
0.49
0.53
0.54
0.53
0.475
0.4
0.28
0.18
0.1
0.04
-0.01
-0.02
-0.05
-0.05
-0.07
-0.04
-0.07
-0.07
-0.07
-0.03
-0.02
-0.005
-0.005
0.005
-0.02
-0.02
-0.04
-0.03
-0.02
-0.02
-0.05
-0.045
-0.04
-0.04
-0.055
-0.02
0.01
0.04
0.03
0.1
0.1
0.05
-0.005
-0.01
-0.06
-0.06
-0.06
-0.065
-0.08
-0.07
-0.055
0.125
0.56
0.97
0.45
-0.555
-0.66
-0.17
-0.055
-0.005
0.01
0.03
0.04
0.065
0.07
0.09
0.1
0.135
0.145
0.185
0.21
0.265
0.31
0.39
0.44
0.53
0.585
0.68
0.705
0.725
0.68
0.63
0.51
0.385
0.245
0.18
0.095
0.065
0.04
0.02
0.015
0.02
0.01
0.03
0.02
0.04
0.03
0.045
0.05
0.065
0.045
0.055
0.03
0.05
0.04
0.03
0.015
0.02
0.005
0.02
0.0
0.04
0.065
0.09
0.085
0.165
0.175
0.12
0.06
0.05
-0.01
-0.02
-0.03
-0.03
-0.04
-0.03
-0.025
0.155
0.63
1.08
0.605
-0.55
-0.77
-0.18
-0.02
0.045
0.06
0.09
0.09
0.12
0.12
0.14
0.155
0.21
0.24
0.26
0.28
0.34
0.385
0.465
0.54
0.625
0.69
0.79
0.84
0.865
0.815
0.76
0.61
0.475
0.325
0.24
0.155
0.125
0.08
0.08
0.045
0.06
0.06
0.08
0.05
0.08
0.07
0.095
0.08
0.1
0.08
0.1
0.08
0.09
0.05
0.06
0.05
0.045
0.04
0.05
0.05
0.12
0.125
0.155
0.2
0.22
0.13
0.1
0.055
0.02
-0.01
0.01
0.005
0.0
-0.02
0.04
0.215
0.76
1.16
0.445
-0.775
-0.76
-0.17
0.015
0.06
0.1
0.1
0.14
0.14
0.16
0.17
0.21
0.22
0.26
0.29
0.36
0.4
0.45
0.52
0.63
0.695
0.795
0.845
0.88
0.88
0.86
0.74
0.61
0.445
0.31
0.21
0.15
0.095
0.085
0.06
0.06
0.045
0.065
0.06
0.08
0.08
0.095
0.085
0.11
0.1
0.105
0.08
0.08
0.08
0.08
0.065
0.06
0.04
0.045
0.065
0.125
0.14
0.17
0.22
0.21
0.12
0.085
0.045
0.015
-0.015
0.0
-0.03
-0.04
-0.04
0.08
0.33
0.845
1.09
0.07
-0.98
-0.74
-0.195
0.005
0.05
0.085
0.1
0.145
0.15
0.175
0.185
0.215
0.24
0.28
0.32
0.38
0.42
0.51
0.575
0.685
0.775
0.865
0.94
0.985
0.945
0.885
0.755
0.6
0.425
0.31
0.2
0.145
0.105
0.09
0.085
0.08
0.08
0.08
0.07
0.08
0.08
0.09
0.09
0.11
0.09
0.095
0.08
0.08
0.065
0.08
0.045
0.045
0.045
0.06
0.09
0.1
0.09
0.2
0.22
0.125
0.06
0.05
-0.005
-0.025
-0.04
-0.04
-0.04
-0.035
-0.035
0.13
0.64
1.07
0.565
-0.65
-0.93
-0.28
-0.075
0.015
0.06
0.085
0.08
0.105
0.105
0.145
0.155
0.18
0.2
0.24
0.28
0.38
0.445
0.52
0.6
0.7
0.78
0.89
0.935
0.96
0.905
0.795
0.65
0.455
0.345
0.26
0.15
0.105
0.055
0.055
0.025
0.025
0.015
0.025
0.01
0.03
0.06
0.07
0.065
0.08
0.045
0.06
0.045
0.03
0.04
0.06
0.035
0.03
0.04
0.11
0.12
0.14
0.2
0.215
0.1
0.045
0.045
0.01
-0.05
-0.03
-0.05
-0.04
-0.055
-0.01
0.185
0.76
1.16
0.36
-0.94
-0.96
-0.275
-0.06
0.015
0.05
0.06
0.09
0.1
0.13
0.145
0.18
0.2
0.24
0.265
0.33
0.37
0.455
0.525
0.635
0.73
0.825
0.89
0.945
0.91
0.86
0.745
0.6
0.42
0.285
0.18
0.1
0.06
0.045
0.03
0.03
0.025
0.025
0.02
0.02
0.025
0.01
0.005
0.03
0.02
0.025
0.025
0.03
0.005
0.005
-0.015
0.0
-0.015
-0.005
0.025
0.07
0.08
0.12
0.155
0.12
0.04
0.02
-0.03
-0.04
-0.06
-0.065
-0.07
-0.075
-0.075
0.04
0.39
0.845
0.785
-0.3
-0.89
-0.4
-0.12
-0.03
-0.005
0.015
0.04
0.06
0.08
0.08
0.095
0.125
0.145
0.18
0.2
0.245
0.29
0.345
0.41
0.48
0.54
0.625
0.65
0.68
0.65
0.58
0.46
0.335
0.205
0.12
0.06
0.04
0.0
0.005
-0.02
-0.015
-0.03
-0.04
-0.055
-0.03
-0.025
-0.015
-0.02
-0.02
-0.035
-0.06
-0.035
0.01
-0.035
-0.04
-0.05
-0.06
-0.06
-0.05
-0.05
-0.005
0.005
0.005
0.065
0.1
0.02
-0.04
-0.04
-0.075
-0.105
-0.1
-0.11
-0.11
-0.105
-0.1
0.055
0.5
0.865
0.43
-0.58
-0.72
-0.24
-0.1
-0.075
-0.05
-0.03
-0.01
0.005
0.01
0.025
0.04
0.065
0.085
0.12
0.15
0.185
0.25
0.32
0.4
0.465
0.52
0.59
0.635
0.625
0.6
0.51
0.41
0.27
0.155
0.055
0.01
-0.035
-0.055
-0.06
-0.06
-0.08
-0.07
-0.08
-0.08
-0.08
-0.075
-0.08
-0.06
-0.06
-0.06
-0.06
-0.06
-0.065
-0.06
-0.08
-0.075
-0.08
-0.08
-0.095
-0.08
-0.1
-0.105
-0.1
-0.075
-0.025
0.005
0.005
0.08
0.09
-0.01
-0.06
-0.07
-0.115
-0.135
-0.135
-0.14
-0.14
-0.15
-0.13
0.06
0.54
0.925
0.38
-0.73
-0.79
-0.22
-0.11
-0.06
-0.035
-0.02
-0.015
0.005
0.015
0.055
0.06
0.085
0.12
0.155
0.195
0.24
0.305
0.38
0.465
0.565
0.635
0.72
0.76
0.765
0.72
0.635
0.52
0.365
0.215
0.125
0.045
0.005
-0.02
-0.035
-0.04
-0.035
-0.04
-0.04
-0.05
-0.05
-0.05
-0.03
-0.03
-0.02
-0.02
-0.005
-0.035
-0.04
-0.04
-0.04
-0.05
-0.055
-0.07
-0.075
-0.075
-0.075
-0.075
-0.08
-0.09
-0.08
-0.08
-0.08
-0.08
-0.08
-0.08
-0.04
0.005
0.02
0.08
0.155
0.135
0.01
-0.035
-0.045
-0.1
-0.1
-0.12
-0.12
-0.12
-0.115
-0.11
0.1
0.62
0.965
0.29
-0.9
-0.89
-0.23
-0.08
-0.02
-0.01
0.005
0.02
0.04
0.055
0.08
0.1
0.135
0.16
0.19
0.24
0.3
0.36
0.445
0.53
0.625
0.72
0.81
0.86
0.865
0.81
0.745
0.6
0.44
0.29
0.18
0.09
0.04
0.0
-0.01
-0.015
-0.02
-0.035
-0.03
-0.03
-0.02
-0.01
0.0
-0.01
-0.01
-0.02
-0.01
-0.02
-0.03
-0.04
-0.04
-0.06
-0.065
-0.07
-0.08
-0.08
-0.08
-0.09
-0.095
-0.09
-0.095
-0.08
-0.1
-0.1
-0.09
-0.1
-0.1
-0.1
-0.11
-0.11
-0.1
-0.095
-0.07
-0.02
0.0
0.02
0.105
0.145
0.04
-0.04
-0.06
-0.105
-0.135
-0.14
-0.14
-0.155
-0.165
-0.175
-0.04
0.405
0.93
0.74
-0.63
-1.235
-0.535
-0.195
-0.1
-0.055
-0.035
-0.015
0.005
0.01
0.04
0.05
0.085
0.115
0.155
0.18
0.24
0.305
0.39
0.475
0.58
0.68
0.77
0.825
0.865
0.84
0.78
0.65
0.52
0.345
0.22
0.1
0.03
-0.02
-0.04
-0.06
-0.07
-0.065
-0.05
-0.06
-0.04
-0.04
-0.035
-0.025
-0.025
-0.03
-0.04
-0.06
-0.04
-0.07
-0.08
-0.095
-0.08
-0.105
-0.1
-0.1
-0.11
-0.12
-0.12
-0.13
-0.12
-0.125
-0.12
-0.125
-0.13
-0.135
-0.12
-0.12
-0.125
-0.13
-0.12
-0.13
-0.13
-0.13
-0.12
-0.12
-0.08
-0.02
0.005
0.04
0.11
0.065
-0.04
-0.09
-0.11
-0.16
-0.165
-0.16
-0.165
-0.165
-0.165
-0.12
0.11
0.665
1.045
0.025
-1.21
-1.04
-0.38
-0.18
-0.08
-0.05
-0.035
-0.015
0.005
0.02
0.04
0.065
0.1
0.125
0.155
0.2
0.27
0.33
0.41
0.49
0.575
0.655
0.74
0.78
0.77
0.73
0.64
0.53
0.385
0.24
0.125
0.04
-0.035
-0.07
-0.075
-0.08
-0.08
-0.08
-0.075
-0.075
-0.055
-0.05
-0.035
-0.05
-0.055
-0.06
-0.07
-0.08
-0.075
-0.095
-0.11
-0.12
-0.12
-0.13
-0.13
-0.135
-0.135
-0.14
-0.15
-0.155
-0.155
-0.15
-0.155
-0.155
-0.15
-0.16
-0.17
-0.175
-0.165
-0.16
-0.165
-0.15
-0.165
-0.165
-0.155
-0.115
-0.07
-0.06
-0.015
0.045
0.02
-0.075
-0.11
-0.135
-0.18
-0.19
-0.18
-0.18
-0.19
-0.19
-0.13
0.12
0.635
0.905
-0.08
-1.125
-0.88
-0.335
-0.165
-0.12
-0.08
-0.07
-0.05
-0.025
-0.015
-0.005
0.04
0.04
0.07
0.12
0.18
0.22
0.28
0.34
0.42
0.505
0.585
0.65
0.7
0.69
0.645
0.56
0.445
0.32
0.2
0.08
0.005
-0.05
-0.08
-0.1
-0.105
-0.1
-0.095
-0.08
-0.08
-0.08
-0.06
-0.07
-0.06
-0.055
-0.06
-0.07
-0.08
-0.095
-0.1
-0.13
-0.13
-0.12
-0.13
-0.135
-0.14
-0.15
-0.15
-0.165
-0.16
-0.165
-0.155
-0.155
-0.16
-0.155
-0.165
-0.165
-0.165
-0.165
-0.16
-0.165
-0.165
-0.17
-0.15
-0.165
-0.155
-0.165
-0.15
-0.165
-0.16
-0.14
-0.075
-0.06
-0.055
0.0
0.04
-0.05
-0.09
-0.12
-0.17
-0.195
-0.18
-0.195
-0.195
-0.2
-0.2
-0.055
0.44
0.855
0.43
-0.78
-1.04
-0.4
-0.18
-0.12
-0.08
-0.07
-0.05
-0.03
-0.015
0.0
0.02
0.04
0.06
0.095
0.13
0.18
0.24
0.3
0.38
0.465
0.54
0.615
0.67
0.7
0.67
0.61
0.525
0.405
0.27
0.15
0.06
-0.015
-0.06
-0.095
-0.11
-0.115
-0.11
-0.105
-0.1
-0.1
-0.08
-0.08
-0.07
-0.06
-0.065
-0.08
-0.08
-0.11
-0.105
-0.12
-0.12
-0.135
-0.135
-0.145
-0.145
-0.15
-0.15
-0.155
-0.16
-0.16
-0.165
-0.17
-0.165
-0.165
-0.165
-0.17
-0.165
-0.155
-0.17
-0.17
-0.17
-0.175
-0.17
-0.175
-0.175
-0.175
-0.165
-0.18
-0.18
-0.18
-0.175
-0.18
-0.165
-0.12
-0.08
-0.07
-0.04
0.015
0.005
-0.08
-0.115
-0.15
-0.19
-0.2
-0.2
-0.2
-0.2
-0.2
-0.165
0.055
0.57
0.865
-0.04
-1.075
-0.88
-0.32
-0.17
-0.135
-0.08
-0.1
-0.07
-0.055
-0.035
-0.03
-0.005
0.02
0.05
0.07
0.12
0.16
0.22
0.285
0.36
0.43
0.53
0.585
0.64
0.65
0.625
0.545
0.45
0.325
0.205
0.09
0.005
-0.06
-0.105
-0.12
-0.14
-0.14
-0.13
-0.135
-0.12
-0.11
-0.115
-0.11
-0.095
-0.08
-0.095
-0.11
-0.12
-0.13
-0.14
-0.15
-0.145
-0.155
-0.17
-0.165
-0.17
-0.18
-0.17
-0.18
-0.185
-0.185
-0.19
-0.19
-0.19
-0.19
-0.195
-0.19
-0.19
-0.19
-0.19
-0.195
-0.195
-0.195
-0.2
-0.18
-0.185
-0.185
-0.19
-0.175
-0.18
-0.185
-0.18
-0.19
-0.17
-0.12
-0.08
-0.07
-0.015
0.025
-0.03
-0.1
-0.12
-0.165
-0.19
-0.21
-0.195
-0.2
-0.2
-0.2
-0.11
0.25
0.78
0.765
-0.475
-1.18
-0.66
-0.24
-0.14
-0.1
-0.075
-0.07
-0.05
-0.03
-0.015
0.005
0.04
0.06
0.085
0.12
0.165
0.225
0.285
0.345
0.44
0.505
0.595
0.65
0.7
0.685
0.64
0.56
0.44
0.32
0.21
0.1
0.01
-0.05
-0.08
-0.1
-0.11
-0.115
-0.095
-0.09
-0.08
-0.075
-0.07
-0.07
-0.075
-0.075
-0.08
-0.09
-0.105
-0.115
-0.12
-0.135
-0.13
-0.14
-0.14
-0.15
-0.15
-0.16
-0.155
-0.165
-0.165
-0.17
-0.165
-0.175
-0.17
-0.165
-0.17
-0.175
-0.165
-0.17
-0.17
-0.165
-0.175
-0.17
-0.175
-0.175
-0.17
-0.17
-0.165
-0.17
-0.165
-0.175
-0.15
-0.105
-0.065
-0.04
-0.01
0.045
0.005
-0.08
-0.12
-0.155
-0.19
-0.18
-0.185
-0.195
-0.195
-0.2
-0.1
0.225
0.78
0.85
-0.375
-1.215
-0.74
-0.28
-0.14
-0.115
-0.075
-0.06
-0.02
-0.01
0.01
0.025
0.04
0.065
0.105
0.135
0.18
0.225
0.3
0.365
0.45
0.525
0.61
0.68
0.72
0.72
0.665
0.58
0.47
0.35
0.225
0.12
0.025
-0.04
-0.075
-0.095
-0.095
-0.095
-0.08
-0.08
-0.075
-0.075
-0.06
-0.065
-0.055
-0.07
-0.07
-0.08
-0.095
-0.1
-0.11
-0.12
-0.13
-0.135
-0.14
-0.155
-0.15
-0.16
-0.15
-0.16
-0.15
-0.165
-0.165
-0.175
-0.175
-0.17
-0.175
-0.165
-0.165
-0.165
-0.17
-0.175
-0.17
-0.17
-0.17
-0.17
-0.165
-0.17
-0.165
-0.165
-0.17
-0.17
-0.17
-0.175
-0.15
-0.115
-0.07
-0.055
-0.015
0.035
0.0
-0.075
-0.11
-0.15
-0.19
-0.2
-0.2
-0.2
-0.2
-0.215
-0.14
0.11
0.685
0.95
-0.1
-1.18
-0.92
-0.36
-0.17
-0.13
-0.1
-0.08
-0.05
-0.04
-0.015
0.005
0.01
0.04
0.065
0.1
0.155
0.2
0.265
0.325
0.405
0.5
0.58
0.655
0.705
0.72
0.68
0.58
0.48
0.36
0.24
0.12
0.02
-0.04
-0.075
-0.105
-0.12
-0.12
-0.11
-0.1
-0.095
-0.09
-0.08
-0.08
-0.075
-0.08
-0.08
-0.095
-0.11
-0.125
-0.12
-0.14
-0.15
-0.16
-0.165
-0.17
-0.17
-0.175
-0.175
-0.18
-0.18
-0.185
-0.185
-0.18
-0.195
-0.195
-0.19
-0.195
-0.195
-0.195
-0.19
-0.185
-0.185
-0.19
-0.18
-0.19
-0.185
-0.195
-0.185
-0.18
-0.18
-0.185
-0.17
-0.14
-0.1
-0.065
-0.035
0.02
0.01
-0.08
-0.13
-0.15
-0.185
-0.2
-0.21
-0.22
-0.22
-0.215
-0.17
0.045
0.615
0.99
0.055
-1.135
-1.04
-0.42
-0.205
-0.135
-0.105
-0.08
-0.065
-0.045
-0.02
-0.02
0.02
0.05
0.07
0.1
0.15
0.19
0.265
0.34
0.41
0.505
0.6
0.68
0.735
0.75
0.705
0.635
0.52
0.385
0.265
0.14
0.03
-0.04
-0.075
-0.11
-0.12
-0.115
-0.115
-0.11
-0.11
-0.1
-0.08
-0.08
-0.08
-0.08
-0.09
-0.095
-0.105
-0.115
-0.12
-0.13
-0.14
-0.15
-0.155
-0.155
-0.17
-0.155
-0.165
-0.165
-0.15
-0.175
-0.175
-0.175
-0.18
-0.18
-0.18
-0.18
-0.18
-0.18
-0.17
-0.18
-0.175
-0.18
-0.175
-0.18
-0.175
-0.145
-0.1
-0.06
-0.05
0.005
0.05
-0.01
-0.095
-0.12
-0.165
-0.195
-0.19
-0.195
-0.185
-0.2
-0.2
-0.04
0.41
0.97
0.765
-0.68
-1.36
-0.735
-0.28
-0.14
-0.08
-0.06
-0.045
-0.03
0.005
0.015
0.03
0.06
0.1
0.13
0.18
0.225
0.29
0.365
0.46
0.56
0.65
0.74
0.82
0.85
0.83
0.76
0.645
0.51
0.365
0.225
0.11
0.02
-0.035
-0.09
-0.095
-0.095
-0.1
-0.1
-0.08
-0.08
-0.075
-0.065
-0.06
-0.06
-0.07
-0.08
-0.08
-0.095
-0.09
-0.11
-0.12
-0.12
-0.135
-0.14
-0.14
-0.15
-0.15
-0.165
-0.165
-0.165
-0.165
-0.165
-0.165
-0.165
-0.165
-0.18
-0.165
-0.17
-0.165
-0.17
-0.165
-0.175
-0.135
-0.1
-0.07
-0.07
-0.02
0.03
-0.005
-0.1
-0.12
-0.16
-0.19
-0.185
-0.195
-0.2
-0.19
-0.2
-0.07
0.325
0.91
0.91
-0.4
-1.255
-0.755
-0.32
-0.155
-0.115
-0.07
-0.06
-0.04
-0.03
-0.005
0.02
0.045
0.065
0.105
0.135
0.19
0.24
0.31
0.375
0.46
0.545
0.625
0.69
0.72
0.7
0.645
0.545
0.425
0.3
0.18
0.05
-0.01
-0.06
-0.1
-0.115
-0.115
-0.12
-0.1
-0.1
-0.095
-0.08
-0.08
-0.07
-0.07
-0.065
-0.06
-0.08
-0.08
-0.1
-0.1
-0.105
-0.12
-0.135
-0.135
-0.14
-0.14
-0.155
-0.15
-0.16
-0.17
-0.165
-0.165
-0.175
-0.165
-0.165
-0.165
-0.165
-0.15
-0.175
-0.155
-0.12
-0.08
-0.08
-0.025
0.02
-0.005
-0.1
-0.115
-0.155
-0.18
-0.2
-0.195
-0.21
-0.2
-0.215
-0.11
0.24
0.795
0.885
-0.305
-1.195
-0.76
-0.315
-0.165
-0.12
-0.095
-0.08
-0.07
-0.06
-0.035
-0.025
0.01
0.03
0.07
0.09
0.14
0.18
0.26
0.325
0.415
0.5
0.585
0.65
0.7
0.68
0.61
0.52
0.4
0.26
0.14
0.03
-0.055
-0.12
-0.14
-0.165
-0.18
-0.18
-0.175
-0.175
-0.165
-0.165
-0.14
-0.16
-0.14
-0.155
-0.15
-0.155
-0.16
-0.18
-0.18
-0.195
-0.2
-0.205
-0.21
-0.22
-0.21
-0.235
-0.235
-0.24
-0.235
-0.26
-0.24
-0.26
-0.24
-0.265
-0.255
-0.24
-0.175
-0.18
-0.155
-0.11
-0.05
-0.115
-0.185
-0.21
-0.24
-0.29
-0.29
-0.3
-0.3
-0.315
-0.3
-0.18
0.265
0.76
0.53
-0.72
-1.2
-0.62
-0.3
-0.25
-0.2
-0.2
-0.165
-0.165
-0.12
-0.135
-0.115
-0.095
-0.05
-0.04
0.02
0.05
0.105
0.17
0.26
0.325
0.42
0.5
0.575
0.59
0.575
0.5
0.42
0.28
0.15
0.02
-0.075
-0.165
-0.195
-0.235
-0.235
-0.24
-0.24
-0.24
-0.23
-0.235
-0.22
-0.225
-0.23
-0.22
-0.215
-0.21
-0.205
-0.225
-0.22
-0.23
-0.235
-0.255
-0.24
-0.26
-0.25
-0.27
-0.27
-0.275
-0.265
-0.28
-0.28
-0.275
-0.27
-0.255
-0.195
-0.18
-0.17
-0.115
-0.09
-0.175
-0.2
-0.24
-0.295
-0.31
-0.305
-0.31
-0.31
-0.32
-0.275
-0.07
0.485
0.83
-0.005
-1.11
-1.0
-0.43
-0.275
-0.23
-0.2
-0.185
-0.165
-0.155
-0.13
-0.115
-0.095
-0.07
-0.035
-0.01
0.04
0.09
0.15
0.21
0.3
0.365
0.48
0.54
0.595
0.6
0.57
0.475
0.385
0.24
0.1
-0.02
-0.1
-0.165
-0.19
-0.21
-0.21
-0.21
-0.215
-0.21
-0.2
-0.2
-0.19
-0.195
-0.185
-0.185
-0.18
-0.195
-0.19
-0.2
-0.2
-0.215
-0.22
-0.215
-0.22
-0.23
-0.22
-0.24
-0.23
-0.24
-0.235
-0.24
-0.225
-0.18
-0.14
-0.15
-0.09
-0.045
-0.1
-0.17
-0.175
-0.23
-0.24
-0.27
-0.27
-0.27
-0.265
-0.27
-0.1
0.385
0.85
0.44
-0.82
-1.145
-0.515
-0.27
-0.2
-0.175
-0.155
-0.155
-0.13
-0.125
-0.1
-0.075
-0.05
-0.03
0.01
0.04
0.105
0.155
0.225
0.315
0.4
0.48
0.58
0.625
0.65
0.61
0.54
0.425
0.305
0.155
0.045
-0.05
-0.115
-0.16
-0.17
-0.175
-0.185
-0.18
-0.175
-0.16
-0.15
-0.14
-0.135
-0.135
-0.13
-0.14
-0.135
-0.14
-0.155
-0.165
-0.175
-0.18
-0.18
-0.19
-0.18
-0.2
-0.195
-0.195
-0.185
-0.19
-0.18
-0.12
-0.08
-0.08
-0.01
0.04
-0.03
-0.11
-0.125
-0.19
-0.2
-0.2
-0.215
-0.225
-0.2
-0.2
-0.035
0.52
1.02
0.545
-0.875
-1.255
-0.52
-0.22
-0.14
-0.115
-0.08
-0.06
-0.05
-0.025
-0.005
0.04
0.05
0.085
0.125
0.17
0.24
0.295
0.37
0.465
0.56
0.65
0.74
0.795
0.82
0.78
0.68
0.56
0.405
0.245
0.125
0.025
-0.035
-0.08
-0.095
-0.1
-0.095
-0.095
-0.08
-0.075
-0.06
-0.07
-0.055
-0.06
-0.06
-0.07
-0.075
-0.08
-0.08
-0.095
-0.11
-0.12
-0.12
-0.125
-0.115
-0.135
-0.14
-0.145
-0.15
-0.14
-0.135
-0.12
-0.075
-0.04
-0.025
0.025
0.09
0.025
-0.07
-0.1
-0.14
-0.18
-0.175
-0.18
-0.185
-0.18
-0.185
-0.045
0.385
1.0
0.97
-0.46
-1.32
-0.74
-0.27
-0.13
-0.08
-0.06
-0.035
-0.015
0.01
0.01
0.045
0.08
0.105
0.135
0.18
0.23
0.29
0.36
0.445
0.53
0.63
0.695
0.745
0.79
0.76
0.69
0.58
0.445
0.29
0.155
0.08
-0.005
-0.04
-0.06
-0.07
-0.07
-0.075
-0.06
-0.055
-0.05
-0.04
-0.035
-0.04
-0.035
-0.04
-0.055
-0.065
-0.07
-0.08
-0.08
-0.1
-0.11
-0.11
-0.11
-0.12
-0.115
-0.12
-0.12
-0.135
-0.13
-0.13
-0.115
-0.095
-0.05
-0.035
-0.015
0.05
0.03
-0.055
-0.1
-0.11
-0.15
-0.16
-0.175
-0.18
-0.175
-0.18
-0.135
0.065
0.61
1.025
0.29
-0.92
-0.975
-0.375
-0.18
-0.11
-0.08
-0.07
-0.05
-0.03
-0.015
0.0
0.025
0.06
0.095
0.12
0.155
0.215
0.28
0.345
0.43
0.505
0.58
0.66
0.69
0.695
0.64
0.55
0.435
0.305
0.185
0.08
0.005
-0.04
-0.08
-0.1
-0.09
-0.08
-0.08
-0.08
-0.07
-0.06
-0.06
-0.06
-0.055
-0.06
-0.06
-0.08
-0.08
-0.1
-0.1
-0.115
-0.12
-0.12
-0.12
-0.13
-0.15
-0.155
-0.14
-0.15
-0.16
-0.15
-0.155
-0.16
-0.155
-0.155
-0.145
-0.12
-0.08
-0.055
-0.04
0.03
0.09
-0.015
-0.095
-0.115
-0.155
-0.185
-0.18
-0.19
-0.19
-0.195
-0.19
-0.095
0.295
0.795
0.795
-0.46
-1.21
-0.63
-0.215
-0.13
-0.1
-0.075
-0.06
-0.04
-0.02
-0.005
0.02
0.04
0.08
0.105
0.15
0.2
0.26
0.33
0.41
0.52
0.61
0.685
0.77
0.795
0.78
0.72
0.605
0.465
0.33
0.185
0.095
0.01
-0.035
-0.07
-0.08
-0.08
-0.075
-0.08
-0.08
-0.075
-0.07
-0.06
-0.05
-0.05
-0.04
-0.065
-0.065
-0.07
-0.08
-0.08
-0.1
-0.1
-0.1
-0.115
-0.12
-0.12
-0.12
-0.135
-0.125
-0.13
-0.13
-0.13
-0.13
-0.14
-0.13
-0.135
-0.135
-0.14
-0.135
-0.14
-0.13
-0.1
-0.035
-0.02
0.02
0.105
0.105
-0.02
-0.08
-0.1
-0.135
-0.16
-0.16
-0.15
-0.17
-0.17
-0.165
-0.03
0.45
0.93
0.66
-0.715
-1.215
-0.51
-0.175
-0.08
-0.055
-0.035
-0.005
0.005
0.02
0.055
0.08
0.095
0.125
0.17
0.205
0.26
0.32
0.4
0.475
0.57
0.67
0.76
0.82
0.855
0.84
0.755
0.64
0.51
0.36
0.24
0.13
0.06
0.01
-0.03
-0.035
-0.04
-0.035
-0.03
-0.02
-0.02
-0.01
-0.015
-0.01
0.0
-0.005
-0.015
-0.035
-0.05
-0.055
-0.055
-0.07
-0.08
-0.085
-0.08
-0.09
-0.1
-0.095
-0.11
-0.1
-0.105
-0.11
-0.11
-0.11
-0.11
-0.1
-0.12
-0.11
-0.115
-0.1
-0.11
-0.105
-0.11
-0.08
-0.035
0.01
0.02
0.105
0.14
0.045
-0.06
-0.07
-0.115
-0.135
-0.145
-0.145
-0.15
-0.15
-0.165
-0.07
0.245
0.82
0.97
-0.235
-1.235
-0.79
-0.24
-0.1
-0.05
-0.025
-0.01
0.01
0.02
0.055
0.08
0.09
0.12
0.155
0.2
0.25
0.3
0.37
0.46
0.55
0.635
0.745
0.795
0.85
0.845
0.785
0.68
0.56
0.41
0.28
0.15
0.07
0.01
-0.02
-0.055
-0.05
-0.055
-0.04
-0.04
-0.025
-0.025
-0.015
-0.015
-0.02
-0.02
-0.035
-0.04
-0.04
-0.07
-0.08
-0.08
-0.075
-0.08
-0.08
-0.1
-0.105
-0.12
-0.12
-0.12
-0.11
-0.13
-0.11
-0.12
-0.13
-0.12
-0.13
-0.12
-0.12
-0.12
-0.12
-0.135
-0.13
-0.14
-0.13
-0.13
-0.1
-0.04
-0.005
0.01
0.105
0.105
-0.01
-0.08
-0.095
-0.145
-0.165
-0.155
-0.165
-0.175
-0.165
-0.175
-0.03
0.4
0.94
0.78
-0.605
-1.27
-0.63
-0.2
-0.1
-0.07
-0.035
-0.01
0.0
0.02
0.04
0.06
0.095
0.12
0.15
0.19
0.24
0.295
0.38
0.46
0.55
0.63
0.73
0.785
0.84
0.83
0.76
0.645
0.525
0.375
0.255
0.14
0.06
-0.005
-0.03
-0.04
-0.05
-0.055
-0.04
-0.035
-0.035
-0.03
-0.02
-0.025
-0.025
-0.02
-0.025
-0.04
-0.035
-0.065
-0.07
-0.08
-0.08
-0.1
-0.095
-0.115
-0.105
-0.11
-0.11
-0.115
-0.115
-0.12
-0.12
-0.12
-0.13
-0.12
-0.12
-0.135
-0.12
-0.13
-0.14
-0.12
-0.13
-0.14
-0.135
-0.13
-0.09
-0.04
-0.015
0.02
0.095
0.09
-0.03
-0.1
-0.11
-0.155
-0.165
-0.18
-0.18
-0.18
-0.18
-0.19
-0.03
0.41
0.95
0.68
-0.69
-1.275
-0.6
-0.235
-0.13
-0.08
-0.065
-0.04
-0.02
-0.015
0.01
0.03
0.065
0.08
0.13
0.155
0.22
0.28
0.36
0.44
0.54
0.625
0.72
0.79
0.82
0.805
0.73
0.62
0.49
0.34
0.22
0.1
0.02
-0.035
-0.06
-0.08
-0.075
-0.08
-0.07
-0.07
-0.04
-0.05
-0.04
-0.04
-0.04
-0.055
-0.055
-0.07
-0.075
-0.1
-0.105
-0.115
-0.115
-0.12
-0.13
-0.135
-0.14
-0.14
-0.145
-0.14
-0.14
-0.15
-0.15
-0.135
-0.14
-0.145
-0.145
-0.155
-0.145
-0.15
-0.155
-0.155
-0.15
-0.165
-0.15
-0.11
-0.055
-0.035
-0.005
0.06
0.095
-0.02
-0.095
-0.11
-0.165
-0.175
-0.175
-0.185
-0.185
-0.195
-0.195
-0.06
0.385
0.92
0.745
-0.65
-1.29
-0.65
-0.22
-0.12
-0.08
-0.055
-0.04
-0.02
-0.005
0.02
0.045
0.06
0.105
0.14
0.18
0.22
0.29
0.35
0.44
0.54
0.635
0.72
0.795
0.83
0.815
0.76
0.645
0.5
0.37
0.24
0.12
0.04
-0.02
-0.06
-0.07
-0.08
-0.08
-0.065
-0.065
-0.065
-0.055
-0.04
-0.04
-0.055
-0.055
-0.06
-0.075
-0.095
-0.09
-0.11
-0.11
-0.12
-0.135
-0.14
-0.135
-0.145
-0.15
-0.15
-0.15
-0.16
-0.155
-0.16
-0.15
-0.165
-0.155
-0.155
-0.14
-0.155
-0.15
-0.165
-0.14
-0.155
-0.135
-0.16
-0.14
-0.115
-0.06
-0.04
-0.015
0.05
0.08
-0.01
-0.075
-0.1
-0.14
-0.18
-0.17
-0.19
-0.195
-0.185
-0.195
-0.08
0.29
0.85
0.89
-0.44
-1.295
-0.76
-0.265
-0.14
-0.07
-0.055
-0.035
-0.02
0.01
0.02
0.045
0.08
0.105
0.14
0.175
0.215
0.285
0.345
0.44
0.52
0.625
0.7
0.785
0.825
0.825
0.765
0.665
0.525
0.41
0.26
0.15
0.08
0.005
-0.04
-0.055
-0.07
-0.055
-0.07
-0.06
-0.06
-0.04
-0.05
-0.04
-0.05
-0.05
-0.05
-0.06
-0.075
-0.08
-0.105
-0.11
-0.12
-0.115
-0.12
-0.13
-0.135
-0.135
-0.135
-0.14
-0.14
-0.14
-0.14
-0.14
-0.14
-0.14
-0.14
-0.14
-0.14
-0.14
-0.14
-0.14
-0.14
-0.14
-0.14
-0.115
-0.055
-0.03
-0.01
0.06
0.085
0.01
-0.06
-0.08
-0.14
-0.165
-0.165
-0.17
-0.17
-0.17
-0.18
-0.08
0.265
0.85
0.93
-0.36
-1.295
-0.79
-0.27
-0.115
-0.065
-0.04
-0.03
0.0
0.005
0.04
0.05
0.085
0.1
0.14
0.18
0.225
0.285
0.36
0.44
0.53
0.625
0.72
0.79
0.85
0.82
0.77
0.67
0.55
0.4
0.265
0.15
0.06
-0.005
-0.035
-0.055
-0.065
-0.06
-0.07
-0.07
-0.06
-0.05
-0.04
-0.045
-0.04
-0.04
-0.04
-0.06
-0.06
-0.08
-0.08
-0.1
-0.1
-0.115
-0.12
-0.12
-0.12
-0.12
-0.13
-0.135
-0.13
-0.14
-0.13
-0.14
-0.12
-0.13
-0.135
-0.14
-0.14
-0.14
-0.13
-0.14
-0.135
-0.12
-0.08
-0.04
-0.015
0.005
0.08
0.08
0.01
-0.06
-0.08
-0.14
-0.16
-0.16
-0.17
-0.175
-0.17
-0.17
-0.05
0.35
0.92
0.86
-0.475
-1.295
-0.71
-0.255
-0.11
-0.07
-0.04
-0.025
-0.005
0.0
0.035
0.05
0.085
0.105
0.14
0.18
0.24
0.3
0.37
0.445
0.55
0.645
0.73
0.795
0.85
0.82
0.77
0.66
0.54
0.4
0.26
0.145
0.05
-0.015
-0.035
-0.08
-0.06
-0.075
-0.07
-0.07
-0.055
-0.05
-0.04
-0.04
-0.04
-0.06
-0.055
-0.06
-0.065
-0.08
-0.08
-0.095
-0.1
-0.12
-0.11
-0.135
-0.12
-0.12
-0.12
-0.135
-0.135
-0.135
-0.135
-0.14
-0.135
-0.15
-0.14
-0.14
-0.135
-0.14
-0.14
-0.155
-0.135
-0.15
-0.12
-0.075
-0.04
-0.03
0.04
0.08
0.02
-0.065
-0.08
-0.155
-0.16
-0.175
-0.175
-0.18
-0.18
-0.195
-0.1
0.185
0.775
0.98
-0.21
-1.27
-0.9
-0.32
-0.15
-0.1
-0.06
-0.05
-0.02
-0.01
0.02
0.03
0.08
0.09
0.13
0.155
0.21
0.26
0.33
0.41
0.505
0.605
0.705
0.77
0.83
0.84
0.78
0.685
0.56
0.415
0.29
0.15
0.065
-0.01
-0.04
-0.07
-0.08
-0.085
-0.07
-0.075
-0.075
-0.08
-0.06
-0.04
-0.055
-0.065
-0.07
-0.08
-0.075
-0.09
-0.08
-0.1
-0.12
-0.135
-0.13
-0.155
-0.14
-0.15
-0.14
-0.165
-0.15
-0.15
-0.14
-0.15
-0.155
-0.165
-0.155
-0.16
-0.155
-0.17
-0.165
-0.165
-0.165
-0.17
-0.13
-0.08
-0.055
-0.05
0.025
0.055
-0.015
-0.1
-0.115
-0.165
-0.195
-0.2
-0.19
-0.205
-0.2
-0.205
-0.11
0.2
0.805
0.965
-0.28
-1.305
-0.88
-0.335
-0.16
-0.105
-0.07
-0.055
-0.035
-0.015
0.01
0.02
0.05
0.08
0.125
0.155
0.21
0.24
0.325
0.39
0.495
0.585
0.68
0.76
0.82
0.82
0.77
0.66
0.535
0.385
0.245
0.12
0.04
-0.035
-0.07
-0.1
-0.1
-0.11
-0.1
-0.115
-0.1
-0.1
-0.08
-0.08
-0.07
-0.08
-0.075
-0.09
-0.08
-0.115
-0.115
-0.13
-0.13
-0.14
-0.14
-0.155
-0.14
-0.165
-0.16
-0.17
-0.165
-0.165
-0.15
-0.175
-0.155
-0.165
-0.165
-0.175
-0.165
-0.175
-0.17
-0.175
-0.165
-0.14
-0.09
-0.07
-0.04
0.0
0.055
-0.02
-0.075
-0.12
-0.16
-0.2
-0.185
-0.21
-0.2
-0.215
-0.2
-0.14
0.145
0.735
1.005
-0.17
-1.265
-0.96
-0.34
-0.18
-0.12
-0.1
-0.07
-0.06
-0.025
-0.015
0.015
0.03
0.07
0.1
0.14
0.18
0.24
0.305
0.4
0.485
0.59
0.67
0.75
0.805
0.815
0.76
0.68
0.53
0.4
0.25
0.14
0.05
-0.02
-0.08
-0.1
-0.115
-0.11
-0.11
-0.08
-0.095
-0.075
-0.08
-0.075
-0.08
-0.06
-0.08
-0.08
-0.105
-0.1
-0.12
-0.115
-0.14
-0.12
-0.15
-0.14
-0.165
-0.15
-0.17
-0.155
-0.165
-0.15
-0.165
-0.165
-0.17
-0.17
-0.165
-0.16
-0.175
-0.16
-0.17
-0.15
-0.11
-0.04
-0.04
-0.015
0.045
0.04
-0.055
-0.1
-0.135
-0.18
-0.2
-0.19
-0.2
-0.2
-0.21
-0.19
-0.04
0.49
0.98
0.56
-0.87
-1.26
-0.57
-0.23
-0.145
-0.08
-0.08
-0.04
-0.04
-0.015
0.0
0.04
0.05
0.085
0.11
0.165
0.21
0.28
0.345
0.445
0.53
0.635
0.72
0.795
0.805
0.795
0.71
0.61
0.46
0.33
0.17
0.08
-0.01
-0.055
-0.1
-0.1
-0.12
-0.11
-0.105
-0.095
-0.1
-0.07
-0.08
-0.065
-0.075
-0.055
-0.075
-0.08
-0.105
-0.1
-0.12
-0.12
-0.145
-0.14
-0.165
-0.14
-0.16
-0.15
-0.17
-0.16
-0.165
-0.155
-0.17
-0.165
-0.17
-0.165
-0.18
-0.17
-0.18
-0.15
-0.115
-0.06
-0.055
-0.015
0.045
0.045
-0.075
-0.115
-0.155
-0.185
-0.2
-0.19
-0.215
-0.2
-0.215
-0.2
-0.02
0.52
0.98
0.45
-0.96
-1.27
-0.57
-0.24
-0.16
-0.095
-0.08
-0.055
-0.04
-0.015
-0.005
0.04
0.04
0.1
0.125
0.165
0.225
0.305
0.365
0.46
0.56
0.68
0.745
0.83
0.84
0.84
0.73
0.62
0.46
0.315
0.15
0.06
-0.025
-0.08
-0.105
-0.11
-0.125
-0.11
-0.13
-0.11
-0.115
-0.1
-0.115
-0.08
-0.11
-0.11
-0.11
-0.115
-0.12
-0.12
-0.155
-0.14
-0.175
-0.17
-0.18
-0.18
-0.2
-0.18
-0.2
-0.185
-0.2
-0.18
-0.2
-0.19
-0.2
-0.2
-0.215
-0.165
-0.14
-0.08
-0.1
-0.035
0.02
-0.03
-0.14
-0.165
-0.215
-0.23
-0.24
-0.24
-0.26
-0.25
-0.265
-0.19
0.055
0.67
1.02
0.005
-1.33
-1.2
-0.53
-0.27
-0.19
-0.135
-0.12
-0.08
-0.08
-0.05
-0.04
-0.005
0.01
0.065
0.09
0.145
0.2
0.285
0.36
0.465
0.56
0.67
0.76
0.82
0.81
0.77
0.66
0.54
0.365
0.22
0.08
-0.015
-0.1
-0.13
-0.165
-0.16
-0.18
-0.155
-0.165
-0.15
-0.165
-0.145
-0.15
-0.13
-0.145
-0.14
-0.165
-0.15
-0.17
-0.18
-0.19
-0.185
-0.21
-0.2
-0.21
-0.215
-0.225
-0.22
-0.22
-0.215
-0.235
-0.23
-0.235
-0.225
-0.235
-0.23
-0.21
-0.15
-0.135
-0.11
-0.065
0.0
-0.095
-0.165
-0.2
-0.235
-0.29
-0.255
-0.28
-0.28
-0.29
-0.28
-0.2
0.13
0.71
0.89
-0.37
-1.39
-0.985
-0.39
-0.25
-0.19
-0.165
-0.13
-0.12
-0.095
-0.08
-0.055
-0.03
0.01
0.03
0.095
0.125
0.195
0.25
0.36
0.44
0.56
0.63
0.725
0.765
0.78
0.705
0.62
0.46
0.32
0.15
0.04
-0.07
-0.12
-0.175
-0.17
-0.195
-0.18
-0.19
-0.175
-0.175
-0.155
-0.175
-0.15
-0.165
-0.155
-0.165
-0.155
-0.18
-0.17
-0.18
-0.19
-0.2
-0.195
-0.22
-0.2
-0.23
-0.22
-0.23
-0.23
-0.24
-0.22
-0.24
-0.23
-0.25
-0.235
-0.235
-0.17
-0.145
-0.12
-0.075
-0.005
-0.07
-0.14
-0.2
-0.23
-0.27
-0.27
-0.28
-0.27
-0.28
-0.275
-0.225
0.02
0.6
0.94
-0.06
-1.265
-1.115
-0.44
-0.26
-0.175
-0.155
-0.13
-0.125
-0.08
-0.075
-0.05
-0.03
0.01
0.025
0.08
0.12
0.19
0.25
0.345
0.43
0.545
0.64
0.73
0.79
0.795
0.74
0.655
0.52
0.37
0.2
0.08
-0.05
-0.08
-0.14
-0.155
-0.175
-0.175
-0.175
-0.15
-0.17
-0.145
-0.165
-0.15
-0.15
-0.145
-0.16
-0.14
-0.15
-0.16
-0.175
-0.165
-0.185
-0.18
-0.2
-0.2
-0.215
-0.195
-0.225
-0.2
-0.215
-0.215
-0.22
-0.2
-0.22
-0.19
-0.16
-0.105
-0.11
-0.04
0.01
-0.05
-0.155
-0.15
-0.22
-0.235
-0.24
-0.24
-0.26
-0.24
-0.26
-0.18
0.065
0.66
0.94
-0.13
-1.31
-1.04
-0.4
-0.22
-0.17
-0.115
-0.12
-0.08
-0.095
-0.055
-0.05
-0.005
0.025
0.06
0.09
0.15
0.2
0.28
0.36
0.46
0.56
0.655
0.735
0.82
0.795
0.765
0.65
0.525
0.36
0.205
0.065
-0.015
-0.08
-0.115
-0.14
-0.14
-0.155
-0.135
-0.155
-0.135
-0.145
-0.13
-0.13
-0.115
-0.12
-0.12
-0.135
-0.12
-0.145
-0.14
-0.16
-0.165
-0.17
-0.165
-0.19
-0.175
-0.2
-0.19
-0.195
-0.19
-0.2
-0.19
-0.2
-0.18
-0.18
-0.115
-0.1
-0.08
-0.035
0.04
-0.04
-0.1
-0.16
-0.2
-0.24
-0.23
-0.24
-0.22
-0.24
-0.235
-0.165
0.12
0.7
0.97
-0.235
-1.39
-1.08
-0.41
-0.225
-0.15
-0.13
-0.095
-0.08
-0.04
-0.035
-0.005
0.02
0.065
0.09
0.15
0.175
0.26
0.32
0.43
0.53
0.64
0.74
0.84
0.88
0.905
0.85
0.745
0.57
0.41
0.22
0.09
-0.01
-0.06
-0.11
-0.12
-0.135
-0.115
-0.135
-0.12
-0.115
-0.11
-0.12
-0.1
-0.11
-0.095
-0.11
-0.11
-0.13
-0.115
-0.14
-0.14
-0.165
-0.155
-0.18
-0.17
-0.18
-0.17
-0.185
-0.18
-0.195
-0.18
-0.185
-0.135
-0.095
-0.065
-0.05
0.04
0.0
-0.09
-0.14
-0.165
-0.22
-0.21
-0.215
-0.22
-0.225
-0.215
-0.21
-0.035
0.465
1.02
0.62
-0.89
-1.45
-0.705
-0.32
-0.17
-0.13
-0.07
-0.06
-0.035
-0.03
0.01
0.02
0.06
0.08
0.13
0.17
0.24
0.285
0.375
0.45
0.55
0.635
0.73
0.78
0.82
0.78
0.705
0.58
0.425
0.265
0.14
0.03
-0.025
-0.06
-0.075
-0.1
-0.095
-0.09
-0.08
-0.08
-0.06
-0.08
-0.06
-0.065
-0.06
-0.075
-0.075
-0.095
-0.075
-0.105
-0.1
-0.12
-0.11
-0.12
-0.12
-0.14
-0.135
-0.155
-0.135
-0.15
-0.14
-0.17
-0.12
-0.09
-0.06
-0.07
-0.005
0.025
-0.03
-0.095
-0.12
-0.165
-0.175
-0.175
-0.17
-0.185
-0.18
-0.19
-0.1
0.185
0.63
0.74
-0.24
-1.03
-0.66
-0.26
-0.14
-0.11
-0.08
-0.08
-0.065
-0.06
-0.04
-0.03
0.0
0.01
0.045
0.065
0.12
0.14
0.21
0.25
0.335
0.4
0.47
0.51
0.54
0.51
0.485
0.4
0.3
0.18
0.08
-0.01
-0.06
-0.11
-0.115
-0.13
-0.115
-0.14
-0.115
-0.13
-0.135
-0.14
-0.115
-0.12
-0.11
-0.12
-0.115
-0.14
-0.13
-0.12
-0.13
-0.14
-0.14
-0.155
-0.14
-0.16
-0.155
-0.16
-0.155
-0.135
-0.08
-0.09
-0.07
-0.04
-0.015
-0.095
-0.1
-0.135
-0.165
-0.19
-0.18
-0.2
-0.19
-0.19
-0.17
-0.06
0.29
0.605
0.32
-0.545
-0.76
-0.33
-0.165
-0.135
-0.11
-0.08
-0.065
-0.08
-0.055
-0.055
-0.02
-0.01
0.02
0.04
0.08
0.11
0.16
0.215
0.295
0.36
0.42
0.47
0.53
0.54
0.5
0.44
0.36
0.225
0.14
0.045
-0.015
-0.08
-0.09
-0.12
-0.11
-0.12
-0.105
-0.12
-0.11
-0.12
-0.1
-0.115
-0.115
-0.12
-0.11
-0.11
-0.1
-0.12
-0.115
-0.12
-0.105
-0.12
-0.115
-0.135
-0.13
-0.14
-0.12
-0.095
-0.065
-0.08
-0.04
0.01
0.005
-0.06
-0.07
-0.12
-0.155
-0.165
-0.155
-0.165
-0.17
-0.18
-0.12
0.095
0.57
0.865
0.16
-0.78
-0.665
-0.235
-0.115
-0.08
-0.075
-0.065
-0.035
-0.035
-0.005
0.005
0.025
0.05
0.08
0.1
0.155
0.2
0.26
0.315
0.41
0.48
0.565
0.635
0.69
0.69
0.65
0.56
0.46
0.305
0.185
0.08
0.015
-0.035
-0.04
-0.07
-0.07
-0.08
-0.08
-0.075
-0.07
-0.09
-0.07
-0.07
-0.05
-0.06
-0.055
-0.045
-0.05
-0.065
-0.06
-0.08
-0.08
-0.1
-0.1
-0.1
-0.08
-0.055
-0.005
-0.01
0.03
0.08
0.09
-0.015
-0.04
-0.08
-0.115
-0.14
-0.115
-0.135
-0.13
-0.14
-0.08
0.095
0.63
0.97
0.24
-0.865
-0.805
-0.26
-0.11
-0.075
-0.04
-0.03
-0.005
-0.005
0.04
0.04
0.06
0.085
0.125
0.15
0.21
0.24
0.305
0.38
0.465
0.54
0.64
0.7
0.75
0.76
0.705
0.62
0.495
0.325
0.2
0.08
0.02
-0.02
-0.04
-0.07
-0.07
-0.08
-0.07
-0.08
-0.08
-0.07
-0.07
-0.08
-0.05
-0.065
-0.06
-0.07
-0.06
-0.08
-0.09
-0.105
-0.1
-0.115
-0.095
-0.08
-0.03
-0.02
-0.005
0.04
0.08
0.0
-0.04
-0.08
-0.12
-0.145
-0.14
-0.155
-0.145
-0.16
-0.15
-0.025
0.44
0.935
0.74
-0.54
-1.055
-0.475
-0.2
-0.115
-0.08
-0.06
-0.04
-0.035
-0.01
0.005
0.03
0.04
0.08
0.1
0.135
0.2
0.26
0.32
0.4
0.47
0.57
0.63
0.7
0.7
0.685
0.59
0.475
0.325
0.2
0.07
0.01
-0.05
-0.065
-0.08
-0.08
-0.1
-0.08
-0.11
-0.1
-0.1
-0.095
-0.105
-0.08
-0.105
-0.075
-0.08
-0.08
-0.1
-0.1
-0.12
-0.1
-0.12
-0.115
-0.1
-0.065
-0.07
-0.04
-0.005
-0.005
-0.075
-0.1
-0.12
-0.16
-0.18
-0.18
-0.19
-0.195
-0.19
-0.16
0.005
0.425
0.765
0.205
-0.72
-0.745
-0.295
-0.17
-0.14
-0.12
-0.1
-0.08
-0.07
-0.06
-0.06
-0.04
-0.03
0.005
0.025
0.08
0.105
0.15
0.215
0.28
0.35
0.44
0.46
0.51
0.51
0.47
0.38
0.29
0.155
0.06
-0.025
-0.07
-0.105
-0.12
-0.135
-0.13
-0.14
-0.14
-0.14
-0.14
-0.15
-0.14
-0.14
-0.13
-0.13
-0.12
-0.135
-0.135
-0.14
-0.14
-0.155
-0.155
-0.165
-0.14
-0.12
-0.095
-0.105
-0.06
-0.04
-0.075
-0.14
-0.14
-0.19
-0.21
-0.21
-0.2
-0.21
-0.2
-0.215
-0.11
0.24
0.65
0.485
-0.44
-0.835
-0.39
-0.18
-0.14
-0.14
-0.115
-0.1
-0.08
-0.08
-0.06
-0.055
-0.03
-0.01
0.02
0.055
0.095
0.13
0.2
0.255
0.335
0.4
0.47
0.505
0.52
0.475
0.425
0.315
0.19
0.08
-0.01
-0.08
-0.095
-0.13
-0.145
-0.14
-0.145
-0.155
-0.155
-0.155
-0.155
-0.155
-0.165
-0.17
-0.16
-0.165
-0.17
-0.16
-0.165
-0.175
-0.165
-0.18
-0.19
-0.18
-0.16
-0.14
-0.12
-0.12
-0.075
-0.11
-0.165
-0.17
-0.2
-0.24
-0.235
-0.24
-0.24
-0.24
-0.24
-0.185
0.085
0.52
0.67
-0.2
-0.88
-0.56
-0.26
-0.2
-0.175
-0.175
-0.15
-0.15
-0.13
-0.12
-0.1
-0.07
-0.055
-0.04
0.005
0.04
0.095
0.145
0.21
0.28
0.365
0.425
0.49
0.525
0.5
0.45
0.35
0.24
0.11
-0.005
-0.06
-0.12
-0.14
-0.14
-0.155
-0.17
-0.16
-0.165
-0.165
-0.175
-0.16
-0.165
-0.15
-0.165
-0.155
-0.16
-0.15
-0.165
-0.16
-0.17
-0.17
-0.18
-0.145
-0.115
-0.11
-0.1
-0.04
-0.02
-0.07
-0.13
-0.14
-0.185
-0.215
-0.225
-0.22
-0.235
-0.22
-0.23
-0.115
0.305
0.77
0.56
-0.56
-0.985
-0.425
-0.22
-0.165
-0.14
-0.12
-0.12
-0.1
-0.08
-0.06
-0.04
-0.02
-0.005
0.04
0.085
0.12
0.19
0.25
0.32
0.44
0.52
0.58
0.625
0.645
0.61
0.545
0.4
0.255
0.12
0.015
-0.065
-0.08
-0.12
-0.135
-0.14
-0.14
-0.155
-0.14
-0.145
-0.135
-0.14
-0.12
-0.11
-0.1
-0.11
-0.11
-0.115
-0.13
-0.14
-0.14
-0.14
-0.155
-0.165
-0.12
-0.07
-0.05
-0.03
0.05
0.02
-0.055
-0.1
-0.13
-0.195
-0.195
-0.2
-0.21
-0.21
-0.21
-0.19
0.01
0.54
0.94
0.24
-0.94
-0.94
-0.33
-0.185
-0.12
-0.09
-0.08
-0.06
-0.04
-0.03
0.0
0.025
0.05
0.08
0.12
0.155
0.22
0.27
0.36
0.445
0.55
0.625
0.72
0.76
0.77
0.72
0.605
0.45
0.29
0.145
0.045
-0.035
-0.07
-0.08
-0.095
-0.11
-0.11
-0.12
-0.115
-0.12
-0.1
-0.1
-0.08
-0.08
-0.075
-0.08
-0.08
-0.1
-0.11
-0.12
-0.12
-0.12
-0.12
-0.14
-0.145
-0.14
-0.09
-0.045
-0.035
-0.005
0.08
0.04
-0.075
-0.1
-0.14
-0.19
-0.19
-0.185
-0.19
-0.19
-0.195
-0.17
0.01
0.55
0.985
0.25
-1.01
-1.06
-0.4
-0.21
-0.12
-0.1
-0.08
-0.07
-0.05
-0.035
-0.005
0.005
0.04
0.08
0.11
0.14
0.205
0.265
0.36
0.44
0.52
0.61
0.68
0.71
0.73
0.67
0.57
0.425
0.27
0.13
0.025
-0.05
-0.08
-0.1
-0.105
-0.115
-0.115
-0.115
-0.12
-0.12
-0.11
-0.11
-0.1
-0.1
-0.1
-0.105
-0.1
-0.12
-0.12
-0.13
-0.13
-0.13
-0.14
-0.15
-0.16
-0.165
-0.16
-0.12
-0.075
-0.07
-0.04
0.01
-0.005
-0.095
-0.12
-0.15
-0.195
-0.21
-0.21
-0.215
-0.22
-0.22
-0.21
-0.07
0.4
0.77
0.245
-0.79
-0.9
-0.38
-0.2
-0.165
-0.12
-0.115
-0.095
-0.09
-0.07
-0.06
-0.04
-0.02
0.005
0.03
0.08
0.11
0.17
0.22
0.29
0.36
0.43
0.495
0.525
0.52
0.47
0.4
0.29
0.155
0.055
-0.04
-0.08
-0.13
-0.145
-0.165
-0.165
-0.155
-0.165
-0.165
-0.15
-0.15
-0.155
-0.14
-0.14
-0.135
-0.145
-0.14
-0.15
-0.16
-0.165
-0.15
-0.17
-0.175
-0.175
-0.18
-0.17
-0.18
-0.19
-0.18
-0.15
-0.12
-0.105
-0.08
-0.02
-0.015
-0.115
-0.145
-0.16
-0.21
-0.215
-0.22
-0.215
-0.23
-0.225
-0.21
-0.035
0.39
0.74
0.18
-0.775
-0.805
-0.31
-0.19
-0.14
-0.13
-0.12
-0.11
-0.08
-0.07
-0.06
-0.04
-0.015
0.02
0.04
0.08
0.12
0.165
0.245
0.32
0.38
0.455
0.54
0.56
0.56
0.52
0.455
0.335
0.21
0.09
0.005
-0.055
-0.09
-0.12
-0.115
-0.11
-0.12
-0.13
-0.135
-0.14
-0.135
-0.13
-0.12
-0.11
-0.105
-0.105
-0.11
-0.115
-0.115
-0.12
-0.135
-0.14
-0.135
-0.14
-0.14
-0.15
-0.145
-0.145
-0.15
-0.155
-0.165
-0.165
-0.165
-0.17
-0.165
-0.12
-0.08
-0.07
-0.05
0.03
0.045
-0.04
-0.1
-0.115
-0.15
-0.18
-0.175
-0.185
-0.185
-0.2
-0.2
-0.1
0.28
0.74
0.69
-0.44
-1.01
-0.47
-0.18
-0.13
-0.08
-0.08
-0.065
-0.05
-0.04
-0.01
0.005
0.02
0.045
0.09
0.12
0.17
0.225
0.3
0.37
0.46
0.56
0.62
0.69
0.72
0.7
0.645
0.545
0.42
0.27
0.13
0.04
-0.005
-0.04
-0.055
-0.08
-0.08
-0.1
-0.1
-0.08
-0.08
-0.08
-0.075
-0.065
-0.06
-0.06
-0.055
-0.07
-0.08
-0.08
-0.08
-0.08
-0.11
-0.11
-0.11
-0.115
-0.115
-0.105
-0.12
-0.135
-0.12
-0.135
-0.13
-0.135
-0.135
-0.14
-0.135
-0.12
-0.125
-0.135
-0.135
-0.115
-0.065
-0.03
-0.015
0.04
0.105
0.04
-0.05
-0.07
-0.115
-0.155
-0.165
-0.175
-0.18
-0.17
-0.165
-0.15
0.03
0.57
0.94
0.225
-0.96
-0.95
-0.31
-0.135
-0.09
-0.06
-0.04
-0.02
-0.005
0.02
0.03
0.05
0.08
0.12
0.15
0.205
0.24
0.305
0.38
0.47
0.56
0.645
0.735
0.795
0.805
0.77
0.68
0.56
0.42
0.265
0.13
0.05
-0.005
-0.05
-0.065
-0.075
-0.09
-0.09
-0.09
-0.08
-0.07
-0.06
-0.06
-0.055
-0.05
-0.055
-0.06
-0.07
-0.08
-0.1
-0.11
-0.11
-0.125
-0.13
-0.135
-0.135
-0.14
-0.145
-0.15
-0.155
-0.165
-0.17
-0.175
-0.175
-0.18
-0.185
-0.19
-0.19
-0.19
-0.18
-0.19
-0.19
-0.2
-0.2
-0.195
-0.19
-0.18
-0.115
-0.095
-0.07
-0.02
0.04
-0.035
-0.12
-0.15
-0.195
-0.22
-0.22
-0.235
-0.235
-0.235
-0.24
-0.2
0.04
0.58
0.9
-0.105
-1.2
-0.96
-0.36
-0.215
-0.16
-0.135
-0.115
-0.095
-0.075
-0.06
-0.04
-0.02
0.01
0.04
0.08
0.12
0.175
0.245
0.33
0.41
0.505
0.59
0.67
0.72
0.73
0.7
0.605
0.465
0.325
0.17
0.06
-0.04
-0.115
-0.15
-0.165
-0.175
-0.17
-0.18
-0.16
-0.165
-0.145
-0.12
-0.135
-0.14
-0.135
-0.15
-0.165
-0.17
-0.175
-0.185
-0.195
-0.2
-0.215
-0.22
-0.22
-0.235
-0.24
-0.24
-0.24
-0.24
-0.24
-0.24
-0.24
-0.25
-0.24
-0.24
-0.255
-0.24
-0.25
-0.255
-0.26
-0.255
-0.26
-0.265
-0.26
-0.23
-0.18
-0.155
-0.135
-0.07
-0.035
-0.12
-0.2
-0.22
-0.26
-0.28
-0.29
-0.29
-0.285
-0.295
-0.3
-0.215
0.085
0.66
0.88
-0.375
-1.43
-1.03
-0.46
-0.275
-0.21
-0.175
-0.17
-0.14
-0.13
-0.11
-0.08
-0.06
-0.035
0.005
0.05
0.095
0.15
0.215
0.295
0.39
0.475
0.57
0.645
0.665
0.67
0.615
0.52
0.37
0.24
0.09
-0.02
-0.1
-0.155
-0.175
-0.18
-0.19
-0.185
-0.18
-0.17
-0.165
-0.155
-0.14
-0.15
-0.15
-0.15
-0.165
-0.17
-0.17
-0.19
-0.2
-0.21
-0.215
-0.225
-0.24
-0.235
-0.24
-0.235
-0.24
-0.24
-0.24
-0.24
-0.255
-0.25
-0.24
-0.255
-0.24
-0.25
-0.24
-0.255
-0.24
-0.25
-0.25
-0.255
-0.24
-0.24
-0.255
-0.255
-0.24
-0.22
-0.17
-0.135
-0.12
-0.065
-0.03
-0.105
-0.18
-0.19
-0.24
-0.265
-0.26
-0.27
-0.275
-0.28
-0.28
-0.18
0.16
0.72
0.765
-0.495
-1.315
-0.79
-0.33
-0.215
-0.175
-0.14
-0.12
-0.11
-0.08
-0.06
-0.04
-0.02
0.005
0.045
0.08
0.13
0.2
0.25
0.325
0.44
0.52
0.61
0.68
0.72
0.72
0.66
0.55
0.44
0.295
0.155
0.04
-0.05
-0.11
-0.135
-0.16
-0.165
-0.165
-0.16
-0.155
-0.135
-0.13
-0.12
-0.115
-0.115
-0.115
-0.125
-0.12
-0.14
-0.145
-0.16
-0.17
-0.17
-0.18
-0.18
-0.19
-0.19
-0.195
-0.195
-0.2
-0.195
-0.195
-0.2
-0.2
-0.2
-0.195
-0.195
-0.2
-0.21
-0.2
-0.2
-0.2
-0.2
-0.205
-0.21
-0.195
-0.2
-0.2
-0.21
-0.195
-0.17
-0.115
-0.08
-0.075
-0.01
0.02
-0.07
-0.12
-0.155
-0.2
-0.22
-0.22
-0.23
-0.235
-0.235
-0.24
-0.14
0.245
0.78
0.745
-0.55
-1.28
-0.695
-0.28
-0.165
-0.115
-0.11
-0.075
-0.055
-0.055
-0.035
-0.005
0.02
0.045
0.085
0.12
0.17
0.225
0.28
0.37
0.46
0.55
0.63
0.72
0.745
0.75
0.69
0.58
0.455
0.32
0.2
0.08
-0.01
-0.07
-0.095
-0.12
-0.12
-0.12
-0.12
-0.11
-0.095
-0.1
-0.08
-0.08
-0.08
-0.08
-0.08
-0.11
-0.11
-0.12
-0.13
-0.14
-0.15
-0.16
-0.17
-0.17
-0.17
-0.165
-0.17
-0.175
-0.17
-0.18
-0.18
-0.175
-0.18
-0.18
-0.18
-0.185
-0.18
-0.18
-0.18
-0.19
-0.175
-0.19
-0.185
-0.17
-0.175
-0.18
-0.18
-0.175
-0.135
-0.08
-0.065
-0.035
0.025
0.025
-0.06
-0.125
-0.15
-0.2
-0.205
-0.21
-0.22
-0.22
-0.22
-0.22
-0.08
0.4
0.88
0.5
-0.825
-1.225
-0.55
-0.23
-0.14
-0.11
-0.08
-0.065
-0.04
-0.02
-0.005
0.02
0.04
0.08
0.105
0.145
0.205
0.265
0.33
0.405
0.49
0.59
0.67
0.75
0.78
0.76
0.69
0.58
0.46
0.32
0.18
0.07
0.005
-0.055
-0.08
-0.095
-0.1
-0.1
-0.09
-0.095
-0.07
-0.07
-0.07
-0.06
-0.06
-0.06
-0.07
-0.08
-0.08
-0.08
-0.105
-0.12
-0.12
-0.12
-0.135
-0.14
-0.14
-0.14
-0.145
-0.135
-0.14
-0.145
-0.14
-0.15
-0.15
-0.15
-0.16
-0.155
-0.15
-0.15
-0.14
-0.14
-0.155
-0.14
-0.14
-0.14
-0.155
-0.14
-0.14
-0.125
-0.08
-0.035
-0.015
0.02
0.08
0.03
-0.05
-0.095
-0.12
-0.175
-0.155
-0.17
-0.175
-0.18
-0.17
-0.11
0.145
0.705
0.985
-0.1
-1.17
-0.88
-0.31
-0.135
-0.075
-0.04
-0.025
-0.03
0.01
0.015
0.045
0.08
0.1
0.12
0.17
0.21
0.26
0.32
0.4
0.475
0.58
0.66
0.745
0.785
0.795
0.75
0.67
0.55
0.42
0.29
0.165
0.08
0.01
-0.04
-0.05
-0.06
-0.065
-0.06
-0.05
-0.04
-0.03
-0.02
-0.02
-0.02
-0.02
-0.03
-0.03
-0.04
-0.06
-0.06
-0.06
-0.08
-0.08
-0.09
-0.095
-0.095
-0.1
-0.11
-0.1
-0.115
-0.11
-0.11
-0.115
-0.12
-0.12
-0.13
-0.12
-0.115
-0.12
-0.12
-0.12
-0.12
-0.12
-0.12
-0.13
-0.135
-0.105
-0.075
-0.02
0.0
0.04
0.1
0.055
-0.04
-0.07
-0.11
-0.15
-0.16
-0.16
-0.17
-0.16
-0.17
-0.1
0.125
0.695
1.07
0.08
-1.16
-1.03
-0.385
-0.165
-0.08
-0.04
-0.03
-0.02
-0.005
0.01
0.03
0.06
0.085
0.12
0.155
0.2
0.255
0.32
0.39
0.475
0.56
0.635
0.72
0.77
0.78
0.74
0.64
0.52
0.4
0.25
0.125
0.04
-0.035
-0.08
-0.1
-0.11
-0.115
-0.12
-0.115
-0.095
-0.08
-0.08
-0.08
-0.095
-0.1
-0.1
-0.12
-0.12
-0.12
-0.145
-0.165
-0.175
-0.18
-0.18
-0.195
-0.2
-0.2
-0.195
-0.21
-0.215
-0.22
-0.225
-0.23
-0.23
-0.24
-0.235
-0.24
-0.24
-0.24
-0.24
-0.25
-0.24
-0.255
-0.26
-0.26
-0.24
-0.215
-0.165
-0.145
-0.11
-0.055
-0.075
-0.18
-0.2
-0.24
-0.29
-0.3
-0.295
-0.315
-0.315
-0.32
-0.28
-0.095
0.46
0.865
0.08
-1.18
-1.2
-0.53
-0.31
-0.24
-0.21
-0.2
-0.165
-0.16
-0.14
-0.115
-0.105
-0.075
-0.04
-0.01
0.04
0.08
0.15
0.22
0.31
0.4
0.48
0.56
0.63
0.635
0.605
0.52
0.4
0.275
0.14
0.005
-0.08
-0.165
-0.21
-0.235
-0.24
-0.24
-0.24
-0.24
-0.22
-0.225
-0.22
-0.215
-0.215
-0.215
-0.215
-0.23
-0.23
-0.24
-0.255
-0.255
-0.265
-0.28
-0.305
-0.28
-0.28
-0.3
-0.3
-0.31
-0.31
-0.3
-0.3
-0.31
-0.3
-0.315
-0.3
-0.31
-0.3
-0.3
-0.305
-0.3
-0.3
-0.31
-0.295
-0.3
-0.28
-0.28
-0.21
-0.19
-0.165
-0.105
-0.08
-0.14
-0.2
-0.24
-0.28
-0.31
-0.305
-0.325
-0.3
-0.315
-0.3
-0.21
0.15
0.705
0.76
-0.55
-1.38
-0.86
-0.38
-0.26
-0.2
-0.18
-0.16
-0.14
-0.12
-0.105
-0.08
-0.055
-0.02
0.0
0.045
0.09
0.155
0.22
0.31
0.38
0.485
0.58
0.645
0.685
0.68
0.62
0.53
0.405
0.28
0.14
0.03
-0.05
-0.115
-0.15
-0.16
-0.18
-0.17
-0.18
-0.165
-0.15
-0.14
-0.14
-0.13
-0.14
-0.13
-0.14
-0.135
-0.15
-0.165
-0.17
-0.18
-0.19
-0.19
-0.2
-0.2
-0.21
-0.2
-0.215
-0.21
-0.22
-0.21
-0.22
-0.215
-0.215
-0.2
-0.22
-0.2
-0.215
-0.21
-0.2
-0.2
-0.205
-0.2
-0.2
-0.195
-0.165
-0.08
-0.08
-0.04
0.015
0.02
-0.07
-0.12
-0.15
-0.195
-0.22
-0.205
-0.215
-0.22
-0.22
-0.2
-0.04
0.44
0.945
0.585
-0.795
-1.235
-0.56
-0.225
-0.13
-0.095
-0.07
-0.04
-0.03
0.0
0.015
0.04
0.055
0.1
0.125
0.17
0.24
0.285
0.345
0.44
0.525
0.62
0.7
0.765
0.795
0.785
0.68
0.6
0.47
0.34
0.21
0.105
0.02
-0.035
-0.075
-0.065
-0.075
-0.07
-0.07
-0.05
-0.04
-0.035
-0.03
-0.035
-0.04
-0.03
-0.05
-0.05
-0.06
-0.06
-0.075
-0.075
-0.1
-0.08
-0.1
-0.1
-0.11
-0.1
-0.105
-0.11
-0.12
-0.1
-0.11
-0.105
-0.12
-0.11
-0.115
-0.1
-0.11
-0.1
-0.105
-0.095
-0.11
-0.08
-0.03
0.01
0.025
0.08
0.125
0.08
-0.02
-0.04
-0.09
-0.12
-0.12
-0.12
-0.14
-0.14
-0.12
-0.04
0.22
0.805
1.045
-0.095
-1.16
-0.825
-0.24
-0.07
-0.04
-0.005
0.01
0.04
0.06
0.09
0.09
0.125
0.14
0.19
0.22
0.275
0.315
0.4
0.475
0.565
0.64
0.74
0.795
0.865
0.88
0.825
0.72
0.6
0.45
0.335
0.205
0.13
0.06
0.03
-0.01
-0.005
-0.02
0.0
0.0
0.01
0.01
0.035
0.025
0.045
0.03
0.04
0.01
0.01
-0.005
-0.005
-0.03
-0.03
-0.04
-0.05
-0.05
-0.035
-0.055
-0.055
-0.06
-0.06
-0.06
-0.05
-0.07
-0.06
-0.07
-0.06
-0.065
-0.05
-0.075
-0.06
-0.07
-0.045
-0.02
0.04
0.045
0.1
0.155
0.14
0.04
0.01
-0.04
-0.07
-0.08
-0.08
-0.1
-0.085
-0.095
-0.05
0.145
0.725
1.115
0.32
-0.965
-0.97
-0.305
-0.065
-0.01
0.04
0.04
0.07
0.08
0.11
0.125
0.15
0.165
0.22
0.24
0.285
0.34
0.4
0.465
0.56
0.65
0.745
0.825
0.885
0.895
0.86
0.76
0.665
0.525
0.4
0.265
0.17
0.1
0.055
0.02
0.02
0.01
0.015
0.015
0.03
0.04
0.045
0.045
0.06
0.05
0.05
0.03
0.025
0.02
0.015
-0.005
0.01
-0.005
-0.01
-0.02
-0.02
-0.03
-0.025
-0.04
-0.04
-0.04
-0.035
-0.04
-0.04
-0.055
-0.05
-0.05
-0.05
-0.04
-0.035
-0.02
0.06
0.065
0.11
0.165
0.15
0.055
0.02
-0.03
-0.06
-0.07
-0.06
-0.08
-0.07
-0.075
-0.025
0.18
0.76
1.14
0.295
-0.985
-0.95
-0.28
-0.05
0.015
0.055
0.06
0.095
0.1
0.13
0.145
0.17
0.2
0.24
0.27
0.32
0.37
0.44
0.505
0.6
0.685
0.78
0.85
0.91
0.925
0.89
0.795
0.68
0.545
0.41
0.28
0.19
0.115
0.08
0.055
0.055
0.045
0.055
0.05
0.06
0.08
0.08
0.08
0.08
0.065
0.08
0.055
0.05
0.05
0.04
0.025
0.01
0.005
0.025
0.005
-0.01
-0.01
0.0
-0.01
-0.005
-0.02
-0.005
-0.025
-0.005
-0.02
-0.015
-0.02
-0.02
0.01
0.09
0.1
0.14
0.19
0.2
0.09
0.045
0.01
-0.03
-0.04
-0.04
-0.055
-0.05
-0.05
-0.03
0.135
0.67
1.14
0.63
-0.76
-1.05
-0.34
-0.05
0.03
0.07
0.09
0.12
0.125
0.15
0.165
0.2
0.215
0.26
0.28
0.33
0.37
0.445
0.52
0.61
0.69
0.785
0.865
0.93
0.96
0.92
0.86
0.72
0.585
0.44
0.32
0.215
0.14
0.1
0.065
0.06
0.06
0.06
0.05
0.08
0.08
0.095
0.095
0.1
0.095
0.09
0.08
0.08
0.08
0.06
0.045
0.04
0.02
0.025
0.025
0.02
0.005
0.005
-0.01
0.01
0.01
0.005
0.0
0.005
-0.005
0.005
-0.01
0.0
0.02
0.08
0.1
0.12
0.165
0.245
0.175
0.085
0.055
0.01
-0.035
-0.025
-0.04
-0.035
-0.05
-0.04
0.02
0.29
0.87
1.19
0.105
-1.04
-0.79
-0.175
-0.01
0.07
0.105
0.12
0.13
0.15
0.155
0.2
0.22
0.25
0.28
0.325
0.36
0.425
0.485
0.56
0.65
0.76
0.83
0.92
0.97
0.97
0.92
0.82
0.685
0.56
0.4
0.285
0.18
0.13
0.08
0.08
0.08
0.07
0.065
0.08
0.08
0.09
0.1
0.1
0.1
0.09
0.09
0.085
0.065
0.08
0.04
0.04
0.03
0.03
0.02
0.02
0.02
0.01
-0.005
0.01
-0.005
0.0
-0.01
-0.015
-0.015
-0.01
-0.01
0.035
0.08
0.11
0.14
0.205
0.19
0.09
0.03
0.01
-0.035
-0.06
-0.06
-0.06
-0.07
-0.055
-0.055
0.13
0.665
1.19
0.7
-0.76
-1.2
-0.495
-0.14
-0.015
0.04
0.07
0.08
0.105
0.12
0.145
0.17
0.21
0.24
0.27
0.325
0.37
0.43
0.53
0.61
0.72
0.795
0.89
0.95
0.985
0.95
0.855
0.73
0.575
0.42
0.28
0.17
0.09
0.055
0.03
0.02
0.02
0.02
0.03
0.025
0.04
0.045
0.06
0.045
0.045
0.04
0.035
0.03
0.02
0.0
-0.005
-0.02
-0.015
-0.03
-0.035
-0.05
-0.055
-0.04
-0.05
-0.06
-0.06
-0.06
-0.065
-0.07
-0.07
-0.04
0.01
0.03
0.06
0.105
0.145
0.08
-0.01
-0.03
-0.08
-0.115
-0.11
-0.12
-0.12
-0.13
-0.135
-0.035
0.325
0.89
1.02
-0.27
-1.235
-0.765
-0.22
-0.08
-0.03
-0.005
0.02
0.025
0.055
0.06
0.08
0.1
0.135
0.18
0.22
0.26
0.325
0.4
0.475
0.57
0.67
0.76
0.845
0.88
0.87
0.795
0.69
0.54
0.39
0.245
0.125
0.045
-0.01
-0.06
-0.06
-0.075
-0.075
-0.065
-0.05
-0.055
-0.04
-0.04
-0.03
-0.035
-0.04
-0.04
-0.04
-0.07
-0.06
-0.075
-0.08
-0.1
-0.11
-0.11
-0.115
-0.12
-0.13
-0.13
-0.12
-0.13
-0.12
-0.135
-0.135
-0.14
-0.12
-0.07
-0.025
-0.03
0.025
0.08
0.025
-0.06
-0.08
-0.135
-0.165
-0.175
-0.185
-0.18
-0.18
-0.185
-0.115
0.14
0.705
1.005
-0.06
-1.21
-0.935
-0.315
-0.14
-0.1
-0.06
-0.035
-0.02
-0.01
0.02
0.045
0.08
0.09
0.125
0.165
0.205
0.275
0.34
0.425
0.52
0.61
0.72
0.795
0.84
0.84
0.79
0.68
0.545
0.4
0.245
0.13
0.03
-0.02
-0.05
-0.075
-0.07
-0.08
-0.08
-0.08
-0.06
-0.06
-0.055
-0.04
-0.06
-0.06
-0.05
-0.06
-0.055
-0.07
-0.075
-0.08
-0.095
-0.11
-0.105
-0.12
-0.12
-0.115
-0.13
-0.13
-0.135
-0.135
-0.14
-0.13
-0.11
-0.06
-0.035
-0.025
0.045
0.1
0.03
-0.07
-0.08
-0.14
-0.165
-0.165
-0.18
-0.18
-0.19
-0.19
-0.08
0.25
0.82
0.945
-0.32
-1.27
-0.795
-0.255
-0.13
-0.08
-0.05
-0.03
-0.01
0.01
0.04
0.055
0.085
0.11
0.155
0.19
0.24
0.3
0.365
0.46
0.56
0.65
0.745
0.825
0.88
0.86
0.81
0.69
0.54
0.38
0.24
0.12
0.03
-0.02
-0.055
-0.06
-0.07
-0.075
-0.06
-0.06
-0.05
-0.04
-0.04
-0.035
-0.035
-0.04
-0.035
-0.055
-0.065
-0.06
-0.075
-0.08
-0.08
-0.1
-0.11
-0.095
-0.105
-0.105
-0.105
-0.12
-0.12
-0.115
-0.105
-0.075
-0.03
-0.01
0.025
0.09
0.09
-0.005
-0.075
-0.1
-0.145
-0.155
-0.155
-0.165
-0.16
-0.175
-0.155
-0.005
0.51
1.02
0.6
-0.86
-1.305
-0.56
-0.2
-0.095
-0.04
-0.03
-0.005
0.01
0.03
0.05
0.08
0.1
0.145
0.2
0.24
0.3
0.365
0.45
0.56
0.655
0.745
0.84
0.92
0.96
0.93
0.83
0.68
0.51
0.33
0.2
0.085
0.02
-0.025
-0.05
-0.05
-0.06
-0.055
-0.05
-0.04
-0.04
-0.035
-0.03
-0.03
-0.03
-0.035
-0.04
-0.05
-0.055
-0.065
-0.07
-0.08
-0.09
-0.105
-0.095
-0.1
-0.115
-0.115
-0.12
-0.115
-0.12
-0.12
-0.075
-0.02
-0.005
0.03
0.09
0.09
-0.005
-0.07
-0.08
-0.13
-0.14
-0.14
-0.155
-0.155
-0.15
-0.15
-0.01
0.46
1.005
0.74
-0.72
-1.34
-0.65
-0.235
-0.105
-0.065
-0.04
-0.02
0.01
0.03
0.04
0.065
0.1
0.13
0.165
0.205
0.26
0.32
0.405
0.5
0.585
0.68
0.75
0.815
0.84
0.815
0.73
0.59
0.435
0.28
0.155
0.06
-0.005
-0.04
-0.055
-0.075
-0.075
-0.07
-0.06
-0.055
-0.04
-0.035
-0.03
-0.035
-0.035
-0.04
-0.05
-0.05
-0.06
-0.055
-0.07
-0.09
-0.095
-0.1
-0.095
-0.095
-0.1
-0.11
-0.115
-0.11
-0.12
-0.11
-0.08
-0.05
-0.04
-0.01
0.04
0.065
0.0
-0.065
-0.08
-0.13
-0.145
-0.14
-0.15
-0.145
-0.155
-0.155
-0.04
0.325
0.75
0.68
-0.435
-1.035
-0.52
-0.195
-0.11
-0.08
-0.055
-0.035
-0.02
-0.01
0.01
0.02
0.045
0.08
0.1
0.13
0.165
0.22
0.28
0.345
0.425
0.49
0.565
0.615
0.63
0.62
0.56
0.455
0.325
0.2
0.1
0.01
-0.05
-0.08
-0.1
-0.11
-0.11
-0.1
-0.105
-0.11
-0.1
-0.1
-0.08
-0.08
-0.075
-0.08
-0.08
-0.08
-0.095
-0.095
-0.115
-0.12
-0.12
-0.13
-0.12
-0.14
-0.14
-0.135
-0.14
-0.14
-0.11
-0.075
-0.06
-0.05
0.005
-0.005
-0.075
-0.115
-0.13
-0.18
-0.175
-0.175
-0.18
-0.18
-0.19
-0.145
0.02
0.465
0.78
0.155
-0.81
-0.79
-0.3
-0.165
-0.115
-0.1
-0.08
-0.075
-0.06
-0.04
-0.025
0.005
0.025
0.05
0.085
0.12
0.175
0.225
0.295
0.375
0.455
0.535
0.61
0.645
0.65
0.605
0.54
0.41
0.28
0.145
0.045
-0.035
-0.07
-0.08
-0.1
-0.11
-0.11
-0.11
-0.11
-0.12
-0.11
-0.11
-0.08
-0.1
-0.08
-0.08
-0.09
-0.1
-0.09
-0.1
-0.105
-0.12
-0.12
-0.13
-0.12
-0.135
-0.13
-0.14
-0.135
-0.11
-0.075
-0.05
-0.03
0.015
0.055
-0.015
-0.06
-0.08
-0.135
-0.175
-0.165
-0.17
-0.17
-0.17
-0.175
-0.08
0.315
0.805
0.74
-0.45
-1.05
-0.5
-0.185
-0.12
-0.095
-0.075
-0.04
-0.025
-0.005
0.005
0.03
0.06
0.085
0.11
0.155
0.21
0.26
0.34
0.42
0.505
0.6
0.685
0.78
0.795
0.77
0.7
0.6
0.44
0.29
0.15
0.05
-0.015
-0.055
-0.075
-0.08
-0.08
-0.08
-0.095
-0.09
-0.08
-0.07
-0.07
-0.065
-0.055
-0.06
-0.06
-0.06
-0.065
-0.075
-0.08
-0.095
-0.105
-0.1
-0.12
-0.115
-0.12
-0.12
-0.12
-0.08
-0.03
-0.02
0.0
0.06
0.08
0.005
-0.065
-0.095
-0.16
-0.17
-0.17
-0.175
-0.18
-0.18
-0.18
-0.03
0.48
0.975
0.56
-0.77
-1.1
-0.4
-0.165
-0.1
-0.08
-0.06
-0.035
-0.025
0.0
0.04
0.04
0.08
0.095
0.14
0.18
0.24
0.295
0.38
0.455
0.56
0.645
0.75
0.795
0.82
0.78
0.71
0.565
0.405
0.25
0.125
0.04
-0.02
-0.055
-0.08
-0.08
-0.08
-0.105
-0.08
-0.095
-0.08
-0.08
-0.07
-0.065
-0.055
-0.065
-0.06
-0.075
-0.07
-0.08
-0.09
-0.095
-0.11
-0.11
-0.115
-0.12
-0.115
-0.11
-0.04
-0.03
-0.02
0.04
0.09
0.01
-0.05
-0.08
-0.13
-0.165
-0.155
-0.175
-0.175
-0.18
-0.18
-0.05
0.36
0.93
0.825
-0.52
-1.19
-0.58
-0.195
-0.12
-0.065
-0.05
-0.02
-0.02
0.0
0.025
0.06
0.08
0.12
0.14
0.2
0.24
0.315
0.365
0.475
0.57
0.67
0.76
0.84
0.86
0.84
0.755
0.62
0.46
0.29
0.145
0.07
-0.015
-0.05
-0.07
-0.075
-0.08
-0.08
-0.08
-0.065
-0.06
-0.04
-0.06
-0.04
-0.05
-0.04
-0.06
-0.055
-0.08
-0.07
-0.11
-0.105
-0.12
-0.12
-0.135
-0.13
-0.13
-0.08
-0.04
-0.02
0.01
0.07
0.03
-0.06
-0.095
-0.135
-0.175
-0.18
-0.19
-0.185
-0.2
-0.185
-0.12
0.145
0.72
1.02
-0.095
-1.195
-0.88
-0.28
-0.165
-0.1
-0.08
-0.055
-0.04
-0.02
-0.01
0.02
0.045
0.09
0.12
0.155
0.21
0.265
0.34
0.44
0.525
0.63
0.725
0.81
0.855
0.86
0.78
0.66
0.5
0.33
0.17
0.065
-0.01
-0.05
-0.08
-0.09
-0.095
-0.095
-0.1
-0.08
-0.08
-0.075
-0.06
-0.06
-0.065
-0.05
-0.07
-0.06
-0.075
-0.09
-0.105
-0.11
-0.115
-0.115
-0.12
-0.12
-0.1
-0.03
-0.02
0.0
0.065
0.1
0.01
-0.06
-0.09
-0.135
-0.165
-0.17
-0.17
-0.17
-0.19
-0.19
-0.06
0.41
0.965
0.795
-0.7
-1.36
-0.65
-0.24
-0.12
-0.08
-0.06
-0.03
-0.015
0.0
0.03
0.055
0.065
0.12
0.14
0.2
0.25
0.32
0.4
0.5
0.59
0.7
0.785
0.87
0.885
0.86
0.75
0.605
0.42
0.25
0.12
0.02
-0.04
-0.06
-0.08
-0.08
-0.1
-0.11
-0.1
-0.07
-0.09
-0.08
-0.07
-0.06
-0.08
-0.07
-0.08
-0.08
-0.08
-0.09
-0.095
-0.115
-0.13
-0.125
-0.12
-0.12
-0.08
-0.04
-0.05
-0.02
0.045
0.05
-0.04
-0.08
-0.11
-0.155
-0.175
-0.175
-0.18
-0.17
-0.175
-0.165
-0.02
0.45
0.9
0.535
-0.74
-1.11
-0.485
-0.2
-0.135
-0.09
-0.07
-0.04
-0.04
-0.02
-0.02
0.01
0.04
0.09
0.11
0.145
0.2
0.26
0.34
0.42
0.49
0.6
0.64
0.69
0.705
0.66
0.565
0.45
0.29
0.165
0.06
-0.02
-0.06
-0.075
-0.1
-0.095
-0.1
-0.105
-0.12
-0.105
-0.1
-0.08
-0.08
-0.08
-0.08
-0.08
-0.1
-0.1
-0.105
-0.115
-0.12
-0.12
-0.135
-0.13
-0.135
-0.14
-0.12
-0.08
-0.08
-0.055
0.005
0.005
-0.07
-0.12
-0.14
-0.17
-0.19
-0.19
-0.2
-0.2
-0.2
-0.18
-0.07
0.34
0.72
0.43
-0.635
-0.945
-0.4
-0.18
-0.14
-0.1
-0.1
-0.08
-0.075
-0.05
-0.04
-0.03
-0.01
0.025
0.045
0.1
0.135
0.185
0.25
0.33
0.4
0.485
0.535
0.585
0.6
0.56
0.475
0.375
0.225
0.12
0.02
-0.05
-0.09
-0.105
-0.12
-0.115
-0.125
-0.125
-0.12
-0.12
-0.11
-0.1
-0.11
-0.1
-0.095
-0.1
-0.11
-0.105
-0.115
-0.12
-0.135
-0.14
-0.15
-0.135
-0.15
-0.15
-0.15
-0.12
-0.08
-0.055
-0.06
0.02
0.04
-0.04
-0.105
-0.105
-0.155
-0.18
-0.19
-0.19
-0.2
-0.18
-0.2
-0.08
0.25
0.7
0.725
-0.355
-0.995
-0.49
-0.2
-0.13
-0.105
-0.08
-0.075
-0.065
-0.055
-0.03
-0.01
0.02
0.045
0.08
0.11
0.16
0.215
0.285
0.345
0.44
0.51
0.6
0.655
0.66
0.63
0.57
0.44
0.335
0.185
0.08
-0.005
-0.055
-0.08
-0.08
-0.11
-0.105
-0.11
-0.11
-0.11
-0.08
-0.08
-0.08
-0.08
-0.075
-0.075
-0.08
-0.08
-0.09
-0.11
-0.11
-0.12
-0.12
-0.13
-0.12
-0.15
-0.145
-0.145
-0.14
-0.15
-0.15
-0.165
-0.15
-0.155
-0.11
-0.07
-0.055
-0.02
0.05
0.005
-0.08
-0.11
-0.14
-0.18
-0.185
-0.19
-0.195
-0.2
-0.195
-0.185
-0.05
0.38
0.76
0.325
-0.72
-0.88
-0.28
-0.135
-0.115
-0.095
-0.08
-0.075
-0.05
-0.03
-0.02
0.005
0.02
0.045
0.08
0.105
0.15
0.205
0.27
0.345
0.44
0.5
0.58
0.62
0.64
0.61
0.55
0.435
0.31
0.185
0.09
-0.01
-0.035
-0.075
-0.08
-0.11
-0.1
-0.11
-0.1
-0.1
-0.09
-0.08
-0.08
-0.08
-0.08
-0.08
-0.08
-0.095
-0.095
-0.105
-0.1
-0.11
-0.115
-0.135
-0.135
-0.135
-0.14
-0.145
-0.15
-0.15
-0.16
-0.165
-0.155
-0.15
-0.15
-0.15
-0.135
-0.14
-0.145
-0.135
-0.08
-0.05
-0.04
0.015
0.095
0.02
-0.08
-0.08
-0.12
-0.17
-0.175
-0.17
-0.18
-0.18
-0.18
-0.155
0.03
0.52
0.85
0.12
-0.945
-0.86
-0.26
-0.135
-0.11
-0.08
-0.065
-0.055
-0.03
-0.03
-0.005
0.01
0.06
0.08
0.1
0.145
0.185
0.25
0.32
0.4
0.485
0.55
0.63
0.685
0.705
0.66
0.58
0.465
0.345
0.21
0.105
0.015
-0.04
-0.08
-0.08
-0.1
-0.105
-0.095
-0.08
-0.08
-0.075
-0.07
-0.05
-0.07
-0.055
-0.075
-0.08
-0.095
-0.1
-0.1
-0.11
-0.12
-0.12
-0.135
-0.14
-0.14
-0.15
-0.16
-0.155
-0.155
-0.155
-0.165
-0.155
-0.165
-0.15
-0.17
-0.165
-0.165
-0.135
-0.09
-0.04
-0.04
0.025
0.09
0.01
-0.095
-0.08
-0.15
-0.19
-0.195
-0.18
-0.2
-0.195
-0.2
-0.13
0.14
0.705
0.925
-0.19
-1.19
-0.82
-0.28
-0.14
-0.1
-0.075
-0.06
-0.04
-0.035
-0.005
0.005
0.04
0.08
0.11
0.135
0.185
0.24
0.305
0.38
0.475
0.56
0.655
0.74
0.78
0.77
0.72
0.61
0.48
0.325
0.185
0.07
-0.015
-0.07
-0.09
-0.11
-0.115
-0.105
-0.09
-0.09
-0.07
-0.07
-0.06
-0.065
-0.065
-0.075
-0.08
-0.095
-0.1
-0.12
-0.13
-0.13
-0.14
-0.15
-0.15
-0.15
-0.155
-0.17
-0.17
-0.17
-0.17
-0.18
-0.185
-0.19
-0.18
-0.185
-0.18
-0.18
-0.15
-0.095
-0.075
-0.06
0.01
0.04
-0.04
-0.13
-0.15
-0.19
-0.23
-0.225
-0.22
-0.235
-0.23
-0.23
-0.095
0.28
0.84
0.82
-0.54
-1.38
-0.82
-0.35
-0.18
-0.14
-0.11
-0.1
-0.07
-0.07
-0.035
-0.01
0.02
0.045
0.085
0.12
0.18
0.24
0.32
0.375
0.475
0.56
0.64
0.69
0.735
0.7
0.635
0.52
0.4
0.24
0.105
0.01
-0.04
-0.1
-0.12
-0.12
-0.12
-0.12
-0.115
-0.12
-0.1
-0.105
-0.095
-0.11
-0.105
-0.12
-0.12
-0.13
-0.135
-0.155
-0.165
-0.17
-0.17
-0.17
-0.18
-0.195
-0.195
-0.2
-0.19
-0.2
-0.2
-0.21
-0.2
-0.21
-0.195
-0.215
-0.2
-0.195
-0.175
-0.13
-0.1
-0.095
-0.035
-0.01
-0.08
-0.165
-0.18
-0.22
-0.235
-0.24
-0.24
-0.24
-0.235
-0.23
-0.115
0.305
0.79
0.61
-0.715
-1.35
-0.71
-0.32
-0.195
-0.15
-0.115
-0.105
-0.08
-0.075
-0.05
-0.04
-0.005
0.02
0.055
0.09
0.145
0.205
0.28
0.35
0.44
0.53
0.61
0.66
0.685
0.655
0.58
0.45
0.32
0.17
0.06
-0.04
-0.09
-0.135
-0.15
-0.165
-0.15
-0.165
-0.165
-0.155
-0.14
-0.145
-0.14
-0.145
-0.15
-0.15
-0.155
-0.165
-0.17
-0.18
-0.19
-0.2
-0.2
-0.2
-0.21
-0.215
-0.22
-0.23
-0.23
-0.225
-0.22
-0.22
-0.22
-0.23
-0.23
-0.23
-0.22
-0.22
-0.215
-0.21
-0.19
-0.15
-0.13
-0.11
-0.05
-0.03
-0.105
-0.17
-0.19
-0.235
-0.24
-0.25
-0.24
-0.26
-0.24
-0.27
-0.145
0.26
0.74
0.56
-0.635
-1.155
-0.56
-0.255
-0.175
-0.155
-0.12
-0.11
-0.09
-0.075
-0.055
-0.05
-0.02
-0.005
0.04
0.08
0.105
0.165
0.24
0.305
0.39
0.475
0.56
0.62
0.66
0.635
0.56
0.46
0.34
0.2
0.08
-0.025
-0.08
-0.13
-0.16
-0.165
-0.165
-0.17
-0.17
-0.165
-0.155
-0.155
-0.145
-0.14
-0.13
-0.14
-0.14
-0.155
-0.14
-0.165
-0.165
-0.18
-0.18
-0.19
-0.19
-0.205
-0.195
-0.21
-0.2
-0.215
-0.21
-0.21
-0.21
-0.215
-0.215
-0.215
-0.215
-0.21
-0.2
-0.215
-0.21
-0.21
-0.165
-0.135
-0.105
-0.08
-0.03
-0.02
-0.1
-0.145
-0.165
-0.215
-0.23
-0.235
-0.235
-0.24
-0.24
-0.24
-0.14
0.22
0.72
0.63
-0.54
-1.15
-0.575
-0.24
-0.165
-0.135
-0.115
-0.11
-0.08
-0.08
-0.04
-0.03
-0.005
0.01
0.045
0.08
0.13
0.175
0.24
0.305
0.38
0.465
0.54
0.6
0.645
0.625
0.58
0.49
0.38
0.23
0.12
0.005
-0.055
-0.09
-0.12
-0.14
-0.14
-0.16
-0.14
-0.15
-0.13
-0.125
-0.12
-0.12
-0.12
-0.115
-0.1
-0.07
-0.04
-0.06
-0.055
-0.06
-0.1
-0.11
-0.105
-0.165
-0.19
-0.2
-0.19
-0.215
-0.2
-0.12
0.32
0.82
0.44
-0.775
-1.0
-0.355
-0.13
-0.115
-0.095
-0.08
-0.065
-0.06
-0.04
-0.03
-0.01
0.02
0.045
0.08
0.13
0.17
0.24
0.29
0.385
0.45
0.54
0.585
0.62
0.605
0.545
0.44
0.315
0.155
0.05
-0.025
-0.08
-0.12
-0.14
-0.15
-0.135
-0.145
-0.14
-0.12
-0.12
-0.12
-0.11
-0.11
-0.11
-0.12
-0.11
-0.12
-0.12
-0.135
-0.13
-0.15
-0.14
-0.15
-0.15
-0.17
-0.16
-0.165
-0.17
-0.175
-0.165
-0.175
-0.18
-0.18
-0.175
-0.18
-0.165
-0.18
-0.165
-0.18
-0.18
-0.18
-0.175
-0.18
-0.17
-0.17
-0.165
-0.17
-0.165
-0.175
-0.17
-0.18
-0.17
-0.175
-0.165
-0.175
-0.165
-0.165
-0.15
-0.11
-0.07
-0.07
-0.01
0.04
0.015
-0.08
-0.095
-0.145
-0.18
-0.175
-0.185
-0.2
-0.195
-0.19
-0.1
0.18
0.7
0.84
-0.255
-1.09
-0.69
-0.255
-0.14
-0.115
-0.08
-0.07
-0.04
-0.04
-0.015
-0.01
0.025
0.04
0.08
0.09
0.14
0.18
0.245
0.305
0.38
0.455
0.545
0.6
0.67
0.665
0.64
0.575
0.495
0.375
0.28
0.155
0.085
0.02
-0.015
-0.04
-0.05
-0.055
-0.05
-0.06
-0.055
-0.05
-0.04
-0.05
-0.04
-0.04
-0.055
-0.06
-0.06
-0.08
-0.08
-0.095
-0.1
-0.115
-0.11
-0.12
-0.11
-0.13
-0.14
-0.14
-0.13
-0.15
-0.14
-0.14
-0.15
-0.14
-0.14
-0.155
-0.15
-0.155
-0.14
-0.14
-0.13
-0.08
-0.04
-0.035
0.02
0.08
0.04
-0.06
-0.07
-0.12
-0.15
-0.155
-0.165
-0.17
-0.175
-0.195
-0.11
0.145
0.735
1.005
-0.08
-1.19
-0.89
-0.31
-0.14
-0.08
-0.05
-0.04
-0.01
-0.005
0.03
0.045
0.085
0.1
0.145
0.17
0.225
0.28
0.345
0.41
0.52
0.6
0.68
0.74
0.795
0.79
0.74
0.635
0.525
0.375
0.25
0.13
0.04
-0.02
-0.04
-0.06
-0.07
-0.06
-0.06
-0.06
-0.05
-0.055
-0.05
-0.04
-0.035
-0.05
-0.05
-0.06
-0.07
-0.075
-0.075
-0.1
-0.1
-0.12
-0.115
-0.12
-0.12
-0.13
-0.12
-0.13
-0.12
-0.13
-0.13
-0.14
-0.13
-0.135
-0.12
-0.13
-0.135
-0.11
-0.055
-0.04
-0.01
0.045
0.055
-0.04
-0.08
-0.115
-0.14
-0.17
-0.165
-0.185
-0.18
-0.18
-0.14
0.04
0.56
1.0
0.405
-0.865
-1.06
-0.445
-0.19
-0.115
-0.055
-0.055
-0.03
-0.02
-0.005
0.01
0.04
0.06
0.1
0.125
0.18
0.215
0.28
0.34
0.42
0.49
0.57
0.63
0.68
0.685
0.65
0.565
0.46
0.33
0.205
0.1
0.02
-0.04
-0.065
-0.095
-0.08
-0.08
-0.075
-0.095
-0.06
-0.065
-0.055
-0.05
-0.05
-0.06
-0.07
-0.08
-0.07
-0.09
-0.08
-0.11
-0.11
-0.12
-0.12
-0.13
-0.135
-0.135
-0.13
-0.15
-0.135
-0.15
-0.15
-0.155
-0.14
-0.15
-0.125
-0.11
-0.065
-0.07
-0.03
0.03
0.02
-0.075
-0.095
-0.14
-0.17
-0.18
-0.165
-0.185
-0.175
-0.18
-0.12
0.09
0.615
0.9
0.04
-0.98
-0.795
-0.285
-0.15
-0.115
-0.08
-0.065
-0.04
-0.04
-0.005
-0.005
0.04
0.04
0.09
0.12
0.165
0.21
0.27
0.33
0.42
0.485
0.57
0.645
0.69
0.685
0.64
0.56
0.445
0.3
0.18
0.065
-0.005
-0.06
-0.07
-0.1
-0.1
-0.11
-0.08
-0.1
-0.085
-0.08
-0.075
-0.065
-0.055
-0.06
-0.055
-0.075
-0.055
-0.08
-0.07
-0.1
-0.1
-0.115
-0.1
-0.12
-0.11
-0.135
-0.12
-0.12
-0.12
-0.14
-0.13
-0.135
-0.13
-0.14
-0.14
-0.135
-0.13
-0.11
-0.04
-0.04
-0.015
0.03
0.08
-0.015
-0.06
-0.095
-0.135
-0.17
-0.145
-0.175
-0.165
-0.18
-0.17
-0.06
0.365
0.87
0.75
-0.535
-1.11
-0.515
-0.17
-0.1
-0.06
-0.055
-0.03
-0.02
0.02
0.015
0.055
0.065
0.11
0.12
0.175
0.21
0.28
0.34
0.42
0.495
0.605
0.68
0.76
0.78
0.765
0.685
0.6
0.46
0.3
0.165
0.08
-0.005
-0.035
-0.075
-0.08
-0.08
-0.08
-0.08
-0.065
-0.08
-0.06
-0.06
-0.035
-0.06
-0.04
-0.05
-0.05
-0.06
-0.06
-0.08
-0.08
-0.095
-0.1
-0.11
-0.11
-0.115
-0.105
-0.12
-0.11
-0.12
-0.13
-0.12
-0.115
-0.13
-0.12
-0.14
-0.13
-0.14
-0.13
-0.14
-0.135
-0.12
-0.08
-0.04
-0.02
0.005
0.085
0.04
-0.04
-0.075
-0.12
-0.165
-0.155
-0.17
-0.165
-0.165
-0.175
-0.17
0.01
0.535
0.98
0.36
-0.88
-1.025
-0.36
-0.15
-0.08
-0.055
-0.03
-0.02
0.015
0.02
0.05
0.05
0.095
0.11
0.15
0.18
0.24
0.28
0.37
0.44
0.54
0.63
0.705
0.745
0.795
0.76
0.685
0.57
0.445
0.28
0.155
0.065
0.005
-0.045
-0.055
-0.08
-0.07
-0.08
-0.06
-0.07
-0.06
-0.05
-0.04
-0.05
-0.035
-0.04
-0.03
-0.065
-0.06
-0.08
-0.08
-0.1
-0.1
-0.12
-0.105
-0.12
-0.12
-0.13
-0.12
-0.135
-0.12
-0.14
-0.135
-0.15
-0.135
-0.155
-0.15
-0.16
-0.15
-0.16
-0.145
-0.155
-0.15
-0.145
-0.095
-0.065
-0.04
-0.02
0.06
0.02
-0.055
-0.11
-0.145
-0.195
-0.18
-0.195
-0.185
-0.2
-0.2
-0.195
-0.04
0.44
0.935
0.495
-0.795
-1.14
-0.47
-0.21
-0.135
-0.11
-0.08
-0.07
-0.05
-0.04
-0.015
-0.005
0.03
0.05
0.1
0.12
0.17
0.22
0.305
0.365
0.46
0.535
0.63
0.67
0.705
0.68
0.63
0.505
0.38
0.22
0.1
-0.01
-0.07
-0.125
-0.14
-0.165
-0.155
-0.175
-0.165
-0.16
-0.14
-0.14
-0.13
-0.12
-0.12
-0.145
-0.14
-0.165
-0.165
-0.18
-0.18
-0.2
-0.2
-0.215
-0.215
-0.23
-0.22
-0.24
-0.22
-0.24
-0.24
-0.25
-0.24
-0.265
-0.255
-0.26
-0.255
-0.275
-0.27
-0.28
-0.26
-0.27
-0.22
-0.185
-0.16
-0.145
-0.075
-0.08
-0.14
-0.21
-0.22
-0.28
-0.29
-0.305
-0.3
-0.32
-0.32
-0.33
-0.22
0.11
0.68
0.74
-0.495
-1.315
-0.81
-0.38
-0.255
-0.235
-0.195
-0.185
-0.15
-0.155
-0.13
-0.12
-0.095
-0.075
-0.025
-0.005
0.055
0.09
0.17
0.24
0.33
0.42
0.505
0.565
0.61
0.605
0.565
0.465
0.34
0.18
0.05
-0.07
-0.12
-0.195
-0.22
-0.24
-0.24
-0.255
-0.24
-0.24
-0.225
-0.24
-0.22
-0.225
-0.21
-0.22
-0.21
-0.23
-0.22
-0.24
-0.24
-0.28
-0.28
-0.285
-0.275
-0.3
-0.28
-0.3
-0.295
-0.305
-0.28
-0.305
-0.28
-0.3
-0.295
-0.315
-0.3
-0.31
-0.295
-0.3
-0.3
-0.31
-0.265
-0.225
-0.18
-0.18
-0.115
-0.08
-0.15
-0.225
-0.235
-0.295
-0.31
-0.32
-0.32
-0.33
-0.315
-0.34
-0.24
0.065
0.645
0.77
-0.4
-1.315
-0.86
-0.39
-0.27
-0.22
-0.19
-0.185
-0.165
-0.15
-0.12
-0.11
-0.075
-0.06
-0.015
0.005
0.08
0.12
0.18
0.25
0.35
0.44
0.53
0.59
0.655
0.64
0.605
0.5
0.4
0.24
0.1
-0.03
-0.095
-0.155
-0.175
-0.21
-0.21
-0.21
-0.2
-0.2
-0.2
-0.195
-0.18
-0.18
-0.16
-0.18
-0.17
-0.185
-0.19
-0.195
-0.2
-0.215
-0.2
-0.23
-0.22
-0.24
-0.22
-0.255
-0.235
-0.26
-0.24
-0.24
-0.235
-0.24
-0.235
-0.26
-0.24
-0.25
-0.24
-0.255
-0.235
-0.24
-0.22
-0.185
-0.13
-0.13
-0.08
-0.035
-0.06
-0.14
-0.165
-0.215
-0.24
-0.255
-0.24
-0.26
-0.26
-0.26
-0.22
-0.065
0.505
0.9
0.205
-1.065
-1.125
-0.485
-0.235
-0.175
-0.12
-0.12
-0.095
-0.08
-0.055
-0.04
0.0
0.02
0.06
0.1
0.14
0.18
0.26
0.33
0.425
0.51
0.605
0.695
0.76
0.765
0.745
0.645
0.54
0.385
0.27
0.1
0.02
-0.06
-0.09
-0.115
-0.12
-0.14
-0.12
-0.14
-0.11
-0.11
-0.095
-0.11
-0.095
-0.1
-0.08
-0.105
-0.11
-0.13
-0.14
-0.16
-0.15
-0.155
-0.16
-0.17
-0.165
-0.175
-0.165
-0.18
-0.175
-0.18
-0.175
-0.19
-0.17
-0.18
-0.17
-0.18
-0.17
-0.185
-0.165
-0.165
-0.1
-0.08
-0.04
-0.005
0.06
-0.025
-0.095
-0.135
-0.165
-0.195
-0.18
-0.2
-0.2
-0.23
-0.215
-0.145
0.12
0.665
0.945
-0.12
-1.17
-0.905
-0.315
-0.165
-0.105
-0.08
-0.055
-0.055
-0.03
-0.015
0.02
0.03
0.08
0.1
0.14
0.165
0.24
0.29
0.385
0.46
0.56
0.635
0.73
0.77
0.785
0.72
0.645
0.5
0.38
0.24
0.12
0.025
-0.02
-0.065
-0.075
-0.1
-0.08
-0.09
-0.08
-0.08
-0.06
-0.07
-0.05
-0.06
-0.055
-0.07
-0.055
-0.07
-0.065
-0.09
-0.095
-0.1
-0.1
-0.12
-0.11
-0.13
-0.12
-0.14
-0.12
-0.14
-0.12
-0.135
-0.12
-0.14
-0.135
-0.13
-0.12
-0.135
-0.13
-0.135
-0.115
-0.08
-0.025
-0.03
0.02
0.08
0.06
-0.04
-0.06
-0.11
-0.15
-0.165
-0.14
-0.165
-0.16
-0.17
-0.135
0.035
0.58
0.98
0.315
-0.935
-1.01
-0.37
-0.15
-0.095
-0.055
-0.04
-0.01
-0.015
0.02
0.04
0.08
0.085
0.12
0.145
0.2
0.24
0.315
0.37
0.465
0.535
0.65
0.725
0.79
0.805
0.78
0.69
0.6
0.44
0.305
0.165
0.09
0.005
-0.015
-0.06
-0.055
-0.08
-0.07
-0.07
-0.045
-0.065
-0.04
-0.04
-0.03
-0.04
-0.025
-0.04
-0.04
-0.06
-0.06
-0.07
-0.075
-0.09
-0.08
-0.105
-0.11
-0.105
-0.095
-0.115
-0.105
-0.12
-0.11
-0.12
-0.11
-0.12
-0.115
-0.13
-0.11
-0.115
-0.11
-0.13
-0.09
-0.04
-0.01
0.005
0.08
0.095
0.03
-0.05
-0.06
-0.12
-0.13
-0.14
-0.13
-0.15
-0.14
-0.15
-0.045
0.28
0.845
0.9
-0.295
-1.15
-0.65
-0.2
-0.08
-0.05
-0.005
-0.01
0.02
0.025
0.055
0.08
0.11
0.12
0.165
0.19
0.25
0.28
0.38
0.44
0.54
0.625
0.72
0.785
0.84
0.815
0.78
0.67
0.56
0.405
0.27
0.155
0.08
0.01
-0.02
-0.04
-0.055
-0.05
-0.025
-0.04
-0.02
-0.02
-0.015
-0.02
-0.005
-0.03
-0.02
-0.03
-0.03
-0.055
-0.04
-0.055
-0.06
-0.08
-0.08
-0.08
-0.08
-0.1
-0.095
-0.095
-0.08
-0.1
-0.1
-0.11
-0.1
-0.11
-0.105
-0.115
-0.105
-0.12
-0.09
-0.06
-0.015
-0.01
0.045
0.095
0.08
-0.02
-0.04
-0.095
-0.12
-0.12
-0.13
-0.14
-0.14
-0.155
-0.1
0.09
0.665
1.04
0.24
-0.975
-0.94
-0.32
-0.105
-0.07
-0.02
-0.015
0.02
0.02
0.045
0.06
0.09
0.105
0.145
0.2
0.225
0.265
0.345
0.405
0.505
0.575
0.68
0.745
0.815
0.815
0.795
0.705
0.6
0.445
0.325
0.19
0.11
0.03
-0.005
-0.035
-0.03
-0.04
-0.02
-0.03
-0.015
-0.02
-0.01
-0.02
0.005
-0.005
0.0
-0.015
-0.005
-0.04
-0.03
-0.05
-0.055
-0.07
-0.07
-0.08
-0.06
-0.08
-0.08
-0.1
-0.095
-0.105
-0.095
-0.11
-0.1
-0.105
-0.095
-0.1
-0.09
-0.08
-0.03
-0.015
0.01
0.07
0.12
0.04
-0.02
-0.06
-0.11
-0.14
-0.135
-0.135
-0.145
-0.155
-0.14
-0.04
0.29
0.865
1.04
-0.215
-1.215
-0.825
-0.26
-0.1
-0.04
-0.025
0.015
0.02
0.04
0.04
0.09
0.1
0.15
0.17
0.22
0.265
0.335
0.39
0.5
0.57
0.68
0.76
0.86
0.88
0.895
0.825
0.73
0.58
0.44
0.26
0.16
0.065
0.01
-0.035
-0.03
-0.05
-0.04
-0.06
-0.025
-0.035
-0.02
-0.025
-0.01
-0.02
-0.01
-0.04
-0.03
-0.05
-0.04
-0.065
-0.06
-0.075
-0.075
-0.08
-0.08
-0.1
-0.09
-0.11
-0.1
-0.11
-0.11
-0.115
-0.08
-0.11
-0.095
-0.075
0.0
-0.005
0.02
0.08
0.12
0.02
-0.04
-0.075
-0.105
-0.145
-0.13
-0.145
-0.13
-0.165
-0.135
-0.03
0.35
0.93
1.01
-0.34
-1.26
-0.775
-0.255
-0.105
-0.04
-0.015
0.015
0.01
0.045
0.04
0.085
0.1
0.14
0.155
0.22
0.25
0.325
0.385
0.47
0.56
0.665
0.735
0.82
0.85
0.83
0.76
0.66
0.5
0.37
0.21
0.125
0.04
0.0
-0.04
-0.04
-0.06
-0.04
-0.05
-0.02
-0.035
-0.02
-0.025
-0.015
-0.03
-0.02
-0.03
-0.03
-0.05
-0.035
-0.06
-0.06
-0.08
-0.08
-0.1
-0.1
-0.11
-0.11
-0.12
-0.12
-0.135
-0.115
-0.12
-0.11
-0.135
-0.115
-0.08
-0.02
-0.015
0.04
0.09
0.06
-0.05
-0.055
-0.11
-0.13
-0.165
-0.15
-0.16
-0.155
-0.175
-0.13
0.05
0.625
0.99
0.25
-0.99
-0.98
-0.335
-0.135
-0.08
-0.05
-0.04
-0.005
-0.005
0.025
0.04
0.065
0.08
0.13
0.155
0.205
0.245
0.32
0.375
0.475
0.56
0.66
0.74
0.81
0.815
0.77
0.68
0.56
0.42
0.27
0.14
0.05
-0.03
-0.055
-0.08
-0.08
-0.08
-0.08
-0.095
-0.08
-0.08
-0.07
-0.07
-0.07
-0.08
-0.065
-0.075
-0.075
-0.08
-0.09
-0.095
-0.095
-0.115
-0.12
-0.135
-0.13
-0.155
-0.13
-0.15
-0.135
-0.15
-0.14
-0.15
-0.135
-0.15
-0.12
-0.09
-0.04
-0.035
0.04
0.08
0.02
-0.075
-0.09
-0.155
-0.175
-0.18
-0.17
-0.2
-0.18
-0.19
-0.115
0.145
0.72
0.95
-0.12
-1.16
-0.825
-0.265
-0.11
-0.095
-0.055
-0.05
-0.025
-0.02
0.02
0.02
0.05
0.08
0.12
0.15
0.2
0.24
0.32
0.385
0.475
0.56
0.65
0.74
0.795
0.78
0.75
0.635
0.51
0.36
0.23
0.09
0.04
-0.05
-0.07
-0.09
-0.095
-0.11
-0.095
-0.105
-0.09
-0.1
-0.07
-0.09
-0.06
-0.09
-0.08
-0.1
-0.08
-0.105
-0.1
-0.12
-0.12
-0.13
-0.135
-0.16
-0.145
-0.16
-0.15
-0.165
-0.15
-0.165
-0.155
-0.18
-0.155
-0.175
-0.13
-0.08
-0.055
-0.055
0.02
0.04
-0.02
-0.08
-0.11
-0.18
-0.185
-0.185
-0.18
-0.2
-0.19
-0.2
-0.105
0.205
0.79
0.89
-0.325
-1.23
-0.745
-0.26
-0.13
-0.11
-0.075
-0.07
-0.04
-0.035
0.005
0.005
0.04
0.06
0.11
0.13
0.19
0.225
0.32
0.37
0.47
0.56
0.66
0.725
0.77
0.76
0.72
0.6
0.485
0.32
0.2
0.08
-0.005
-0.055
-0.075
-0.115
-0.11
-0.12
-0.105
-0.1
-0.08
-0.095
-0.08
-0.08
-0.07
-0.08
-0.075
-0.1
-0.09
-0.115
-0.11
-0.13
-0.13
-0.155
-0.145
-0.165
-0.14
-0.16
-0.155
-0.17
-0.165
-0.165
-0.16
-0.165
-0.15
-0.13
-0.065
-0.06
-0.015
0.04
0.03
-0.07
-0.08
-0.145
-0.18
-0.195
-0.19
-0.205
-0.2
-0.22
-0.195
-0.055
0.47
0.945
0.52
-0.835
-1.15
-0.48
-0.185
-0.12
-0.08
-0.08
-0.04
-0.05
-0.01
-0.005
0.04
0.05
0.09
0.11
0.165
0.205
0.285
0.34
0.44
0.51
0.615
0.68
0.76
0.765
0.76
0.665
0.565
0.41
0.28
0.14
0.045
-0.04
-0.06
-0.095
-0.08
-0.105
-0.095
-0.1
-0.07
-0.08
-0.065
-0.07
-0.06
-0.06
-0.055
-0.075
-0.075
-0.095
-0.1
-0.11
-0.12
-0.12
-0.11
-0.13
-0.14
-0.145
-0.13
-0.14
-0.14
-0.155
-0.14
-0.12
-0.055
-0.04
-0.02
0.025
0.08
0.005
-0.07
-0.1
-0.145
-0.17
-0.165
-0.19
-0.175
-0.185
-0.19
-0.09
0.25
0.84
0.98
-0.32
-1.305
-0.895
-0.325
-0.15
-0.09
-0.07
-0.04
-0.025
0.005
0.005
0.045
0.06
0.105
0.13
0.19
0.225
0.305
0.37
0.465
0.55
0.67
0.745
0.825
0.87
0.865
0.785
0.69
0.52
0.36
0.2
0.095
0.005
-0.04
-0.08
-0.075
-0.095
-0.08
-0.08
-0.08
-0.08
-0.06
-0.06
-0.055
-0.06
-0.06
-0.07
-0.06
-0.08
-0.08
-0.105
-0.105
-0.115
-0.12
-0.135
-0.12
-0.135
-0.12
-0.14
-0.13
-0.13
-0.115
-0.075
-0.04
-0.03
0.04
0.08
0.02
-0.075
-0.1
-0.15
-0.165
-0.19
-0.18
-0.185
-0.18
-0.19
-0.075
0.25
0.84
0.98
-0.32
-1.355
-0.895
-0.35
-0.15
-0.1
-0.035
-0.03
-0.005
0.005
0.03
0.05
0.08
0.1
0.14
0.18
0.23
0.29
0.36
0.43
0.53
0.605
0.705
0.76
0.81
0.77
0.7
0.58
0.46
0.295
0.17
0.06
0.005
-0.05
-0.06
-0.07
-0.06
-0.07
-0.075
-0.055
-0.04
-0.055
-0.04
-0.04
-0.04
-0.05
-0.06
-0.06
-0.07
-0.08
-0.08
-0.095
-0.1
-0.11
-0.115
-0.12
-0.12
-0.13
-0.13
-0.13
-0.12
-0.11
-0.05
-0.04
-0.04
0.025
0.04
-0.04
-0.08
-0.1
-0.14
-0.17
-0.155
-0.18
-0.175
-0.18
-0.165
-0.06
0.3
0.705
0.65
-0.43
-0.995
-0.52
-0.2
-0.12
-0.08
-0.07
-0.06
-0.055
-0.04
-0.025
-0.005
0.02
0.045
0.08
0.1
0.145
0.185
0.24
0.305
0.38
0.45
0.5
0.56
0.57
0.55
0.475
0.4
0.28
0.175
0.07
0.0
-0.055
-0.08
-0.105
-0.11
-0.115
-0.105
-0.115
-0.1
-0.1
-0.1
-0.11
-0.095
-0.1
-0.095
-0.11
-0.1
-0.11
-0.1
-0.115
-0.12
-0.13
-0.13
-0.14
-0.14
-0.155
-0.14
-0.11
-0.07
-0.08
-0.04
0.005
-0.025
-0.08
-0.11
-0.14
-0.18
-0.18
-0.18
-0.18
-0.175
-0.19
-0.11
0.12
0.53
0.68
-0.14
-0.88
-0.61
-0.235
-0.14
-0.12
-0.1
-0.1
-0.07
-0.06
-0.05
-0.035
-0.01
0.01
0.04
0.06
0.1
0.145
0.21
0.26
0.34
0.41
0.48
0.545
0.585
0.56
0.52
0.42
0.3
0.18
0.08
-0.02
-0.07
-0.1
-0.11
-0.12
-0.125
-0.13
-0.12
-0.14
-0.13
-0.12
-0.11
-0.12
-0.12
-0.115
-0.115
-0.12
-0.12
-0.13
-0.135
-0.15
-0.14
-0.155
-0.155
-0.165
-0.165
-0.14
-0.095
-0.09
-0.08
-0.02
0.005
-0.07
-0.1
-0.13
-0.175
-0.2
-0.2
-0.2
-0.2
-0.21
-0.2
-0.09
0.305
0.73
0.56
-0.54
-0.965
-0.445
-0.2
-0.16
-0.115
-0.115
-0.08
-0.08
-0.07
-0.055
-0.035
-0.015
0.025
0.06
0.1
0.145
0.2
0.26
0.34
0.42
0.505
0.575
0.64
0.645
0.625
0.545
0.44
0.295
0.165
0.045
-0.03
-0.08
-0.11
-0.11
-0.12
-0.12
-0.12
-0.135
-0.13
-0.12
-0.12
-0.11
-0.105
-0.11
-0.1
-0.115
-0.11
-0.12
-0.115
-0.135
-0.135
-0.14
-0.135
-0.15
-0.14
-0.135
-0.075
-0.07
-0.05
0.005
0.045
-0.03
-0.07
-0.11
-0.165
-0.185
-0.18
-0.195
-0.195
-0.195
-0.195
-0.08
0.335
0.84
0.74
-0.51
-1.095
-0.505
-0.19
-0.115
-0.095
-0.075
-0.055
-0.04
-0.03
-0.01
0.02
0.04
0.07
0.1
0.15
0.21
0.26
0.33
0.42
0.5
0.6
0.69
0.76
0.78
0.765
0.67
0.56
0.41
0.245
0.1
0.02
-0.05
-0.075
-0.1
-0.1
-0.115
-0.11
-0.12
-0.11
-0.105
-0.095
-0.095
-0.08
-0.08
-0.075
-0.08
-0.08
-0.095
-0.1
-0.115
-0.11
-0.13
-0.13
-0.125
-0.135
-0.11
-0.05
-0.04
-0.03
0.025
0.07
-0.015
-0.08
-0.11
-0.155
-0.175
-0.17
-0.19
-0.195
-0.19
-0.19
-0.075
0.325
0.88
0.89
-0.43
-1.24
-0.695
-0.255
-0.15
-0.08
-0.075
-0.055
-0.04
-0.01
0.01
0.02
0.055
0.09
0.115
0.16
0.205
0.265
0.33
0.42
0.5
0.6
0.68
0.745
0.77
0.76
0.66
0.55
0.38
0.21
0.08
0.015
-0.06
-0.07
-0.09
-0.095
-0.105
-0.1
-0.11
-0.095
-0.095
-0.095
-0.1
-0.09
-0.09
-0.08
-0.105
-0.095
-0.115
-0.115
-0.12
-0.115
-0.12
-0.135
-0.14
-0.14
-0.15
-0.11
-0.08
-0.06
-0.045
0.025
0.02
-0.055
-0.095
-0.12
-0.165
-0.175
-0.18
-0.19
-0.2
-0.175
-0.165
-0.03
0.39
0.77
0.385
-0.68
-0.935
-0.36
-0.165
-0.12
-0.08
-0.07
