signal
1.16
2.12
1.53
0.41
0.17
0.125
0.125
0.135
0.13
0.15
0.14
0.15
0.15
0.16
0.155
0.19
0.185
0.22
0.225
0.265
0.28
0.32
0.36
0.43
0.475
0.545
0.58
0.625
0.615
0.59
0.49
0.405
0.31
0.265
0.22
0.205
0.185
0.175
0.155
0.145
0.13
0.135
0.12
0.13
0.115
0.13
0.12
0.15
0.14
0.155
0.145
0.155
0.15
0.185
0.2
0.22
0.27
0.4
0.4
0.34
0.26
0.14
0.145
0.22
0.045
-0.01
0.08
-0.185
-0.08
0.5
1.105
2.15
1.65
0.35
0.04
0.24
0.265
0.09
0.04
0.01
0.13
0.245
0.085
0.2
0.245
0.01
0.14
0.24
0.265
0.405
0.36
0.425
0.24
0.25
0.625
0.745
0.745
0.77
0.685
0.59
0.36
0.28
0.17
0.345
0.475
0.23
0.21
0.125
0.13
0.155
0.15
0.155
0.12
0.13
0.125
0.125
0.14
0.165
0.15
-0.13
-0.035
0.315
0.31
0.29
0.295
0.27
0.36
0.215
0.03
-0.395
-0.32
0.805
0.88
0.35
0.21
0.14
0.135
0.07
0.21
0.975
2.025
1.665
0.16
0.015
0.425
0.225
0.14
0.06
-0.04
0.195
-0.07
-0.095
0.265
0.425
0.44
-0.12
-0.01
-0.03
0.28
0.895
0.57
0.47
0.54
0.57
0.635
0.215
0.48
1.15
0.925
0.56
0.485
0.37
0.325
0.27
0.25
0.225
0.205
0.2
0.2
0.21
0.18
0.145
0.15
0.165
0.2
0.12
0.2
0.3
0.2
0.205
0.2
0.205
0.22
0.24
0.24
0.33
0.405
0.38
0.35
0.315
0.205
0.155
0.145
0.13
0.12
0.095
0.05
0.005
0.4
1.465
2.365
1.525
0.29
0.155
0.08
0.09
0.1
0.09
0.1
0.105
0.12
0.13
0.13
0.145
0.14
0.165
0.17
0.21
0.225
0.255
0.295
0.345
0.425
0.49
0.55
0.61
0.63
0.615
0.57
0.465
0.365
0.26
0.165
0.19
0.13
0.09
0.09
0.08
0.07
0.09
0.12
0.04
-0.035
0.02
0.04
0.045
0.05
0.07
0.09
0.08
0.08
0.09
0.085
0.11
0.12
0.155
0.27
0.295
0.24
0.22
0.135
0.06
0.055
0.04
0.02
0.005
0.005
-0.065
0.12
0.845
1.82
1.4
0.24
-0.05
-0.015
-0.005
0.02
0.015
0.02
0.02
0.03
0.04
0.04
0.05
0.06
0.08
0.08
0.1
0.12
0.16
0.19
0.25
0.3
0.34
0.4
0.43
0.465
0.465
0.42
0.315
0.225
0.165
0.1
0.05
0.045
0.025
0.01
0.015
-0.005
-0.03
-0.025
-0.035
-0.035
-0.02
-0.02
-0.02
-0.015
-0.015
-0.01
-0.005
-0.02
-0.02
-0.025
0.005
0.025
0.04
0.055
0.145
0.17
0.135
0.125
0.03
-0.04
-0.03
-0.02
-0.04
-0.07
-0.08
-0.135
0.04
0.65
1.41
0.99
0.025
-0.12
-0.06
-0.075
-0.075
-0.075
-0.04
-0.04
-0.065
-0.06
-0.08
-0.04
-0.03
-0.03
-0.03
0.0
0.03
0.06
0.1
0.135
0.155
0.205
0.25
0.3
0.32
0.31
0.295
0.225
0.145
0.08
0.025
0.0
-0.015
-0.03
-0.035
-0.04
-0.05
-0.065
-0.08
-0.075
-0.06
-0.07
-0.06
-0.04
-0.05
-0.035
-0.04
-0.035
-0.025
-0.04
-0.04
-0.03
-0.04
-0.03
-0.015
0.015
0.025
0.09
0.185
0.185
0.145
0.115
0.025
-0.035
-0.03
-0.055
-0.06
-0.07
-0.095
-0.12
0.19
0.96
1.61
0.965
0.05
-0.03
-0.07
-0.055
-0.04
-0.06
-0.04
-0.035
-0.03
-0.02
-0.015
-0.005
0.005
0.02
0.04
0.055
0.08
0.1
0.14
0.165
0.22
0.27
0.32
0.36
0.4
0.4
0.375
0.29
0.21
0.155
0.11
0.07
0.06
0.04
0.02
0.005
0.005
-0.01
-0.03
-0.02
-0.01
-0.01
0.005
0.015
0.03
0.025
0.03
0.04
0.04
0.03
0.025
0.025
0.03
0.025
0.025
0.025
0.03
0.04
0.08
0.095
0.12
0.245
0.305
0.25
0.23
0.155
0.065
0.04
0.04
0.005
-0.01
-0.015
-0.08
-0.04
0.545
1.605
1.9
0.88
0.1
0.045
-0.02
-0.005
-0.005
0.005
0.01
0.015
0.02
0.04
0.04
0.05
0.065
0.08
0.09
0.12
0.135
0.16
0.205
0.245
0.32
0.36
0.41
0.445
0.48
0.475
0.44
0.365
0.285
0.215
0.155
0.12
0.1
0.08
0.07
0.05
0.04
0.03
0.02
0.02
0.025
0.03
0.03
0.035
0.05
0.05
0.06
0.045
0.045
0.04
0.05
0.03
0.025
0.04
0.04
0.02
0.02
0.02
0.01
0.02
0.02
0.025
0.06
0.07
0.09
0.22
0.32
0.26
0.225
0.145
0.04
-0.005
-0.015
-0.04
-0.06
-0.08
-0.13
-0.18
0.25
1.27
1.965
1.065
-0.02
-0.08
-0.145
-0.12
-0.115
-0.12
-0.12
-0.12
-0.115
-0.1
-0.11
-0.1
-0.08
-0.075
-0.065
-0.04
-0.025
-0.005
0.03
0.06
0.1
0.155
0.185
0.24
0.26
0.265
0.24
0.205
0.12
0.04
-0.035
-0.08
-0.115
-0.135
-0.17
-0.18
-0.195
-0.2
-0.2
-0.2
-0.215
-0.19
-0.2
-0.195
-0.19
-0.2
-0.2
-0.21
-0.215
-0.23
-0.235
-0.24
-0.24
-0.24
-0.24
-0.255
-0.255
-0.27
-0.265
-0.275
-0.28
-0.28
-0.28
-0.295
-0.28
-0.295
-0.28
-0.255
-0.24
-0.235
-0.12
-0.005
-0.03
-0.075
-0.12
-0.255
-0.3
-0.295
-0.32
-0.34
-0.36
-0.39
-0.47
-0.135
0.805
1.69
0.92
-0.27
-0.38
-0.42
-0.39
-0.37
-0.37
-0.36
-0.35
-0.35
-0.345
-0.32
-0.33
-0.31
-0.29
-0.29
-0.26
-0.24
-0.23
-0.195
-0.165
-0.12
-0.075
-0.035
0.01
0.03
0.045
0.04
0.0
-0.065
-0.135
-0.21
-0.265
-0.3
-0.33
-0.35
-0.36
-0.36
-0.36
-0.35
-0.35
-0.33
-0.33
-0.33
-0.31
-0.315
-0.315
-0.32
-0.32
-0.33
-0.335
-0.335
-0.34
-0.34
-0.345
-0.355
-0.355
-0.35
-0.35
-0.35
-0.345
-0.345
-0.35
-0.35
-0.34
-0.345
-0.35
-0.34
-0.32
-0.335
-0.315
-0.27
-0.27
-0.23
-0.09
-0.025
-0.075
-0.1
-0.195
-0.28
-0.3
-0.31
-0.33
-0.34
-0.345
-0.43
-0.4
0.18
1.24
1.46
0.36
-0.435
-0.39
-0.4
-0.35
-0.335
-0.34
-0.305
-0.31
-0.295
-0.28
-0.27
-0.27
-0.24
-0.23
-0.21
-0.185
-0.15
-0.12
-0.1
-0.06
-0.02
0.04
0.085
0.11
0.13
0.14
0.125
0.08
0.01
-0.07
-0.13
-0.175
-0.22
-0.24
-0.26
-0.26
-0.25
-0.24
-0.235
-0.23
-0.225
-0.2
-0.2
-0.21
-0.2
-0.2
-0.21
-0.2
-0.215
-0.23
-0.215
-0.22
-0.22
-0.22
-0.22
-0.225
-0.215
-0.22
-0.21
-0.2
-0.215
-0.215
-0.2
-0.21
-0.2
-0.2
-0.2
-0.2
-0.195
-0.18
-0.15
-0.135
-0.08
0.045
0.08
0.04
0.005
-0.08
-0.165
-0.165
-0.17
-0.19
-0.2
-0.21
-0.29
-0.165
0.51
1.52
1.265
0.155
-0.295
-0.24
-0.24
-0.195
-0.175
-0.17
-0.15
-0.15
-0.135
-0.12
-0.115
-0.1
-0.08
-0.06
-0.055
-0.03
-0.005
0.025
0.05
0.095
0.135
0.175
0.21
0.23
0.26
0.26
0.25
0.21
0.14
0.08
0.02
-0.04
-0.075
-0.075
-0.11
-0.1
-0.095
-0.08
-0.075
-0.065
-0.05
-0.05
-0.04
-0.04
-0.03
-0.03
-0.04
-0.03
-0.04
-0.04
-0.04
-0.05
-0.055
-0.05
-0.055
-0.05
-0.05
-0.05
-0.04
-0.04
-0.04
-0.02
-0.04
-0.025
-0.03
-0.02
-0.03
-0.03
-0.02
-0.02
-0.01
-0.01
0.01
0.04
0.065
0.09
0.225
0.305
0.26
0.24
0.14
0.04
0.025
0.02
0.005
-0.01
-0.02
-0.08
-0.08
0.445
1.48
1.97
0.97
0.01
0.0
-0.04
-0.01
0.01
0.01
0.02
0.04
0.045
0.045
0.06
0.06
0.08
0.085
0.11
0.12
0.14
0.15
0.175
0.2
0.24
0.265
0.31
0.325
0.35
0.365
0.36
0.33
0.265
0.18
0.1
0.04
-0.015
-0.06
-0.095
-0.12
-0.145
-0.165
-0.18
-0.18
-0.19
-0.2
-0.215
-0.23
-0.24
-0.26
-0.29
-0.31
-0.32
-0.36
-0.39
-0.42
-0.44
-0.47
-0.5
-0.52
-0.54
-0.56
-0.6
-0.63
-0.65
-0.68
-0.71
-0.74
-0.77
-0.8
-0.83
-0.85
-0.87
-0.905
-0.935
-0.965
-0.985
-1.01
-1.01
-1.025
-1.04
-0.96
-0.89
-0.95
-1.01
-1.115
-1.255
-1.34
-1.36
-1.42
-1.46
-1.515
-1.58
-1.675
-1.35
-0.46
0.365
-0.44
-1.64
-1.79
-1.84
-1.84
-1.85
-1.875
-1.885
-1.91
-1.925
-1.945
-1.97
-1.975
-1.985
-2.0
-2.0
-2.02
-2.02
-2.03
-2.035
-2.03
-2.015
-2.015
-1.995
-1.98
-1.98
-1.98
-1.98
-2.02
-2.085
-2.18
-2.265
-2.34
-2.405
-2.445
-2.48
-2.51
-2.525
-2.555
-2.565
-2.57
-2.57
-2.575
-2.575
-2.585
-2.595
-2.595
-2.6
-2.615
-2.62
-2.63
-2.64
-2.65
-2.655
-2.66
-2.665
-2.67
-2.68
-2.685
-2.675
-2.69
-2.69
-2.68
-2.68
-2.69
-2.68
-2.665
-2.67
-2.675
-2.665
-2.655
-2.64
-2.64
-2.635
-2.635
-2.615
-2.59
-2.55
-2.525
-2.465
-2.345
-2.295
-2.32
-2.335
-2.425
-2.5
-2.505
-2.49
-2.495
-2.5
-2.495
-2.54
-2.5
-1.88
-0.81
-0.6
-1.71
-2.46
-2.425
-2.43
-2.375
-2.35
-2.33
-2.31
-2.29
-2.26
-2.24
-2.22
-2.2
-2.16
-2.13
-2.105
-2.085
-2.035
-1.995
-1.95
-1.91
-1.865
-1.815
-1.755
-1.71
-1.67
-1.63
-1.6
-1.615
-1.655
-1.695
-1.75
-1.79
-1.81
-1.825
-1.82
-1.815
-1.795
-1.78
-1.75
-1.72
-1.69
-1.66
-1.635
-1.6
-1.59
-1.56
-1.55
-1.52
-1.52
-1.51
-1.495
-1.48
-1.46
-1.455
-1.43
-1.425
-1.41
-1.395
-1.375
-1.36
-1.335
-1.32
-1.3
-1.29
-1.265
-1.25
-1.225
-1.2
-1.185
-1.18
-1.15
-1.14
-1.125
-1.1
-1.05
-1.0
-0.98
-0.9
-0.77
-0.76
-0.77
-0.77
-0.865
-0.92
-0.9
-0.915
-0.905
-0.895
-0.895
-0.965
-0.84
-0.14
0.95
0.845
-0.315
-0.855
-0.815
-0.825
-0.775
-0.75
-0.72
-0.7
-0.69
-0.655
-0.63
-0.615
-0.59
-0.56
-0.53
-0.5
-0.47
-0.44
-0.4
-0.36
-0.32
-0.28
-0.22
-0.175
-0.12
-0.1
-0.06
-0.04
-0.055
-0.115
-0.17
-0.23
-0.27
-0.295
-0.31
-0.315
-0.315
-0.31
-0.29
-0.28
-0.26
-0.24
-0.23
-0.21
-0.18
-0.18
-0.17
-0.17
-0.17
-0.165
-0.15
-0.15
-0.145
-0.14
-0.14
-0.14
-0.135
-0.13
-0.12
-0.13
-0.11
-0.115
-0.1
-0.105
-0.095
-0.095
-0.095
-0.1
-0.09
-0.08
-0.08
-0.08
-0.07
-0.07
-0.07
-0.06
-0.025
-0.01
0.025
0.12
0.21
0.175
0.155
0.1
-0.01
-0.04
-0.04
-0.065
-0.07
-0.08
-0.12
-0.185
0.165
1.085
1.91
1.11
-0.035
-0.14
-0.15
-0.13
-0.105
-0.1
-0.08
-0.08
-0.08
-0.075
-0.06
-0.055
-0.04
-0.04
-0.02
-0.01
0.02
0.025
0.05
0.08
0.105
0.135
0.19
0.215
0.24
0.26
0.285
0.26
0.23
0.16
0.095
0.025
-0.025
-0.06
-0.08
-0.11
-0.11
-0.115
-0.11
-0.115
-0.105
-0.11
-0.09
-0.08
-0.08
-0.09
-0.08
-0.095
-0.08
-0.105
-0.11
-0.11
-0.11
-0.12
-0.115
-0.12
-0.12
-0.12
-0.135
-0.13
-0.12
-0.12
-0.12
-0.13
-0.12
-0.135
-0.12
-0.12
-0.12
-0.13
-0.12
-0.13
-0.11
-0.12
-0.105
-0.08
-0.05
-0.05
0.04
0.135
0.13
0.12
0.08
-0.035
-0.075
-0.09
-0.095
-0.11
-0.12
-0.135
-0.2
-0.01
0.79
1.81
1.375
0.2
-0.14
-0.145
-0.125
-0.095
-0.075
-0.07
-0.06
-0.05
-0.005
-0.015
0.005
0.01
0.045
0.06
0.085
0.1
0.135
0.15
0.19
0.21
0.26
0.295
0.34
0.365
0.395
0.42
0.44
0.405
0.36
0.29
0.24
0.18
0.145
0.125
0.12
0.1
0.12
0.12
0.13
0.125
0.15
0.145
0.17
0.165
0.19
0.18
0.185
0.18
0.19
0.18
0.19
0.185
0.19
0.185
0.2
0.2
0.2
0.205
0.205
0.2
0.21
0.2
0.21
0.21
0.225
0.23
0.24
0.22
0.24
0.24
0.255
0.25
0.26
0.28
0.33
0.325
0.385
0.5
0.535
0.495
0.49
0.385
0.315
0.32
0.315
0.28
0.29
0.27
0.21
0.25
0.89
1.925
2.075
0.965
0.255
0.27
0.265
0.29
0.32
0.32
0.345
0.345
0.37
0.37
0.39
0.4
0.425
0.44
0.46
0.46
0.5
0.505
0.56
0.56
0.6
0.635
0.69
0.705
0.75
0.765
0.78
0.76
0.72
0.655
0.585
0.52
0.49
0.46
0.45
0.425
0.44
0.425
0.44
0.44
0.46
0.46
0.475
0.47
0.475
0.475
0.48
0.46
0.475
0.465
0.47
0.465
0.47
0.46
0.47
0.46
0.47
0.45
0.47
0.45
0.465
0.445
0.46
0.465
0.46
0.45
0.47
0.46
0.475
0.46
0.47
0.47
0.505
0.52
0.535
0.56
0.685
0.72
0.7
0.68
0.605
0.5
0.5
0.485
0.475
0.45
0.445
0.4
0.38
0.82
1.815
2.385
1.49
0.44
0.42
0.385
0.415
0.43
0.445
0.44
0.485
0.46
0.47
0.465
0.49
0.49
0.5
0.5
0.525
0.52
0.545
0.55
0.58
0.59
0.64
0.65
0.68
0.685
0.72
0.69
0.7
0.62
0.55
0.455
0.4
0.33
0.3
0.24
0.22
0.19
0.19
0.15
0.145
0.12
0.12
0.1
0.1
0.07
0.065
0.04
0.025
-0.02
-0.03
-0.065
-0.075
-0.12
-0.135
-0.17
-0.18
-0.22
-0.235
-0.275
-0.28
-0.32
-0.33
-0.37
-0.38
-0.42
-0.43
-0.47
-0.49
-0.52
-0.52
-0.56
-0.56
-0.56
-0.57
-0.595
-0.52
-0.47
-0.495
-0.555
-0.605
-0.745
-0.805
-0.84
-0.86
-0.915
-0.935
-0.98
-1.075
-0.935
-0.18
0.845
0.52
-0.71
-1.14
-1.17
-1.18
-1.195
-1.18
-1.21
-1.2
-1.22
-1.215
-1.225
-1.225
-1.235
-1.22
-1.24
-1.225
-1.225
-1.2
-1.215
-1.19
-1.18
-1.14
-1.135
-1.095
-1.09
-1.04
-1.06
-1.055
-1.095
-1.155
-1.255
-1.31
-1.38
-1.415
-1.46
-1.46
-1.49
-1.485
-1.515
-1.49
-1.51
-1.495
-1.515
-1.49
-1.51
-1.495
-1.505
-1.495
-1.51
-1.5
-1.535
-1.515
-1.535
-1.52
-1.54
-1.52
-1.55
-1.55
-1.555
-1.54
-1.55
-1.54
-1.56
-1.535
-1.545
-1.54
-1.54
-1.53
-1.54
-1.52
-1.535
-1.5
-1.48
-1.45
-1.445
-1.33
-1.255
-1.255
-1.29
-1.33
-1.44
-1.455
-1.46
-1.46
-1.48
-1.47
-1.5
-1.55
-1.27
-0.38
0.565
-0.04
-1.235
-1.415
-1.445
-1.4
-1.385
-1.35
-1.35
-1.31
-1.305
-1.27
-1.26
-1.23
-1.215
-1.18
-1.16
-1.115
-1.115
-1.06
-1.05
-1.0
-0.96
-0.905
-0.86
-0.8
-0.775
-0.715
-0.71
-0.68
-0.72
-0.76
-0.83
-0.86
-0.92
-0.93
-0.94
-0.93
-0.94
-0.92
-0.92
-0.895
-0.9
-0.86
-0.85
-0.83
-0.82
-0.795
-0.805
-0.77
-0.775
-0.74
-0.755
-0.73
-0.74
-0.7
-0.71
-0.675
-0.68
-0.665
-0.67
-0.635
-0.645
-0.615
-0.63
-0.6
-0.595
-0.58
-0.575
-0.55
-0.55
-0.52
-0.5
-0.45
-0.45
-0.33
-0.24
-0.235
-0.255
-0.27
-0.385
-0.41
-0.42
-0.4
-0.435
-0.425
-0.44
-0.49
-0.32
0.49
1.535
1.2
-0.01
-0.375
-0.395
-0.36
-0.33
-0.3
-0.315
-0.28
-0.28
-0.24
-0.24
-0.215
-0.21
-0.17
-0.155
-0.115
-0.105
-0.06
-0.05
0.005
0.025
0.085
0.12
0.2
0.205
0.255
0.27
0.29
0.25
0.225
0.15
0.105
0.05
0.045
0.005
0.02
0.0
0.02
0.005
0.03
0.03
0.06
0.06
0.08
0.08
0.11
0.095
0.125
0.105
0.13
0.125
0.135
0.12
0.14
0.125
0.15
0.135
0.15
0.135
0.17
0.155
0.18
0.155
0.18
0.17
0.2
0.18
0.22
0.2
0.245
0.28
0.3
0.325
0.46
0.49
0.475
0.45
0.38
0.28
0.29
0.28
0.28
0.25
0.265
0.21
0.21
0.7
1.74
2.245
1.295
0.29
0.3
0.255
0.3
0.31
0.335
0.33
0.36
0.36
0.39
0.4
0.43
0.44
0.465
0.46
0.505
0.52
0.56
0.57
0.62
0.645
0.72
0.74
0.795
0.815
0.88
0.86
0.86
0.8
0.745
0.665
0.63
0.57
0.56
0.525
0.54
0.51
0.54
0.525
0.545
0.53
0.56
0.54
0.57
0.57
0.59
0.575
0.6
0.585
0.6
0.58
0.6
0.58
0.6
0.58
0.6
0.585
0.6
0.57
0.6
0.565
0.595
0.58
0.6
0.585
0.605
0.59
0.615
0.61
0.66
0.645
0.68
0.76
0.865
0.83
0.825
0.77
0.68
0.61
0.635
0.6
0.6
0.575
0.56
0.475
0.73
1.56
2.57
2.02
0.83
0.53
0.525
0.51
0.55
0.545
0.56
0.56
0.58
0.56
0.59
0.58
0.605
0.595
0.635
0.62
0.66
0.64
0.69
0.7
0.74
0.76
0.82
0.83
0.88
0.88
0.91
0.88
0.845
0.76
0.69
0.61
0.575
0.505
0.52
0.46
0.465
0.43
0.445
0.425
0.44
0.42
0.44
0.42
0.44
0.42
0.44
0.41
0.425
0.4
0.4
0.385
0.38
0.36
0.37
0.34
0.34
0.33
0.325
0.31
0.32
0.29
0.295
0.28
0.285
0.27
0.285
0.285
0.32
0.3
0.345
0.43
0.49
0.44
0.42
0.32
0.23
0.195
0.2
0.155
0.15
0.11
0.065
0.01
0.465
1.42
2.075
1.15
0.08
-0.005
-0.03
-0.04
-0.01
-0.04
-0.035
-0.055
-0.04
-0.065
-0.06
-0.08
-0.06
-0.08
-0.075
-0.08
-0.065
-0.08
-0.055
-0.05
-0.02
-0.005
0.04
0.045
0.08
0.08
0.09
0.025
-0.03
-0.14
-0.22
-0.31
-0.36
-0.4
-0.43
-0.475
-0.485
-0.53
-0.53
-0.56
-0.56
-0.585
-0.58
-0.61
-0.61
-0.635
-0.63
-0.665
-0.655
-0.69
-0.7
-0.72
-0.735
-0.76
-0.755
-0.79
-0.79
-0.815
-0.815
-0.84
-0.84
-0.86
-0.84
-0.88
-0.875
-0.91
-0.875
-0.88
-0.84
-0.865
-0.79
-0.7
-0.695
-0.74
-0.745
-0.89
-0.94
-0.965
-0.96
-1.0
-1.01
-1.04
-1.095
-1.04
-0.36
0.705
0.77
-0.39
-1.07
-1.075
-1.08
-1.07
-1.03
-1.04
-1.03
-1.03
-1.0
-1.01
-0.98
-0.98
-0.94
-0.94
-0.91
-0.9
-0.865
-0.86
-0.805
-0.775
-0.72
-0.675
-0.6
-0.58
-0.53
-0.52
-0.51
-0.555
-0.61
-0.7
-0.755
-0.82
-0.835
-0.86
-0.86
-0.875
-0.87
-0.88
-0.86
-0.87
-0.84
-0.855
-0.825
-0.825
-0.805
-0.815
-0.795
-0.8
-0.775
-0.795
-0.775
-0.795
-0.77
-0.775
-0.76
-0.775
-0.755
-0.775
-0.75
-0.76
-0.735
-0.74
-0.715
-0.71
-0.665
-0.655
-0.63
-0.54
-0.43
-0.46
-0.46
-0.52
-0.61
-0.635
-0.615
-0.65
-0.635
-0.645
-0.645
-0.72
-0.415
0.445
1.4
0.69
-0.51
-0.7
-0.64
-0.615
-0.56
-0.535
-0.5
-0.495
-0.46
-0.44
-0.4
-0.4
-0.36
-0.34
-0.3
-0.28
-0.24
-0.23
-0.175
-0.14
-0.08
-0.035
0.05
0.08
0.14
0.155
0.165
0.13
0.08
-0.015
-0.065
-0.15
-0.165
-0.19
-0.195
-0.21
-0.2
-0.215
-0.19
-0.19
-0.18
-0.175
-0.15
-0.155
-0.14
-0.14
-0.12
-0.12
-0.11
-0.12
-0.09
-0.11
-0.095
-0.09
-0.07
-0.08
-0.06
-0.07
-0.04
-0.05
-0.03
-0.055
-0.03
-0.035
0.005
0.005
0.04
0.04
0.13
0.21
0.205
0.185
0.18
0.08
0.045
0.04
0.03
0.015
0.02
0.005
-0.025
0.12
0.79
1.68
1.33
0.24
-0.1
-0.03
0.02
0.045
0.08
0.09
0.11
0.11
0.135
0.14
0.165
0.165
0.2
0.19
0.24
0.24
0.28
0.29
0.325
0.36
0.425
0.465
0.52
0.53
0.56
0.56
0.545
0.475
0.41
0.345
0.305
0.255
0.24
0.225
0.23
0.22
0.24
0.22
0.22
0.215
0.24
0.22
0.24
0.24
0.245
0.245
0.26
0.255
0.27
0.265
0.27
0.26
0.27
0.26
0.28
0.28
0.285
0.28
0.29
0.305
0.35
0.345
0.4
0.475
0.5
0.46
0.465
0.385
0.33
0.325
0.32
0.305
0.3
0.285
0.25
0.325
0.865
1.7
1.66
0.72
0.245
0.28
0.29
0.32
0.34
0.335
0.365
0.36
0.38
0.38
0.4
0.4
0.425
0.425
0.455
0.47
0.5
0.505
0.55
0.58
0.63
0.68
0.73
0.75
0.795
0.79
0.775
0.72
0.65
0.57
0.525
0.475
0.47
0.46
0.46
0.44
0.445
0.44
0.44
0.43
0.43
0.44
0.45
0.44
0.455
0.45
0.46
0.46
0.465
0.465
0.48
0.465
0.475
0.46
0.475
0.46
0.465
0.46
0.495
0.525
0.53
0.56
0.67
0.695
0.665
0.64
0.575
0.495
0.49
0.475
0.49
0.45
0.45
0.4
0.415
0.9
1.85
2.24
1.37
0.525
0.505
0.45
0.475
0.475
0.485
0.475
0.495
0.49
0.51
0.51
0.53
0.54
0.56
0.56
0.58
0.59
0.615
0.635
0.685
0.73
0.79
0.84
0.895
0.92
0.945
0.935
0.885
0.8
0.735
0.655
0.605
0.58
0.56
0.56
0.56
0.54
0.54
0.525
0.52
0.52
0.52
0.505
0.52
0.52
0.525
0.535
0.56
0.535
0.54
0.535
0.54
0.53
0.54
0.52
0.54
0.52
0.525
0.545
0.585
0.58
0.63
0.725
0.76
0.725
0.7
0.61
0.54
0.52
0.505
0.475
0.47
0.44
0.4
0.4
0.94
2.005
2.48
1.47
0.54
0.47
0.415
0.425
0.425
0.41
0.42
0.42
0.44
0.43
0.44
0.44
0.445
0.45
0.47
0.475
0.485
0.505
0.545
0.57
0.625
0.68
0.73
0.775
0.825
0.82
0.81
0.725
0.63
0.54
0.46
0.4
0.38
0.335
0.32
0.305
0.29
0.26
0.25
0.24
0.225
0.205
0.205
0.2
0.21
0.2
0.21
0.19
0.2
0.19
0.18
0.16
0.17
0.145
0.155
0.145
0.14
0.125
0.125
0.14
0.18
0.17
0.24
0.32
0.33
0.28
0.26
0.15
0.08
0.07
0.055
0.03
0.015
0.0
-0.065
-0.025
0.61
1.63
1.74
0.56
-0.155
-0.1
-0.095
-0.07
-0.035
-0.035
-0.02
-0.015
-0.005
-0.005
0.015
0.02
0.04
0.05
0.07
0.09
0.125
0.14
0.2
0.24
0.3
0.365
0.43
0.465
0.5
0.475
0.43
0.34
0.245
0.14
0.08
0.03
0.0
-0.015
-0.025
-0.035
-0.025
-0.055
-0.055
-0.07
-0.07
-0.07
-0.07
-0.08
-0.075
-0.07
-0.055
-0.06
-0.07
-0.075
-0.06
-0.08
-0.08
-0.07
-0.065
-0.1
-0.09
-0.09
-0.09
-0.08
-0.05
-0.04
-0.04
0.04
0.12
0.1
0.08
0.045
-0.03
-0.095
-0.095
-0.1
-0.12
-0.13
-0.15
-0.2
-0.105
0.495
1.4
1.24
0.2
-0.28
-0.19
-0.18
-0.145
-0.12
-0.1
-0.095
-0.08
-0.08
-0.08
-0.075
-0.04
-0.04
-0.025
-0.01
0.0
0.04
0.06
0.09
0.145
0.2
0.25
0.29
0.325
0.34
0.34
0.31
0.225
0.14
0.08
0.01
-0.02
-0.04
-0.055
-0.075
-0.075
-0.095
-0.095
-0.105
-0.115
-0.12
-0.14
-0.13
-0.14
-0.14
-0.135
-0.145
-0.145
-0.15
-0.165
-0.175
-0.17
-0.19
-0.2
-0.21
-0.22
-0.22
-0.23
-0.22
-0.215
-0.215
-0.165
-0.11
-0.12
-0.17
-0.21
-0.29
-0.335
-0.355
-0.37
-0.4
-0.43
-0.455
-0.51
-0.34
0.275
1.0
0.56
-0.37
-0.57
-0.575
-0.56
-0.56
-0.56
-0.575
-0.58
-0.58
-0.6
-0.6
-0.6
-0.6
-0.6
-0.6
-0.6
-0.605
-0.58
-0.57
-0.55
-0.515
-0.475
-0.435
-0.4
-0.375
-0.37
-0.38
-0.435
-0.53
-0.62
-0.69
-0.75
-0.79
-0.81
-0.835
-0.84
-0.86
-0.88
-0.9
-0.915
-0.94
-0.945
-0.965
-0.96
-0.975
-0.975
-0.98
-0.975
-0.98
-0.98
-0.985
-1.0
-1.015
-1.015
-1.02
-1.035
-1.04
-1.04
-1.05
-1.04
-1.02
-1.015
-1.0
-0.92
-0.865
-0.9
-0.915
-0.96
-1.04
-1.075
-1.08
-1.095
-1.115
-1.125
-1.15
-1.185
-0.93
-0.165
0.635
0.085
-0.915
-1.09
-1.14
-1.13
-1.125
-1.12
-1.11
-1.1
-1.1
-1.095
-1.09
-1.075
-1.06
-1.04
-1.02
-1.01
-0.985
-0.97
-0.935
-0.9
-0.85
-0.79
-0.73
-0.68
-0.63
-0.6
-0.595
-0.64
-0.71
-0.79
-0.85
-0.9
-0.93
-0.94
-0.95
-0.95
-0.95
-0.95
-0.955
-0.96
-0.965
-0.96
-0.945
-0.94
-0.915
-0.9
-0.89
-0.88
-0.87
-0.86
-0.84
-0.84
-0.82
-0.815
-0.815
-0.81
-0.795
-0.795
-0.79
-0.78
-0.755
-0.71
-0.68
-0.675
-0.59
-0.49
-0.495
-0.515
-0.52
-0.625
-0.67
-0.66
-0.675
-0.675
-0.68
-0.68
-0.73
-0.62
0.065
1.145
1.18
0.09
-0.53
-0.575
-0.6
-0.575
-0.57
-0.56
-0.535
-0.52
-0.51
-0.495
-0.47
-0.45
-0.42
-0.415
-0.39
-0.355
-0.32
-0.29
-0.24
-0.2
-0.14
-0.075
-0.01
0.05
0.105
0.12
0.12
0.045
-0.03
-0.105
-0.16
-0.2
-0.21
-0.22
-0.22
-0.23
-0.23
-0.24
-0.23
-0.24
-0.235
-0.22
-0.215
-0.195
-0.185
-0.18
-0.165
-0.16
-0.145
-0.14
-0.14
-0.14
-0.135
-0.13
-0.12
-0.125
-0.12
-0.135
-0.115
-0.115
-0.11
-0.08
-0.04
-0.05
0.02
0.12
0.15
0.11
0.1
-0.005
-0.08
-0.095
-0.1
-0.13
-0.14
-0.145
-0.18
-0.24
0.165
1.14
1.9
1.07
-0.04
-0.155
-0.21
-0.22
-0.21
-0.22
-0.22
-0.23
-0.22
-0.235
-0.225
-0.24
-0.22
-0.24
-0.225
-0.225
-0.215
-0.2
-0.19
-0.18
-0.14
-0.11
-0.04
-0.02
0.01
0.0
-0.005
-0.075
-0.155
-0.255
-0.345
-0.425
-0.47
-0.525
-0.53
-0.58
-0.595
-0.635
-0.65
-0.68
-0.69
-0.71
-0.7
-0.72
-0.715
-0.74
-0.74
-0.76
-0.77
-0.795
-0.805
-0.835
-0.84
-0.87
-0.87
-0.9
-0.905
-0.92
-0.92
-0.945
-0.95
-0.97
-0.96
-0.95
-0.925
-0.92
-0.835
-0.77
-0.795
-0.84
-0.88
-1.0
-1.035
-1.065
-1.075
-1.11
-1.115
-1.155
-1.215
-1.075
-0.33
0.73
0.48
-0.7
-1.135
-1.18
-1.195
-1.19
-1.175
-1.18
-1.17
-1.17
-1.14
-1.15
-1.13
-1.135
-1.1
-1.11
-1.075
-1.07
-1.04
-1.01
-0.99
-0.95
-0.88
-0.835
-0.775
-0.74
-0.695
-0.695
-0.705
-0.775
-0.835
-0.92
-0.96
-1.03
-1.04
-1.06
-1.065
-1.08
-1.08
-1.095
-1.075
-1.08
-1.06
-1.055
-1.035
-1.035
-1.005
-1.015
-0.99
-1.0
-0.99
-0.98
-0.97
-0.98
-0.96
-0.975
-0.965
-0.97
-0.94
-0.96
-0.935
-0.935
-0.915
-0.915
-0.87
-0.85
-0.82
-0.76
-0.63
-0.62
-0.635
-0.66
-0.735
-0.81
-0.79
-0.805
-0.795
-0.815
-0.8
-0.855
-0.835
-0.28
0.74
1.07
0.015
-0.84
-0.775
-0.76
-0.705
-0.675
-0.63
-0.63
-0.59
-0.58
-0.555
-0.54
-0.5
-0.49
-0.45
-0.435
-0.38
-0.36
-0.305
-0.28
-0.215
-0.155
-0.075
-0.02
0.04
0.06
0.11
0.08
0.03
-0.06
-0.12
-0.19
-0.24
-0.285
-0.28
-0.305
-0.295
-0.31
-0.29
-0.29
-0.26
-0.27
-0.24
-0.24
-0.22
-0.21
-0.19
-0.2
-0.19
-0.18
-0.165
-0.175
-0.165
-0.165
-0.14
-0.15
-0.14
-0.135
-0.12
-0.12
-0.11
-0.095
-0.08
-0.075
-0.02
-0.03
0.025
0.12
0.19
0.155
0.145
0.08
0.01
-0.01
0.005
-0.02
-0.04
-0.02
-0.04
-0.1
0.245
1.13
1.92
1.105
-0.06
-0.12
-0.055
-0.015
0.03
0.04
0.08
0.085
0.1
0.12
0.135
0.145
0.18
0.2
0.225
0.245
0.28
0.31
0.36
0.38
0.46
0.5
0.56
0.605
0.64
0.65
0.66
0.605
0.56
0.47
0.405
0.335
0.305
0.27
0.26
0.25
0.245
0.24
0.26
0.255
0.27
0.29
0.29
0.29
0.31
0.31
0.31
0.32
0.32
0.315
0.32
0.305
0.32
0.305
0.31
0.31
0.32
0.32
0.325
0.325
0.34
0.34
0.34
0.34
0.36
0.38
0.41
0.42
0.5
0.59
0.6
0.575
0.54
0.44
0.4
0.4
0.375
0.36
0.36
0.35
0.285
0.33
0.97
2.065
2.35
1.26
0.405
0.38
0.34
0.36
0.39
0.385
0.39
0.41
0.42
0.43
0.44
0.455
0.47
0.49
0.51
0.52
0.56
0.57
0.6
0.63
0.68
0.73
0.785
0.82
0.86
0.895
0.9
0.855
0.79
0.72
0.65
0.585
0.56
0.54
0.52
0.5
0.5
0.485
0.49
0.49
0.5
0.49
0.49
0.505
0.51
0.52
0.525
0.52
0.52
0.52
0.52
0.52
0.5
0.5
0.505
0.49
0.5
0.49
0.505
0.49
0.485
0.475
0.475
0.47
0.465
0.485
0.505
0.52
0.53
0.62
0.69
0.655
0.635
0.595
0.475
0.425
0.42
0.4
0.38
0.36
0.34
0.26
0.385
1.11
2.2
2.075
0.91
0.33
0.285
0.25
0.255
0.26
0.245
0.245
0.24
0.24
0.24
0.24
0.23
0.24
0.24
0.22
0.24
0.26
0.26
0.28
0.3
0.325
0.365
0.4
0.42
0.445
0.46
0.45
0.4
0.32
0.225
0.15
0.085
0.04
0.01
-0.015
-0.045
-0.06
-0.08
-0.095
-0.1
-0.11
-0.115
-0.115
-0.115
-0.12
-0.115
-0.13
-0.14
-0.155
-0.17
-0.18
-0.18
-0.2
-0.2
-0.225
-0.215
-0.23
-0.24
-0.24
-0.25
-0.26
-0.26
-0.27
-0.265
-0.265
-0.235
-0.22
-0.22
-0.12
-0.04
-0.07
-0.08
-0.14
-0.24
-0.295
-0.295
-0.32
-0.34
-0.36
-0.36
-0.44
-0.305
0.425
1.5
1.28
0.145
-0.35
-0.38
-0.385
-0.36
-0.355
-0.355
-0.35
-0.355
-0.32
-0.33
-0.32
-0.315
-0.295
-0.295
-0.27
-0.255
-0.235
-0.21
-0.185
-0.16
-0.11
-0.06
-0.025
0.015
0.04
0.065
0.07
0.03
-0.035
-0.095
-0.16
-0.2
-0.24
-0.255
-0.275
-0.275
-0.28
-0.28
-0.275
-0.27
-0.26
-0.24
-0.235
-0.225
-0.22
-0.22
-0.215
-0.21
-0.22
-0.2
-0.215
-0.205
-0.2
-0.2
-0.2
-0.2
-0.195
-0.185
-0.18
-0.175
-0.17
-0.165
-0.165
-0.165
-0.15
-0.12
-0.08
-0.07
0.0
0.12
0.12
0.09
0.08
-0.03
-0.08
-0.08
-0.08
-0.095
-0.11
-0.115
-0.17
-0.11
0.505
1.52
1.64
0.56
-0.14
-0.1
-0.105
-0.07
-0.035
-0.035
-0.01
0.005
0.01
0.02
0.04
0.06
0.09
0.1
0.12
0.14
0.18
0.2
0.24
0.26
0.31
0.36
0.405
0.45
0.465
0.49
0.5
0.475
0.42
0.345
0.29
0.245
0.2
0.18
0.165
0.165
0.17
0.17
0.18
0.2
0.2
0.205
0.215
0.23
0.225
0.225
0.24
0.225
0.24
0.22
0.22
0.225
0.215
0.23
0.24
0.24
0.24
0.24
0.24
0.24
0.24
0.245
0.265
0.26
0.28
0.3
0.32
0.34
0.44
0.535
0.51
0.49
0.44
0.335
0.29
0.29
0.285
0.27
0.26
0.25
0.18
0.365
1.13
2.16
1.775
0.635
0.26
0.25
0.255
0.275
0.28
0.29
0.31
0.32
0.33
0.34
0.34
0.36
0.38
0.4
0.415
0.44
0.455
0.48
0.52
0.54
0.58
0.62
0.66
0.685
0.72
0.74
0.74
0.72
0.64
0.57
0.52
0.475
0.44
0.405
0.4
0.38
0.385
0.39
0.39
0.4
0.405
0.42
0.42
0.42
0.43
0.425
0.425
0.425
0.42
0.42
0.41
0.415
0.415
0.41
0.4
0.41
0.405
0.4
0.4
0.405
0.41
0.41
0.4
0.44
0.455
0.47
0.49
0.58
0.66
0.65
0.62
0.58
0.475
0.44
0.44
0.42
0.4
0.38
0.37
0.3
0.46
1.205
2.26
1.945
0.805
0.4
0.37
0.365
0.38
0.4
0.4
0.4
0.41
0.425
0.43
0.44
0.46
0.475
0.475
0.5
0.52
0.53
0.56
0.58
0.605
0.645
0.68
0.725
0.745
0.77
0.79
0.79
0.76
0.705
0.635
0.58
0.525
0.49
0.465
0.445
0.44
0.44
0.44
0.43
0.45
0.45
0.45
0.47
0.46
0.465
0.465
0.46
0.45
0.45
0.44
0.44
0.44
0.435
0.42
0.43
0.44
0.43
0.43
0.42
0.42
0.44
0.425
0.44
0.475
0.48
0.505
0.605
0.68
0.645
0.625
0.56
0.45
0.425
0.42
0.4
0.38
0.36
0.335
0.28
0.565
1.42
2.28
1.63
0.475
0.32
0.27
0.28
0.29
0.285
0.28
0.28
0.27
0.28
0.28
0.28
0.285
0.285
0.28
0.29
0.285
0.31
0.305
0.32
0.335
0.37
0.385
0.41
0.42
0.44
0.42
0.385
0.31
0.24
0.14
0.06
-0.015
-0.05
-0.1
-0.125
-0.15
-0.18
-0.195
-0.215
-0.23
-0.235
-0.265
-0.27
-0.29
-0.315
-0.33
-0.35
-0.385
-0.4
-0.435
-0.465
-0.5
-0.52
-0.55
-0.56
-0.6
-0.62
-0.64
-0.66
-0.68
-0.68
-0.675
-0.695
-0.69
-0.585
-0.56
-0.615
-0.66
-0.75
-0.865
-0.895
-0.92
-0.955
-0.995
-1.015
-1.065
-1.105
-0.72
0.185
0.805
-0.08
-1.16
-1.19
-1.22
-1.18
-1.19
-1.185
-1.2
-1.19
-1.195
-1.2
-1.195
-1.195
-1.2
-1.185
-1.18
-1.16
-1.16
-1.14
-1.135
-1.105
-1.08
-1.055
-1.03
-0.995
-0.98
-0.965
-0.97
-0.995
-1.06
-1.125
-1.2
-1.26
-1.31
-1.335
-1.36
-1.36
-1.38
-1.39
-1.385
-1.38
-1.385
-1.36
-1.36
-1.355
-1.36
-1.355
-1.36
-1.36
-1.385
-1.38
-1.395
-1.39
-1.4
-1.4
-1.41
-1.41
-1.415
-1.41
-1.415
-1.395
-1.4
-1.36
-1.345
-1.33
-1.26
-1.155
-1.155
-1.16
-1.2
-1.29
-1.36
-1.35
-1.375
-1.36
-1.39
-1.385
-1.46
-1.39
-0.775
0.305
0.44
-0.64
-1.355
-1.36
-1.395
-1.36
-1.36
-1.355
-1.36
-1.34
-1.34
-1.335
-1.335
-1.315
-1.32
-1.29
-1.3
-1.275
-1.275
-1.24
-1.24
-1.21
-1.195
-1.15
-1.125
-1.095
-1.1
-1.08
-1.095
-1.125
-1.2
-1.27
-1.36
-1.4
-1.475
-1.485
-1.535
-1.55
-1.58
-1.575
-1.6
-1.61
-1.63
-1.62
-1.65
-1.64
-1.67
-1.66
-1.69
-1.7
-1.74
-1.74
-1.765
-1.77
-1.795
-1.8
-1.82
-1.81
-1.84
-1.84
-1.875
-1.86
-1.85
-1.835
-1.855
-1.765
-1.68
-1.695
-1.745
-1.79
-1.915
-1.96
-1.99
-2.0
-2.04
-2.045
-2.08
-2.13
-2.025
-1.31
-0.275
-0.455
-1.6
-2.085
-2.13
-2.13
-2.12
-2.11
-2.13
-2.1
-2.11
-2.085
-2.09
-2.065
-2.06
-2.03
-2.03
-2.0
-1.985
-1.945
-1.935
-1.88
-1.86
-1.81
-1.775
-1.715
-1.7
-1.65
-1.64
-1.63
-1.68
-1.735
-1.795
-1.84
-1.895
-1.9
-1.925
-1.925
-1.92
-1.905
-1.915
-1.88
-1.88
-1.84
-1.855
-1.825
-1.82
-1.8
-1.815
-1.785
-1.8
-1.78
-1.785
-1.765
-1.775
-1.755
-1.765
-1.74
-1.74
-1.72
-1.73
-1.7
-1.68
-1.62
-1.62
-1.56
-1.465
-1.36
-1.4
-1.395
-1.48
-1.555
-1.575
-1.56
-1.59
-1.575
-1.585
-1.58
-1.64
-1.32
-0.465
0.45
-0.21
-1.32
-1.49
-1.505
-1.5
-1.445
-1.45
-1.42
-1.425
-1.38
-1.375
-1.34
-1.325
-1.285
-1.285
-1.24
-1.235
-1.19
-1.175
-1.12
-1.105
-1.04
-1.0
-0.945
-0.915
-0.865
-0.84
-0.805
-0.835
-0.86
-0.935
-0.96
-1.04
-1.04
-1.08
-1.08
-1.08
-1.08
-1.095
-1.055
-1.065
-1.035
-1.03
-1.0
-1.01
-0.96
-0.98
-0.945
-0.955
-0.94
-0.95
-0.92
-0.93
-0.91
-0.92
-0.895
-0.91
-0.88
-0.88
-0.84
-0.82
-0.78
-0.775
-0.65
-0.575
-0.56
-0.6
-0.635
-0.735
-0.75
-0.75
-0.75
-0.775
-0.765
-0.78
-0.8
-0.54
0.28
1.185
0.6
-0.595
-0.775
-0.75
-0.69
-0.66
-0.61
-0.61
-0.58
-0.58
-0.54
-0.52
-0.485
-0.475
-0.435
-0.415
-0.365
-0.355
-0.31
-0.28
-0.215
-0.185
-0.115
-0.08
-0.015
0.005
0.055
0.06
0.05
-0.03
-0.075
-0.15
-0.195
-0.255
-0.24
-0.275
-0.255
-0.265
-0.24
-0.24
-0.215
-0.24
-0.215
-0.22
-0.185
-0.19
-0.165
-0.17
-0.135
-0.135
-0.1
-0.11
-0.1
-0.11
-0.075
-0.08
-0.065
-0.065
-0.03
-0.035
0.025
0.01
0.08
0.185
0.255
0.22
0.215
0.13
0.065
0.045
0.06
0.04
0.04
0.02
0.02
-0.03
0.4
1.305
2.0
1.085
-0.01
-0.015
0.04
0.085
0.125
0.145
0.185
0.175
0.21
0.21
0.25
0.26
0.305
0.32
0.35
0.36
0.4
0.43
0.48
0.505
0.58
0.61
0.67
0.7
0.735
0.745
0.75
0.7
0.63
0.56
0.51
0.44
0.41
0.39
0.4
0.38
0.4
0.385
0.4
0.4
0.42
0.425
0.44
0.43
0.46
0.45
0.46
0.45
0.45
0.46
0.455
0.44
0.47
0.44
0.45
0.44
0.455
0.44
0.455
0.45
0.475
0.5
0.52
0.54
0.66
0.685
0.655
0.64
0.56
0.45
0.45
0.425
0.41
0.385
0.385
0.32
0.3
0.74
1.76
2.48
1.6
0.455
0.38
0.31
0.335
0.33
0.335
0.325
0.34
0.335
0.35
0.345
0.35
0.35
0.365
0.36
0.375
0.37
0.4
0.405
0.44
0.465
0.52
0.56
0.58
0.59
0.62
0.61
0.585
0.495
0.425
0.34
0.28
0.225
0.2
0.15
0.16
0.13
0.12
0.1
0.1
0.085
0.095
0.085
0.085
0.08
0.08
0.065
0.08
0.055
0.06
0.045
0.04
0.02
0.03
0.015
0.01
-0.005
0.005
-0.01
0.015
0.025
0.05
0.05
0.165
0.21
0.165
0.125
0.08
-0.035
-0.05
-0.07
-0.08
-0.11
-0.11
-0.145
-0.2
0.06
0.98
1.985
1.41
0.175
-0.07
-0.13
-0.13
-0.115
-0.11
-0.115
-0.1
-0.08
-0.07
-0.06
-0.04
-0.03
-0.01
0.005
0.04
0.045
0.08
0.1
0.15
0.205
0.265
0.32
0.365
0.4
0.425
0.43
0.39
0.32
0.24
0.15
0.105
0.055
0.04
0.025
0.03
0.01
0.005
-0.01
0.0
0.01
0.0
0.005
0.03
0.025
0.05
0.05
0.06
0.055
0.065
0.06
0.07
0.07
0.07
0.08
0.09
0.08
0.105
0.13
0.14
0.19
0.285
0.325
0.305
0.28
0.22
0.15
0.145
0.12
0.13
0.11
0.12
0.085
0.085
0.51
1.39
1.8
0.89
0.01
0.08
0.09
0.145
0.155
0.19
0.2
0.22
0.225
0.245
0.245
0.285
0.29
0.315
0.32
0.36
0.38
0.415
0.44
0.495
0.535
0.6
0.64
0.68
0.69
0.7
0.68
0.61
0.53
0.46
0.4
0.36
0.34
0.32
0.3
0.315
0.31
0.295
0.295
0.32
0.31
0.315
0.325
0.325
0.33
0.33
0.33
0.345
0.34
0.35
0.335
0.335
0.33
0.33
0.335
0.375
0.37
0.385
0.445
0.52
0.505
0.485
0.465
0.4
0.35
0.345
0.34
0.335
0.315
0.32
0.26
0.425
0.97
1.645
1.22
0.38
0.21
0.265
0.3
0.34
0.34
0.345
0.365
0.36
0.365
0.38
0.38
0.405
0.41
0.425
0.445
0.46
0.47
0.51
0.53
0.57
0.61
0.65
0.68
0.72
0.705
0.7
0.66
0.6
0.52
0.475
0.44
0.42
0.405
0.4
0.385
0.385
0.37
0.38
0.375
0.375
0.36
0.375
0.38
0.385
0.38
0.4
0.385
0.4
0.4
0.4
0.4
0.38
0.38
0.4
0.42
0.43
0.46
0.54
0.545
0.52
0.5
0.44
0.37
0.37
0.36
0.35
0.34
0.33
0.27
0.365
0.84
1.58
1.48
0.65
0.26
0.3
0.295
0.32
0.315
0.33
0.33
0.345
0.34
0.345
0.36
0.36
0.36
0.385
0.385
0.41
0.41
0.445
0.465
0.505
0.53
0.57
0.61
0.65
0.665
0.665
0.63
0.56
0.485
0.43
0.39
0.355
0.33
0.325
0.305
0.31
0.305
0.29
0.265
0.28
0.28
0.275
0.28
0.28
0.29
0.305
0.29
0.295
0.295
0.285
0.28
0.285
0.28
0.32
0.335
0.32
0.4
0.475
0.45
0.445
0.405
0.32
0.27
0.265
0.255
0.245
0.22
0.205
0.155
0.4
1.125
1.96
1.445
0.47
0.27
0.22
0.22
0.24
0.225
0.24
0.25
0.25
0.25
0.27
0.28
0.285
0.3
0.32
0.33
0.345
0.36
0.385
0.42
0.47
0.52
0.585
0.625
0.66
0.68
0.68
0.625
0.545
0.47
0.42
0.36
0.35
0.32
0.305
0.285
0.28
0.28
0.28
0.27
0.27
0.265
0.28
0.28
0.295
0.3
0.32
0.325
0.325
0.33
0.33
0.33
0.365
0.4
0.4
0.465
0.58
0.565
0.545
0.51
0.41
0.34
0.35
0.325
0.31
0.3
0.29
0.21
0.42
1.2
2.27
1.92
0.78
0.385
0.315
0.295
0.325
0.32
0.315
0.325
0.33
0.325
0.345
0.36
0.38
0.38
0.4
0.405
0.43
0.45
0.5
0.53
0.57
0.63
0.69
0.74
0.78
0.8
0.785
0.73
0.635
0.54
0.475
0.43
0.4
0.375
0.37
0.36
0.34
0.32
0.325
0.31
0.32
0.32
0.32
0.325
0.335
0.34
0.36
0.36
0.34
0.34
0.36
0.4
0.415
0.42
0.52
0.59
0.575
0.56
0.5
0.365
0.36
0.33
0.325
0.3
0.29
0.26
0.205
0.54
1.48
2.38
1.68
0.485
0.34
0.28
0.29
0.31
0.3
0.32
0.325
0.32
0.34
0.345
0.355
0.37
0.385
0.4
0.425
0.445
0.47
0.51
0.56
0.605
0.68
0.73
0.79
0.825
0.815
0.77
0.69
0.6
0.5
0.47
0.4
0.37
0.36
0.35
0.34
0.33
0.32
0.32
0.31
0.31
0.33
0.33
0.34
0.36
0.35
0.35
0.36
0.35
0.37
0.4
0.405
0.45
0.535
0.59
0.57
0.54
0.46
0.38
0.34
0.34
0.31
0.3
0.295
0.245
0.23
0.7
1.72
2.29
1.32
0.305
0.3
0.265
0.28
0.29
0.29
0.3
0.3
0.31
0.32
0.34
0.34
0.37
0.375
0.405
0.44
0.45
0.49
0.56
0.585
0.64
0.72
0.76
0.81
0.84
0.805
0.74
0.65
0.56
0.47
0.41
0.37
0.345
0.33
0.315
0.305
0.3
0.285
0.285
0.265
0.26
0.27
0.28
0.29
0.3
0.295
0.325
0.31
0.325
0.36
0.36
0.38
0.485
0.525
0.48
0.46
0.4
0.32
0.3
0.29
0.28
0.26
0.24
0.21
0.215
0.68
1.53
1.75
0.81
0.115
0.2
0.21
0.245
0.265
0.28
0.265
0.29
0.285
0.3
0.32
0.325
0.33
0.36
0.37
0.39
0.4
0.44
0.475
0.535
0.575
0.64
0.67
0.7
0.72
0.68
0.615
0.535
0.445
0.385
0.33
0.32
0.28
0.28
0.26
0.255
0.24
0.245
0.24
0.26
0.24
0.26
0.26
0.26
0.26
0.28
0.265
0.27
0.28
0.295
0.31
0.33
0.38
0.45
0.42
0.4
0.36
0.29
0.25
0.255
0.24
0.24
0.205
0.2
0.165
0.465
1.115
1.63
1.0
0.21
0.18
0.19
0.21
0.24
0.245
0.25
0.245
0.265
0.265
0.285
0.28
0.3
0.295
0.325
0.33
0.36
0.37
0.41
0.43
0.49
0.52
0.575
0.59
0.63
0.61
0.58
0.505
0.445
0.375
0.335
0.305
0.295
0.275
0.28
0.26
0.26
0.25
0.25
0.24
0.245
0.22
0.24
0.235
0.26
0.24
0.25
0.24
0.26
0.245
0.28
0.285
0.305
0.34
0.44
0.44
0.405
0.37
0.3
0.24
0.24
0.2
0.2
0.18
0.175
0.12
0.25
0.8
1.64
1.445
0.56
0.2
0.17
0.15
0.19
0.18
0.2
0.18
0.2
0.19
0.205
0.205
0.225
0.22
0.24
0.24
0.27
0.29
0.315
0.345
0.4
0.425
0.485
0.51
0.56
0.565
0.545
0.475
0.41
0.325
0.28
0.24
0.21
0.2
0.19
0.17
0.17
0.15
0.145
0.13
0.135
0.12
0.13
0.13
0.145
0.135
0.155
0.15
0.16
0.155
0.17
0.155
0.19
0.205
0.24
0.24
0.335
0.41
0.4
0.34
0.305
0.205
0.18
0.165
0.155
0.14
0.14
0.085
0.06
0.385
1.26
1.95
1.275
0.285
0.2
0.12
0.12
0.13
0.14
0.13
0.145
0.14
0.155
0.16
0.17
0.17
0.2
0.2
0.24
0.23
0.27
0.29
0.34
0.385
0.44
0.475
0.54
0.57
0.58
0.56
0.5
0.405
0.35
0.285
0.24
0.215
0.21
0.19
0.19
0.16
0.16
0.15
0.14
0.145
0.155
0.165
0.165
0.165
0.185
0.185
0.19
0.18
0.185
0.185
0.19
0.18
0.18
0.18
0.2
0.225
0.25
0.265
0.4
0.46
0.43
0.385
0.325
0.225
0.2
0.185
0.175
0.16
0.155
0.12
0.08
0.46
1.46
2.24
1.45
0.35
0.245
0.16
0.17
0.185
0.18
0.19
0.2
0.21
0.22
0.22
0.24
0.25
0.27
0.27
0.3
0.32
0.35
0.365
0.415
0.465
0.52
0.56
0.605
0.635
0.665
0.64
0.59
0.52
0.44
0.385
0.33
0.305
0.3
0.27
0.26
0.245
0.245
0.24
0.215
0.245
0.26
0.26
0.265
0.27
0.285
0.28
0.28
0.29
0.28
0.28
0.27
0.27
0.27
0.285
0.28
0.27
0.28
0.28
0.3
0.335
0.33
0.405
0.525
0.56
0.52
0.475
0.37
0.305
0.29
0.285
0.26
0.25
0.24
0.165
0.205
0.845
1.96
2.12
1.0
0.26
0.25
0.21
0.245
0.245
0.24
0.255
0.26
0.27
0.28
0.28
0.305
0.315
0.325
0.345
0.36
0.39
0.43
0.46
0.5
0.565
0.62
0.655
0.69
0.72
0.725
0.69
0.62
0.535
0.46
0.39
0.345
0.32
0.29
0.285
0.265
0.25
0.255
0.25
0.255
0.265
0.265
0.265
0.26
0.28
0.28
0.29
0.285
0.28
0.27
0.27
0.28
0.265
0.26
0.27
0.27
0.26
0.26
0.28
0.32
0.32
0.36
0.475
0.51
0.465
0.425
0.36
0.285
0.265
0.255
0.24
0.24
0.21
0.165
0.2
0.745
1.635
1.64
0.615
0.06
0.16
0.175
0.205
0.24
0.24
0.245
0.26
0.26
0.265
0.28
0.285
0.3
0.345
0.335
0.36
0.38
0.405
0.44
0.495
0.53
0.575
0.615
0.65
0.66
0.65
0.605
0.53
0.46
0.4
0.34
0.3
0.27
0.25
0.245
0.23
0.225
0.24
0.23
0.24
0.25
0.26
0.265
0.265
0.265
0.26
0.255
0.25
0.25
0.245
0.25
0.24
0.24
0.225
0.24
0.23
0.24
0.24
0.28
0.28
0.295
0.335
0.425
0.43
0.4
0.375
0.295
0.24
0.24
0.24
0.22
0.2
0.2
0.145
0.285
0.88
1.68
1.34
0.41
0.14
0.18
0.185
0.21
0.24
0.24
0.24
0.25
0.25
0.255
0.27
0.28
0.29
0.3
0.32
0.325
0.35
0.375
0.41
0.45
0.49
0.52
0.56
0.58
0.605
0.6
0.565
0.505
0.42
0.365
0.33
0.285
0.26
0.24
0.23
0.225
0.24
0.225
0.225
0.24
0.24
0.25
0.25
0.265
0.28
0.265
0.265
0.26
0.265
0.255
0.26
0.26
0.25
0.25
0.25
0.245
0.25
0.245
0.26
0.28
0.315
0.325
0.345
0.45
0.475
0.43
0.415
0.335
0.265
0.26
0.245
0.23
0.22
0.205
0.16
0.24
0.76
1.625
1.685
0.775
0.23
0.225
0.2
0.23
0.225
0.24
0.24
0.245
0.26
0.26
0.26
0.28
0.285
0.3
0.32
0.34
0.35
0.38
0.405
0.44
0.475
0.525
0.56
0.6
0.62
0.63
0.615
0.56
0.49
0.43
0.38
0.335
0.32
0.28
0.27
0.265
0.25
0.25
0.255
0.265
0.27
0.28
0.29
0.305
0.285
0.3
0.29
0.295
0.285
0.3
0.285
0.285
0.295
0.285
0.28
0.28
0.28
0.28
0.28
0.28
0.285
0.31
0.34
0.35
0.4
0.49
0.52
0.495
0.47
0.4
0.305
0.31
0.3
0.285
0.26
0.255
0.22
0.215
0.74
1.73
2.05
1.135
0.34
0.3
0.245
0.265
0.26
0.28
0.285
0.28
0.29
0.3
0.3
0.33
0.325
0.34
0.36
0.375
0.39
0.41
0.44
0.47
0.51
0.55
0.59
0.635
0.66
0.68
0.66
0.605
0.53
0.465
0.4
0.35
0.305
0.29
0.26
0.255
0.22
0.21
0.2
0.2
0.2
0.2
0.185
0.2
0.18
0.175
0.16
0.165
0.14
0.13
0.105
0.095
0.08
0.08
0.05
0.04
0.025
0.015
0.005
-0.015
-0.03
-0.05
-0.08
-0.08
-0.065
-0.05
-0.075
-0.02
0.06
0.045
-0.01
-0.04
-0.18
-0.26
-0.28
-0.305
-0.36
-0.38
-0.43
-0.515
-0.41
0.27
1.28
1.115
-0.005
-0.52
-0.59
-0.615
-0.63
-0.655
-0.67
-0.69
-0.715
-0.71
-0.74
-0.75
-0.77
-0.775
-0.795
-0.805
-0.815
-0.81
-0.82
-0.815
-0.81
-0.795
-0.78
-0.76
-0.76
-0.745
-0.76
-0.795
-0.87
-0.96
-1.055
-1.13
-1.215
-1.26
-1.31
-1.345
-1.4
-1.415
-1.445
-1.46
-1.475
-1.49
-1.515
-1.51
-1.545
-1.56
-1.58
-1.595
-1.635
-1.65
-1.69
-1.71
-1.74
-1.76
-1.79
-1.8
-1.835
-1.85
-1.875
-1.88
-1.915
-1.92
-1.955
-1.955
-1.98
-1.985
-2.0
-1.975
-1.98
-1.98
-1.9
-1.82
-1.865
-1.895
-1.965
-2.07
-2.12
-2.12
-2.15
-2.17
-2.195
-2.215
-2.3
-2.035
-1.23
-0.315
-0.915
-2.025
-2.245
-2.275
-2.28
-2.26
-2.265
-2.25
-2.255
-2.245
-2.24
-2.225
-2.23
-2.2
-2.21
-2.18
-2.18
-2.15
-2.14
-2.105
-2.09
-2.04
-2.01
-1.96
-1.93
-1.89
-1.865
-1.835
-1.85
-1.89
-1.96
-2.0
-2.06
-2.09
-2.12
-2.13
-2.14
-2.12
-2.13
-2.11
-2.095
-2.065
-2.06
-2.035
-2.03
-2.0
-1.995
-1.975
-1.99
-1.96
-1.97
-1.95
-1.945
-1.925
-1.93
-1.905
-1.905
-1.88
-1.875
-1.85
-1.84
-1.82
-1.815
-1.785
-1.785
-1.755
-1.745
-1.72
-1.705
-1.64
-1.63
-1.535
-1.415
-1.395
-1.42
-1.415
-1.515
-1.55
-1.555
-1.535
-1.55
-1.53
-1.52
-1.57
-1.475
-0.815
0.175
0.1
-0.98
-1.47
-1.43
-1.39
-1.35
-1.305
-1.3
-1.26
-1.245
-1.2
-1.19
-1.15
-1.145
-1.095
-1.08
-1.025
-1.015
-0.96
-0.935
-0.88
-0.845
-0.78
-0.74
-0.675
-0.65
-0.6
-0.58
-0.56
-0.615
-0.65
-0.715
-0.755
-0.805
-0.81
-0.82
-0.81
-0.815
-0.785
-0.78
-0.745
-0.745
-0.715
-0.71
-0.68
-0.68
-0.65
-0.65
-0.63
-0.64
-0.62
-0.615
-0.6
-0.6
-0.59
-0.585
-0.56
-0.555
-0.54
-0.535
-0.515
-0.515
-0.49
-0.5
-0.47
-0.49
-0.445
-0.455
-0.42
-0.4
-0.35
-0.35
-0.28
-0.17
-0.12
-0.16
-0.165
-0.255
-0.31
-0.32
-0.3
-0.325
-0.315
-0.335
-0.37
-0.36
0.2
1.18
1.52
0.5
-0.31
-0.34
-0.35
-0.33
-0.29
-0.305
-0.28
-0.275
-0.25
-0.27
-0.235
-0.24
-0.22
-0.22
-0.2
-0.2
-0.17
-0.175
-0.15
-0.14
-0.1
-0.08
-0.05
-0.06
-0.02
-0.025
-0.03
-0.08
-0.14
-0.235
-0.28
-0.38
-0.42
-0.48
-0.495
-0.54
-0.545
-0.58
-0.59
-0.62
-0.62
-0.655
-0.66
-0.7
-0.72
-0.76
-0.78
-0.83
-0.85
-0.9
-0.915
-0.96
-0.995
-1.04
-1.06
-1.115
-1.135
-1.17
-1.2
-1.25
-1.26
-1.31
-1.33
-1.36
-1.39
-1.445
-1.455
-1.5
-1.48
-1.505
-1.52
-1.49
-1.41
-1.46
-1.495
-1.565
-1.68
-1.785
-1.8
-1.855
-1.88
-1.925
-1.95
-2.05
-1.99
-1.4
-0.39
-0.395
-1.46
-2.095
-2.105
-2.15
-2.13
-2.155
-2.14
-2.16
-2.135
-2.16
-2.14
-2.155
-2.14
-2.145
-2.125
-2.14
-2.11
-2.11
-2.075
-2.07
-2.03
-2.02
-1.97
-1.94
-1.91
-1.89
-1.84
-1.84
-1.84
-1.925
-1.96
-2.04
-2.07
-2.13
-2.135
-2.155
-2.14
-2.16
-2.145
-2.15
-2.12
-2.135
-2.105
-2.115
-2.095
-2.1
-2.08
-2.09
-2.075
-2.09
-2.06
-2.09
-2.07
-2.08
-2.06
-2.065
-2.055
-2.06
-2.035
-2.04
-2.015
-2.03
-2.0
-2.015
-1.99
-2.0
-1.985
-1.99
-1.955
-1.945
-1.89
-1.885
-1.8
-1.7
-1.665
-1.695
-1.695
-1.79
-1.83
-1.835
-1.82
-1.84
-1.83
-1.84
-1.87
-1.84
-1.25
-0.255
-0.03
-1.05
-1.72
-1.73
-1.73
-1.71
-1.665
-1.675
-1.63
-1.62
-1.585
-1.575
-1.535
-1.52
-1.49
-1.47
-1.435
-1.415
-1.38
-1.36
-1.3
-1.28
-1.22
-1.185
-1.12
-1.09
-1.035
-1.0
-0.96
-0.97
-0.99
-1.04
-1.075
-1.12
-1.125
-1.145
-1.13
-1.13
-1.095
-1.095
-1.04
-1.04
-1.0
-0.995
-0.95
-0.95
-0.915
-0.91
-0.88
-0.88
-0.855
-0.84
-0.825
-0.82
-0.795
-0.805
-0.77
-0.77
-0.72
-0.72
-0.7
-0.7
-0.66
-0.66
-0.63
-0.62
-0.59
-0.585
-0.555
-0.55
-0.485
-0.46
-0.415
-0.34
-0.22
-0.235
-0.21
-0.24
-0.32
-0.38
-0.35
-0.36
-0.355
-0.36
-0.355
-0.42
-0.28
0.37
1.4
1.25
0.22
-0.275
-0.26
-0.265
-0.225
-0.22
-0.195
-0.2
-0.16
-0.16
-0.13
-0.13
-0.1
-0.095
-0.06
-0.06
-0.025
-0.02
0.02
0.02
0.06
0.085
0.125
0.145
0.175
0.18
0.22
0.205
0.2
0.14
0.105
0.02
-0.02
-0.08
-0.095
-0.12
-0.12
-0.14
-0.12
-0.14
-0.12
-0.14
-0.12
-0.14
-0.13
-0.155
-0.14
-0.165
-0.165
-0.19
-0.18
-0.21
-0.2
-0.225
-0.235
-0.255
-0.255
-0.265
-0.26
-0.275
-0.28
-0.295
-0.28
-0.3
-0.29
-0.32
-0.315
-0.325
-0.31
-0.3
-0.275
-0.29
-0.195
-0.125
-0.13
-0.165
-0.21
-0.33
-0.36
-0.38
-0.385
-0.425
-0.43
-0.46
-0.51
-0.36
0.36
1.32
0.985
-0.115
-0.455
-0.485
-0.48
-0.46
-0.44
-0.45
-0.435
-0.44
-0.415
-0.42
-0.395
-0.4
-0.38
-0.375
-0.345
-0.32
-0.31
-0.3
-0.265
-0.255
-0.215
-0.195
-0.155
-0.145
-0.1
-0.1
-0.065
-0.1
-0.145
-0.21
-0.25
-0.315
-0.325
-0.35
-0.35
-0.36
-0.34
-0.355
-0.335
-0.335
-0.31
-0.3
-0.29
-0.3
-0.28
-0.285
-0.28
-0.28
-0.275
-0.275
-0.27
-0.275
-0.265
-0.27
-0.255
-0.26
-0.24
-0.25
-0.235
-0.235
-0.22
-0.215
-0.2
-0.215
-0.19
-0.2
-0.175
-0.16
-0.12
-0.095
-0.07
0.005
0.115
0.1
0.105
0.06
-0.02
-0.09
-0.07
-0.075
-0.08
-0.095
-0.08
-0.15
-0.01
0.65
1.66
1.48
0.44
-0.02
-0.02
-0.025
0.005
0.02
0.04
0.04
0.08
0.08
0.11
0.12
0.155
0.165
0.2
0.205
0.245
0.26
0.3
0.31
0.36
0.37
0.425
0.465
0.495
0.53
0.57
0.585
0.58
0.545
0.49
0.44
0.4
0.36
0.36
0.36
0.36
0.36
0.37
0.365
0.4
0.4
0.42
0.44
0.445
0.44
0.455
0.45
0.45
0.45
0.46
0.45
0.46
0.45
0.465
0.465
0.475
0.47
0.49
0.475
0.49
0.485
0.5
0.495
0.51
0.51
0.52
0.52
0.56
0.585
0.61
0.645
0.77
0.79
0.775
0.745
0.68
0.59
0.6
0.58
0.58
0.56
0.565
0.51
0.525
0.96
1.9
2.365
1.5
0.6
0.6
0.545
0.57
0.585
0.6
0.6
0.62
0.62
0.64
0.645
0.66
0.665
0.7
0.705
0.74
0.75
0.78
0.785
0.82
0.84
0.885
0.905
0.94
0.96
0.985
1.0
1.0
0.96
0.92
0.85
0.805
0.76
0.75
0.735
0.73
0.73
0.73
0.72
0.74
0.74
0.76
0.76
0.76
0.765
0.77
0.75
0.77
0.75
0.76
0.76
0.75
0.74
0.745
0.74
0.745
0.73
0.74
0.72
0.745
0.72
0.735
0.725
0.73
0.73
0.74
0.77
0.785
0.795
0.9
0.97
0.96
0.93
0.89
0.78
0.74
0.74
0.725
0.7
0.7
0.67
0.625
0.845
1.62
2.505
2.02
0.92
0.69
0.655
0.68
0.685
0.7
0.69
0.72
0.72
0.73
0.73
0.76
0.76
0.77
0.79
0.81
0.825
0.84
0.86
0.885
0.91
0.94
0.97
1.0
1.025
1.05
1.07
1.07
1.04
0.99
0.92
0.88
0.82
0.795
0.765
0.765
0.76
0.765
0.76
0.77
0.765
0.785
0.76
0.785
0.77
0.775
0.765
0.76
0.755
0.76
0.74
0.735
0.73
0.73
0.72
0.72
0.705
0.73
0.72
0.72
0.72
0.72
0.71
0.72
0.705
0.73
0.75
0.77
0.79
0.89
0.95
0.92
0.895
0.82
0.72
0.72
0.695
0.685
0.66
0.66
0.62
0.6
0.97
1.845
2.495
1.74
0.71
0.65
0.605
0.635
0.645
0.67
0.645
0.67
0.65
0.68
0.68
0.695
0.7
0.725
0.725
0.745
0.76
0.77
0.785
0.81
0.835
0.865
0.9
0.92
0.945
0.96
0.975
0.98
0.93
0.88
0.805
0.76
0.72
0.69
0.67
0.66
0.65
0.65
0.66
0.67
0.67
0.685
0.69
0.68
0.68
0.685
0.67
0.67
0.66
0.66
0.65
0.64
0.635
0.645
0.635
0.64
0.635
0.625
0.62
0.625
0.62
0.62
0.62
0.63
0.65
0.69
0.68
0.745
0.845
0.86
0.84
0.81
0.71
0.645
0.635
0.63
0.61
0.59
0.57
0.53
0.56
1.1
2.07
2.3
1.32
0.58
0.57
0.54
0.55
0.565
0.57
0.585
0.59
0.605
0.61
0.625
0.64
0.66
0.66
0.685
0.705
0.71
0.74
0.76
0.77
0.81
0.84
0.86
0.88
0.905
0.945
0.96
0.92
0.87
0.81
0.75
0.69
0.655
0.625
0.61
0.61
0.6
0.605
0.615
0.62
0.62
0.63
0.63
0.63
0.635
0.625
0.625
0.625
0.61
0.61
0.6
0.6
0.6
0.6
0.59
0.59
0.585
0.585
0.59
0.58
0.59
0.585
0.605
0.64
0.645
0.68
0.78
0.825
0.795
0.77
0.69
0.585
0.585
0.58
0.56
0.54
0.535
0.475
0.48
0.945
1.9
2.345
1.445
0.54
0.525
0.485
0.505
0.525
0.525
0.53
0.54
0.545
0.56
0.57
0.58
0.585
0.61
0.615
0.635
0.66
0.67
0.68
0.72
0.73
0.79
0.795
0.82
0.85
0.88
0.88
0.85
0.8
0.735
0.68
0.625
0.58
0.56
0.56
0.53
0.53
0.525
0.54
0.545
0.54
0.54
0.55
0.56
0.56
0.545
0.545
0.54
0.54
0.53
0.525
0.52
0.51
0.51
0.52
0.49
0.5
0.5
0.49
0.485
0.475
0.495
0.51
0.54
0.54
0.615
0.705
0.695
0.68
0.635
0.525
0.475
0.465
0.44
0.425
0.405
0.4
0.33
0.45
1.12
2.13
1.915
0.84
0.365
0.36
0.335
0.35
0.36
0.36
0.36
0.36
0.37
0.385
0.375
0.4
0.4
0.42
0.425
0.445
0.46
0.47
0.48
0.52
0.54
0.57
0.605
0.625
0.64
0.655
0.64
0.6
0.54
0.47
0.41
0.36
0.315
0.3
0.27
0.28
0.26
0.26
0.25
0.26
0.26
0.26
0.25
0.25
0.24
0.24
0.24
0.2
0.19
0.185
0.165
0.155
0.135
0.12
0.1
0.1
0.08
0.08
0.05
0.08
0.08
0.07
0.1
0.2
0.2
0.165
0.12
0.005
-0.08
-0.1
-0.14
-0.175
-0.2
-0.23
-0.305
-0.29
0.25
1.24
1.435
0.41
-0.36
-0.385
-0.435
-0.425
-0.435
-0.45
-0.47
-0.47
-0.495
-0.495
-0.515
-0.515
-0.53
-0.54
-0.54
-0.53
-0.54
-0.535
-0.535
-0.52
-0.51
-0.495
-0.485
-0.465
-0.47
-0.47
-0.505
-0.55
-0.645
-0.72
-0.805
-0.87
-0.93
-0.96
-1.0
-1.015
-1.05
-1.055
-1.095
-1.09
-1.125
-1.125
-1.16
-1.165
-1.2
-1.2
-1.23
-1.255
-1.29
-1.305
-1.34
-1.355
-1.39
-1.395
-1.435
-1.435
-1.475
-1.475
-1.505
-1.505
-1.505
-1.48
-1.505
-1.445
-1.37
-1.36
-1.41
-1.455
-1.59
-1.64
-1.665
-1.68
-1.72
-1.73
-1.76
-1.825
-1.71
-1.03
-0.03
-0.18
-1.3
-1.795
-1.835
-1.835
-1.84
-1.83
-1.835
-1.83
-1.83
-1.8
-1.81
-1.78
-1.8
-1.775
-1.77
-1.74
-1.74
-1.71
-1.695
-1.655
-1.63
-1.59
-1.555
-1.495
-1.48
-1.445
-1.44
-1.425
-1.48
-1.52
-1.6
-1.64
-1.695
-1.7
-1.73
-1.73
-1.735
-1.72
-1.72
-1.7
-1.695
-1.665
-1.675
-1.65
-1.645
-1.62
-1.635
-1.61
-1.615
-1.59
-1.6
-1.58
-1.58
-1.575
-1.58
-1.55
-1.54
-1.535
-1.52
-1.49
-1.455
-1.425
-1.41
-1.275
-1.2
-1.2
-1.22
-1.275
-1.355
-1.355
-1.36
-1.355
-1.36
-1.345
-1.375
-1.395
-1.065
-0.18
0.65
-0.015
-1.11
-1.22
-1.255
-1.22
-1.195
-1.17
-1.16
-1.13
-1.11
-1.075
-1.055
-1.05
-1.01
-0.97
-0.945
-0.91
-0.88
-0.84
-0.81
-0.75
-0.71
-0.65
-0.6
-0.545
-0.52
-0.475
-0.46
-0.47
-0.52
-0.56
-0.62
-0.64
-0.68
-0.69
-0.695
-0.68
-0.68
-0.655
-0.65
-0.625
-0.615
-0.595
-0.58
-0.595
-0.58
-0.56
-0.56
-0.54
-0.535
-0.515
-0.505
-0.5
-0.5
-0.485
-0.475
-0.47
-0.46
-0.44
-0.435
-0.4
-0.39
-0.34
-0.335
-0.24
-0.15
-0.135
-0.14
-0.15
-0.255
-0.315
-0.3
-0.3
-0.31
-0.32
-0.31
-0.375
-0.26
0.415
1.45
1.37
0.3
-0.255
-0.255
-0.25
-0.235
-0.21
-0.2
-0.195
-0.175
-0.165
-0.15
-0.135
-0.12
-0.105
-0.08
-0.065
-0.055
-0.03
-0.015
0.02
0.045
0.09
0.12
0.155
0.185
0.2
0.21
0.165
0.085
0.01
-0.115
-0.165
-0.22
-0.28
-0.31
-0.35
-0.375
-0.4
-0.42
-0.45
-0.475
-0.49
-0.51
-0.55
-0.56
-0.595
-0.62
-0.66
-0.7
-0.74
-0.775
-0.815
-0.865
-0.91
-0.955
-0.995
-1.035
-1.08
-1.115
-1.135
-1.155
-1.19
-1.175
-1.125
-1.175
-1.235
-1.3
-1.445
-1.55
-1.585
-1.63
-1.68
-1.735
-1.78
-1.865
-1.775
-1.16
-0.21
-0.425
-1.64
-2.16
-2.105
-2.105
-2.075
-2.07
-2.085
-2.1
-2.095
-2.11
-2.115
-2.12
-2.12
-2.115
-2.12
-2.11
-2.085
-2.075
-2.06
-2.025
-1.98
-1.945
-1.905
-1.86
-1.84
-1.82
-1.84
-1.875
-1.95
-2.025
-2.1
-2.17
-2.215
-2.25
-2.265
-2.28
-2.28
-2.27
-2.28
-2.28
-2.28
-2.265
-2.26
-2.255
-2.24
-2.245
-2.235
-2.24
-2.235
-2.22
-2.235
-2.23
-2.22
-2.225
-2.22
-2.205
-2.21
-2.2
-2.195
-2.16
-2.12
-2.105
-2.06
-1.955
-1.93
-1.95
-1.96
-2.0
-2.06
-2.06
-2.055
-2.06
-2.065
-2.06
-2.095
-2.04
-1.575
-0.76
-0.6
-1.5
-2.115
-2.03
-2.0
-1.94
-1.905
-1.9
-1.89
-1.865
-1.84
-1.83
-1.82
-1.8
-1.785
-1.755
-1.75
-1.72
-1.68
-1.655
-1.615
-1.575
-1.52
-1.475
-1.43
-1.395
-1.36
-1.35
-1.37
-1.415
-1.47
-1.52
-1.555
-1.59
-1.59
-1.585
-1.59
-1.575
-1.555
-1.55
-1.54
-1.52
-1.515
-1.5
-1.48
-1.45
-1.43
-1.415
-1.395
-1.38
-1.36
-1.345
-1.35
-1.32
-1.31
-1.295
-1.285
-1.26
-1.2
-1.19
-1.13
-1.04
-1.04
-1.035
-1.04
-1.1
-1.14
-1.125
-1.125
-1.13
-1.115
-1.125
-1.14
-1.03
-0.505
0.28
0.145
-0.695
-1.05
-1.01
-0.99
-0.94
-0.92
-0.9
-0.88
-0.855
-0.835
-0.81
-0.78
-0.76
-0.72
-0.7
-0.67
-0.63
-0.605
-0.56
-0.51
-0.46
-0.4
-0.34
-0.28
-0.24
-0.2
-0.2
-0.22
-0.27
-0.32
-0.38
-0.41
-0.43
-0.43
-0.42
-0.4
-0.39
-0.375
-0.37
-0.36
-0.35
-0.335
-0.315
-0.3
-0.28
-0.255
-0.24
-0.21
-0.2
-0.18
-0.17
-0.165
-0.16
-0.14
-0.12
-0.11
-0.06
-0.03
-0.005
0.07
0.155
0.16
0.15
0.14
0.065
0.02
0.04
0.04
0.04
0.04
0.04
0.005
0.185
0.85
1.715
1.385
0.44
0.16
0.15
0.155
0.185
0.2
0.2
0.24
0.245
0.26
0.29
0.32
0.335
0.36
0.38
0.405
0.445
0.47
0.505
0.545
0.6
0.655
0.72
0.78
0.83
0.86
0.88
0.84
0.795
0.72
0.66
0.62
0.6
0.59
0.59
0.585
0.585
0.56
0.53
0.545
0.56
0.565
0.565
0.58
0.59
0.61
0.625
0.635
0.64
0.65
0.66
0.665
0.67
0.695
0.705
0.74
0.77
0.78
0.86
0.96
0.955
0.945
0.92
0.81
0.76
0.77
0.77
0.765
0.745
0.74
0.67
0.86
1.62
2.695
2.44
1.305
0.865
0.815
0.795
0.82
0.815
0.82
0.83
0.845
0.86
0.88
0.88
0.9
0.92
0.94
0.96
0.99
1.01
1.05
1.08
1.15
1.2
1.27
1.34
1.365
1.4
1.4
1.345
1.275
1.185
1.115
1.07
1.04
1.02
1.005
1.0
1.0
0.985
0.99
0.97
0.965
0.965
0.98
0.98
0.98
0.985
1.0
1.01
1.005
1.015
1.0
1.0
1.005
1.0
1.0
1.0
1.04
1.06
1.06
1.13
1.225
1.22
1.2
1.16
1.045
0.99
0.98
0.96
0.945
0.93
0.9
0.84
0.975
1.68
2.74
2.54
1.38
0.88
0.88
0.86
0.88
0.885
0.885
0.89
0.89
0.89
0.91
0.91
0.93
0.935
0.94
0.95
0.97
0.98
1.02
1.07
1.115
1.16
1.225
1.27
1.3
1.32
1.29
1.225
1.13
1.04
0.96
0.885
0.85
0.82
0.81
0.78
0.77
0.76
0.75
0.73
0.72
0.705
0.72
0.7
0.705
0.7
0.72
0.71
0.705
0.69
0.68
0.685
0.68
0.68
0.68
0.67
0.68
0.72
0.705
0.76
0.84
0.84
0.805
0.78
0.695
0.63
0.63
0.61
0.6
0.58
0.56
0.51
0.53
1.01
1.86
1.985
1.06
0.42
0.5
0.5
0.54
0.54
0.56
0.56
0.56
0.57
0.57
0.58
0.6
0.59
0.61
0.62
0.64
0.66
0.7
0.73
0.77
0.82
0.88
0.91
0.95
0.96
0.945
0.9
0.82
0.74
0.68
0.62
0.585
0.575
0.57
0.54
0.53
0.52
0.525
0.52
0.505
0.505
0.505
0.5
0.52
0.51
0.52
0.53
0.525
0.52
0.52
0.525
0.54
0.535
0.545
0.54
0.585
0.58
0.6
0.68
0.725
0.695
0.68
0.625
0.57
0.545
0.54
0.53
0.52
0.505
0.49
0.465
0.76
1.425
1.965
1.335
0.53
0.475
0.5
0.51
0.545
0.535
0.56
0.56
0.565
0.57
0.57
0.58
0.605
0.61
0.625
0.635
0.67
0.685
0.735
0.75
0.805
0.86
0.92
0.94
0.98
0.965
0.96
0.88
0.805
0.735
0.69
0.65
0.63
0.61
0.62
0.6
0.595
0.57
0.58
0.565
0.57
0.56
0.57
0.57
0.59
0.575
0.59
0.6
0.6
0.6
0.6
0.61
0.61
0.585
0.6
0.59
0.605
0.62
0.65
0.645
0.73
0.78
0.775
0.745
0.73
0.625
0.6
0.58
0.58
0.56
0.56
0.53
0.49
0.68
1.345
2.17
1.81
0.85
0.605
0.56
0.56
0.56
0.56
0.56
0.58
0.575
0.59
0.58
0.605
0.6
0.625
0.625
0.65
0.66
0.69
0.69
0.74
0.78
0.83
0.88
0.925
0.945
0.98
0.97
0.93
0.845
0.805
0.72
0.68
0.645
0.63
0.62
0.61
0.585
0.6
0.57
0.575
0.56
0.565
0.56
0.575
0.57
0.59
0.585
0.6
0.6
0.59
0.58
0.6
0.585
0.59
0.58
0.6
0.575
0.585
0.57
0.615
0.625
0.635
0.68
0.78
0.76
0.76
0.72
0.64
0.57
0.575
0.545
0.54
0.52
0.52
0.46
0.52
0.99
1.855
2.05
1.24
0.6
0.54
0.475
0.49
0.485
0.49
0.47
0.49
0.475
0.495
0.485
0.5
0.49
0.5
0.5
0.52
0.52
0.545
0.545
0.59
0.61
0.66
0.685
0.735
0.745
0.785
0.74
0.69
0.6
0.545
0.49
0.445
0.415
0.405
0.375
0.375
0.345
0.34
0.32
0.315
0.29
0.3
0.29
0.31
0.29
0.3
0.29
0.3
0.28
0.29
0.265
0.28
0.26
0.27
0.25
0.245
0.24
0.245
0.22
0.225
0.2
0.24
0.255
0.27
0.285
0.4
0.38
0.37
0.33
0.25
0.17
0.17
0.14
0.13
0.1
0.105
0.055
0.06
0.43
1.27
1.66
0.955
0.2
0.14
0.06
0.085
0.06
0.08
0.065
0.08
0.06
0.085
0.07
0.1
0.1
0.11
0.12
0.14
0.14
0.175
0.18
0.21
0.23
0.295
0.32
0.35
0.375
0.405
0.4
0.36
0.285
0.25
0.175
0.15
0.11
0.1
0.08
0.08
0.045
0.06
0.03
0.05
0.04
0.06
0.05
0.08
0.065
0.085
0.08
0.08
0.08
0.08
0.06
0.08
0.06
0.08
0.06
0.065
0.06
0.08
0.065
0.07
0.06
0.105
0.105
0.135
0.16
0.265
0.28
0.26
0.24
0.145
0.08
0.09
0.055
0.08
0.035
0.045
-0.01
0.04
0.5
1.36
1.52
0.725
0.12
0.09
0.04
0.065
0.05
0.08
0.06
0.08
0.065
0.1
0.09
0.12
0.12
0.14
0.14
0.17
0.165
0.19
0.185
0.23
0.24
0.285
0.3
0.345
0.35
0.38
0.36
0.34
0.25
0.21
0.135
0.105
0.06
0.04
0.01
0.0
-0.03
-0.025
-0.05
-0.04
-0.07
-0.06
-0.08
-0.065
-0.105
-0.1
-0.135
-0.145
-0.18
-0.18
-0.22
-0.22
-0.26
-0.26
-0.3
-0.31
-0.34
-0.345
-0.385
-0.385
-0.425
-0.435
-0.44
-0.43
-0.46
-0.425
-0.37
-0.35
-0.42
-0.455
-0.59
-0.67
-0.695
-0.74
-0.795
-0.82
-0.87
-0.92
-0.93
-0.485
0.305
0.465
-0.44
-1.055
-1.09
-1.125
-1.155
-1.145
-1.195
-1.2
-1.23
-1.24
-1.275
-1.27
-1.29
-1.3
-1.32
-1.31
-1.33
-1.31
-1.33
-1.31
-1.315
-1.29
-1.28
-1.255
-1.26
-1.24
-1.26
-1.285
-1.36
-1.43
-1.51
-1.57
-1.65
-1.68
-1.73
-1.735
-1.78
-1.78
-1.8
-1.8
-1.83
-1.825
-1.85
-1.84
-1.865
-1.86
-1.9
-1.89
-1.905
-1.905
-1.94
-1.94
-1.965
-1.96
-1.98
-1.97
-2.0
-1.995
-2.0
-2.0
-2.0
-1.995
-1.98
-1.96
-1.95
-1.84
-1.79
-1.81
-1.84
-1.9
-1.98
-1.995
-2.0
-2.01
-2.03
-2.03
-2.055
-2.07
-1.805
-1.08
-0.48
-1.175
-2.13
-2.13
-2.085
-2.015
-1.985
-1.945
-1.935
-1.91
-1.9
-1.88
-1.875
-1.84
-1.825
-1.78
-1.77
-1.72
-1.705
-1.65
-1.62
-1.57
-1.52
-1.445
-1.4
-1.355
-1.335
-1.295
-1.31
-1.32
-1.39
-1.445
-1.505
-1.52
-1.55
-1.545
-1.555
-1.545
-1.54
-1.52
-1.51
-1.47
-1.45
-1.415
-1.4
-1.385
-1.375
-1.355
-1.355
-1.33
-1.32
-1.31
-1.305
-1.285
-1.275
-1.24
-1.235
-1.215
-1.2
-1.17
-1.17
-1.15
-1.13
-1.075
-1.04
-1.0
-0.915
-0.81
-0.815
-0.82
-0.83
-0.9
-0.935
-0.91
-0.915
-0.91
-0.91
-0.895
-0.95
-0.735
-0.05
0.865
0.45
-0.56
-0.83
-0.79
-0.77
-0.72
-0.695
-0.67
-0.645
-0.62
-0.62
-0.585
-0.56
-0.52
-0.505
-0.47
-0.455
-0.4
-0.37
-0.345
-0.325
-0.265
-0.225
-0.165
-0.13
-0.08
-0.065
-0.035
-0.045
-0.065
-0.12
-0.155
-0.2
-0.22
-0.24
-0.235
-0.24
-0.235
-0.23
-0.2
-0.2
-0.17
-0.16
-0.12
-0.12
-0.1
-0.095
-0.08
-0.08
-0.07
-0.06
-0.06
-0.055
-0.04
-0.04
-0.03
-0.04
-0.02
-0.015
-0.01
-0.015
0.005
0.01
0.055
0.08
0.09
0.165
0.245
0.22
0.21
0.17
0.08
0.04
0.04
0.02
0.02
-0.005
-0.02
-0.08
0.13
0.825
1.7
1.28
0.305
0.04
-0.025
-0.04
-0.03
-0.04
-0.04
-0.05
-0.04
-0.06
-0.05
-0.06
-0.06
-0.06
-0.065
-0.07
-0.06
-0.055
-0.06
-0.05
-0.04
-0.03
0.01
0.025
0.05
0.06
0.08
0.045
-0.01
-0.08
-0.15
-0.22
-0.275
-0.31
-0.335
-0.36
-0.385
-0.41
-0.435
-0.44
-0.46
-0.485
-0.48
-0.49
-0.5
-0.51
-0.51
-0.52
-0.535
-0.56
-0.57
-0.58
-0.59
-0.6
-0.6
-0.635
-0.63
-0.645
-0.655
-0.66
-0.66
-0.68
-0.67
-0.655
-0.635
-0.645
-0.58
-0.505
-0.51
-0.535
-0.57
-0.675
-0.72
-0.735
-0.75
-0.775
-0.785
-0.805
-0.84
-0.775
-0.22
0.68
0.705
-0.19
-0.7
-0.755
-0.79
-0.79
-0.79
-0.775
-0.78
-0.77
-0.755
-0.76
-0.745
-0.72
-0.72
-0.71
-0.69
-0.68
-0.645
-0.645
-0.63
-0.59
-0.56
-0.535
-0.49
-0.47
-0.425
-0.4
-0.38
-0.415
-0.44
-0.495
-0.54
-0.575
-0.6
-0.6
-0.62
-0.63
-0.62
-0.62
-0.6
-0.6
-0.59
-0.585
-0.555
-0.55
-0.54
-0.53
-0.52
-0.52
-0.5
-0.51
-0.495
-0.475
-0.475
-0.465
-0.46
-0.45
-0.43
-0.43
-0.415
-0.41
-0.395
-0.4
-0.37
-0.33
-0.31
-0.28
-0.2
-0.11
-0.105
-0.12
-0.15
-0.23
-0.265
-0.26
-0.26
-0.26
-0.27
-0.275
-0.31
-0.14
0.525
1.38
1.04
0.12
-0.14
-0.18
-0.18
-0.16
-0.15
-0.135
-0.11
-0.105
-0.08
-0.07
-0.04
-0.025
-0.01
0.01
0.03
0.04
0.08
0.1
0.125
0.165
0.19
0.22
0.265
0.3
0.325
0.35
0.375
0.34
0.315
0.26
0.22
0.185
0.17
0.165
0.17
0.17
0.2
0.19
0.205
0.22
0.24
0.24
0.26
0.265
0.265
0.28
0.28
0.28
0.305
0.29
0.3
0.3
0.32
0.32
0.315
0.315
0.32
0.33
0.34
0.34
0.36
0.35
0.38
0.43
0.44
0.485
0.585
0.62
0.6
0.58
0.5
0.42
0.44
0.42
0.405
0.41
0.4
0.36
0.4
0.85
1.7
1.94
1.115
0.485
0.465
0.43
0.45
0.46
0.46
0.47
0.485
0.5
0.51
0.52
0.54
0.56
0.565
0.57
0.6
0.62
0.63
0.645
0.665
0.69
0.72
0.76
0.78
0.795
0.815
0.83
0.83
0.79
0.74
0.69
0.645
0.61
0.605
0.6
0.59
0.59
0.6
0.61
0.615
0.62
0.63
0.635
0.64
0.635
0.635
0.635
0.635
0.635
0.63
0.63
0.63
0.63
0.63
0.63
0.635
0.63
0.63
0.635
0.64
0.625
0.635
0.665
0.705
0.72
0.75
0.84
0.885
0.86
0.84
0.745
0.68
0.665
0.655
0.65
0.635
0.62
0.58
0.605
1.08
1.91
2.175
1.34
0.645
0.64
0.62
0.63
0.635
0.645
0.655
0.665
0.68
0.68
0.69
0.705
0.705
0.74
0.745
0.76
0.785
0.8
0.82
0.855
0.88
0.91
0.945
0.965
0.985
1.01
1.005
0.99
0.93
0.86
0.805
0.77
0.725
0.705
0.7
0.69
0.69
0.7
0.695
0.705
0.71
0.72
0.72
0.72
0.72
0.72
0.72
0.7
0.69
0.7
0.69
0.69
0.7
0.69
0.68
0.685
0.68
0.685
0.68
0.69
0.72
0.725
0.745
0.86
0.905
0.88
0.86
0.79
0.7
0.69
0.685
0.67
0.65
0.635
0.62
0.605
0.97
1.755
2.27
1.45
0.505
0.53
0.56
0.62
0.635
0.645
0.66
0.68
0.67
0.69
0.7
0.72
0.72
0.74
0.77
0.78
0.795
0.82
0.84
0.865
0.895
0.935
0.955
0.98
0.99
1.005
1.01
0.985
0.92
0.85
0.79
0.735
0.7
0.68
0.66
0.665
0.665
0.665
0.67
0.68
0.685
0.69
0.685
0.685
0.68
0.68
0.67
0.66
0.65
0.64
0.635
0.625
0.61
0.62
0.605
0.605
0.605
0.61
0.6
0.6
0.6
0.65
0.645
0.665
0.72
0.81
0.795
0.78
0.735
0.63
0.56
0.57
0.56
0.56
0.505
0.51
0.43
0.565
1.2
2.16
2.0
1.0
0.545
0.475
0.45
0.475
0.465
0.47
0.465
0.475
0.465
0.475
0.47
0.475
0.475
0.5
0.49
0.505
0.505
0.525
0.535
0.56
0.58
0.605
0.62
0.66
0.66
0.7
0.68
0.645
0.58
0.54
0.46
0.43
0.4
0.38
0.345
0.36
0.325
0.315
0.31
0.32
0.305
0.32
0.305
0.32
0.32
0.31
0.295
0.3
0.28
0.28
0.27
0.265
0.26
0.255
0.24
0.245
0.225
0.23
0.215
0.24
0.24
0.27
0.27
0.33
0.42
0.425
0.405
0.39
0.26
0.2
0.185
0.175
0.155
0.155
0.125
0.08
0.12
0.67
1.61
1.78
0.84
0.21
0.145
0.12
0.12
0.125
0.11
0.135
0.12
0.145
0.145
0.16
0.16
0.19
0.185
0.215
0.22
0.24
0.24
0.28
0.29
0.33
0.36
0.385
0.415
0.45
0.45
0.46
0.415
0.365
0.3
0.25
0.2
0.175
0.14
0.14
0.11
0.11
0.09
0.105
0.09
0.095
0.085
0.1
0.085
0.09
0.07
0.065
0.03
0.025
0.0
-0.005
-0.04
-0.04
-0.075
-0.07
-0.105
-0.115
-0.14
-0.155
-0.175
-0.165
-0.165
-0.165
-0.135
-0.05
-0.08
-0.115
-0.18
-0.3
-0.4
-0.41
-0.475
-0.495
-0.54
-0.57
-0.67
-0.625
-0.1
0.84
0.9
-0.06
-0.71
-0.755
-0.825
-0.83
-0.85
-0.875
-0.895
-0.9
-0.935
-0.94
-0.97
-0.98
-1.01
-1.0
-1.035
-1.04
-1.065
-1.06
-1.075
-1.07
-1.075
-1.06
-1.075
-1.06
-1.075
-1.06
-1.125
-1.17
-1.255
-1.33
-1.42
-1.475
-1.535
-1.56
-1.615
-1.64
-1.67
-1.675
-1.7
-1.72
-1.74
-1.745
-1.77
-1.79
-1.8
-1.815
-1.84
-1.87
-1.895
-1.905
-1.925
-1.945
-1.97
-2.0
-2.015
-2.02
-2.04
-2.055
-2.07
-2.07
-2.06
-2.045
-2.065
-2.0
-1.915
-1.935
-1.965
-2.0
-2.14
-2.225
-2.24
-2.27
-2.295
-2.305
-2.315
-2.375
-2.275
-1.67
-0.735
-0.81
-1.8
-2.29
-2.34
-2.335
-2.33
-2.32
-2.335
-2.315
-2.315
-2.305
-2.295
-2.28
-2.265
-2.24
-2.23
-2.21
-2.185
-2.16
-2.135
-2.11
-2.08
-2.035
-2.0
-1.96
-1.93
-1.895
-1.88
-1.88
-1.9
-1.96
-2.0
-2.035
-2.075
-2.095
-2.1
-2.1
-2.095
-2.07
-2.055
-2.035
-2.015
-1.99
-1.96
-1.94
-1.93
-1.91
-1.9
-1.88
-1.88
-1.86
-1.855
-1.85
-1.835
-1.815
-1.8
-1.79
-1.775
-1.75
-1.74
-1.73
-1.705
-1.665
-1.62
-1.6
-1.52
-1.4
-1.4
-1.385
-1.395
-1.48
-1.52
-1.505
-1.51
-1.495
-1.49
-1.475
-1.52
-1.435
-0.85
0.125
0.24
-0.74
-1.34
-1.315
-1.32
-1.295
-1.265
-1.24
-1.225
-1.2
-1.17
-1.15
-1.125
-1.09
-1.04
-1.03
-0.995
-0.96
-0.935
-0.9
-0.85
-0.805
-0.75
-0.69
-0.64
-0.6
-0.56
-0.535
-0.53
-0.56
-0.6
-0.65
-0.7
-0.72
-0.74
-0.745
-0.73
-0.72
-0.72
-0.695
-0.675
-0.65
-0.61
-0.615
-0.595
-0.56
-0.56
-0.54
-0.53
-0.515
-0.5
-0.495
-0.485
-0.46
-0.475
-0.44
-0.44
-0.435
-0.415
-0.4
-0.39
-0.35
-0.32
-0.3
-0.215
-0.1
-0.095
-0.11
-0.13
-0.22
-0.25
-0.24
-0.255
-0.255
-0.24
-0.24
-0.295
-0.155
0.475
1.42
1.23
0.15
-0.3
-0.24
-0.2
-0.145
-0.11
-0.09
-0.06
-0.05
-0.025
-0.01
0.02
0.04
0.07
0.1
0.125
0.165
0.2
0.23
0.285
0.33
0.4
0.44
0.47
0.52
0.56
0.56
0.54
0.49
0.405
0.35
0.295
0.255
0.245
0.225
0.24
0.24
0.24
0.255
0.26
0.28
0.29
0.32
0.33
0.33
0.33
0.34
0.34
0.345
0.345
0.35
0.36
0.36
0.36
0.365
0.375
0.38
0.4
0.4
0.415
0.455
0.485
0.505
0.6
0.68
0.67
0.66
0.63
0.545
0.505
0.51
0.52
0.505
0.49
0.49
0.43
0.635
1.36
2.31
1.865
0.73
0.44
0.475
0.505
0.545
0.58
0.6
0.605
0.625
0.64
0.655
0.67
0.685
0.705
0.73
0.75
0.775
0.81
0.82
0.865
0.905
0.96
0.99
1.04
1.06
1.08
1.09
1.06
1.02
0.95
0.885
0.83
0.79
0.77
0.765
0.76
0.76
0.77
0.765
0.78
0.79
0.805
0.8
0.815
0.82
0.82
0.82
0.82
0.795
0.81
0.795
0.79
0.78
0.775
0.76
0.76
0.76
0.74
0.73
0.725
0.75
0.76
0.76
0.82
0.88
0.855
0.82
0.765
0.66
0.585
0.56
0.52
0.49
0.455
0.405
0.31
0.42
1.1
2.125
1.97
0.86
0.32
0.225
0.155
0.145
0.12
0.08
0.05
0.025
-0.015
-0.045
-0.08
-0.11
-0.135
-0.165
-0.21
-0.235
-0.26
-0.28
-0.3
-0.32
-0.335
-0.33
-0.35
-0.36
-0.375
-0.4
-0.485
-0.575
-0.705
-0.815
-0.935
-1.02
-1.105
-1.16
-1.23
-1.285
-1.345
-1.4
-1.46
-1.515
-1.56
-1.585
-1.635
-1.665
-1.71
-1.735
-1.765
-1.8
-1.84
-1.87
-1.9
-1.93
-1.96
-1.99
-2.02
-2.04
-2.055
-2.085
-2.1
-2.11
-2.095
-2.085
-2.1
-2.03
-1.955
-1.96
-1.995
-2.04
-2.145
-2.2
-2.21
-2.23
-2.24
-2.24
-2.27
-2.315
-2.255
-1.65
-0.615
-0.44
-1.46
-2.12
-2.18
-2.195
-2.16
-2.155
-2.14
-2.125
-2.105
-2.075
-2.055
-2.02
-2.0
-1.97
-1.955
-1.92
-1.9
-1.865
-1.835
-1.79
-1.74
-1.68
-1.63
-1.565
-1.52
-1.465
-1.44
-1.43
-1.47
-1.515
-1.56
-1.6
-1.635
-1.635
-1.64
-1.65
-1.64
-1.625
-1.62
-1.595
-1.595
-1.57
-1.56
-1.545
-1.535
-1.51
-1.5
-1.485
-1.475
-1.465
-1.445
-1.45
-1.45
-1.42
-1.43
-1.4
-1.405
-1.375
-1.38
-1.35
-1.345
-1.305
-1.27
-1.225
-1.2
-1.09
-1.01
-1.01
-1.01
-1.04
-1.135
-1.155
-1.14
-1.14
-1.145
-1.14
-1.15
-1.18
-1.02
-0.31
0.7
0.46
-0.585
-0.96
-1.01
-0.995
-0.97
-0.95
-0.935
-0.895
-0.88
-0.84
-0.825
-0.795
-0.76
-0.72
-0.7
-0.66
-0.635
-0.59
-0.56
-0.51
-0.47
-0.415
-0.36
-0.305
-0.275
-0.22
-0.2
-0.18
-0.225
-0.26
-0.315
-0.325
-0.38
-0.38
-0.39
-0.37
-0.375
-0.365
-0.36
-0.335
-0.31
-0.3
-0.28
-0.26
-0.24
-0.215
-0.215
-0.18
-0.19
-0.165
-0.165
-0.145
-0.135
-0.105
-0.11
-0.075
-0.075
-0.05
-0.04
-0.02
-0.02
0.02
0.065
0.1
0.105
0.21
0.3
0.32
0.3
0.29
0.2
0.165
0.165
0.17
0.175
0.185
0.17
0.155
0.22
0.84
1.82
1.88
0.89
0.34
0.3
0.3
0.325
0.36
0.37
0.4
0.4
0.44
0.445
0.475
0.485
0.53
0.545
0.585
0.6
0.635
0.655
0.705
0.725
0.795
0.82
0.89
0.925
0.97
0.985
1.0
0.96
0.92
0.845
0.81
0.76
0.76
0.725
0.75
0.725
0.74
0.74
0.765
0.76
0.78
0.78
0.82
0.81
0.82
0.82
0.845
0.84
0.85
0.84
0.865
0.85
0.88
0.86
0.88
0.88
0.895
0.89
0.92
0.91
0.965
0.97
1.0
1.08
1.2
1.16
1.16
1.11
1.03
0.98
1.0
0.97
0.98
0.96
0.97
0.9
1.04
1.64
2.6
2.42
1.36
0.865
0.95
0.96
1.01
1.02
1.05
1.05
1.08
1.08
1.115
1.115
1.16
1.16
1.19
1.2
1.245
1.26
1.31
1.335
1.4
1.43
1.5
1.52
1.57
1.58
1.6
1.56
1.52
1.42
1.37
1.285
1.24
1.205
1.21
1.19
1.2
1.18
1.2
1.2
1.21
1.205
1.24
1.21
1.24
1.22
1.225
1.215
1.23
1.21
1.22
1.2
1.21
1.205
1.22
1.2
1.21
1.2
1.22
1.215
1.265
1.25
1.285
1.36
1.45
1.43
1.41
1.34
1.27
1.225
1.24
1.21
1.21
1.18
1.18
1.105
1.31
2.005
2.93
2.42
1.29
1.0
1.1
1.115
1.17
1.18
1.215
1.22
1.24
1.23
1.255
1.245
1.28
1.285
1.325
1.33
1.36
1.38
1.42
1.445
1.5
1.535
1.6
1.61
1.66
1.65
1.655
1.6
1.53
1.43
1.38
1.3
1.265
1.22
1.225
1.2
1.205
1.2
1.21
1.2
1.215
1.2
1.215
1.2
1.23
1.205
1.22
1.2
1.2
1.18
1.2
1.16
1.185
1.16
1.165
1.145
1.16
1.14
1.17
1.14
1.15
1.14
1.17
1.18
1.215
1.2
1.31
1.345
1.33
1.3
1.26
1.145
1.14
1.105
1.11
1.08
1.085
1.04
0.99
1.225
2.065
3.03
2.54
1.38
1.105
1.04
1.045
1.05
1.08
1.06
1.08
1.065
1.09
1.08
1.1
1.1
1.12
1.115
1.14
1.14
1.16
1.16
1.21
1.22
1.26
1.3
1.34
1.37
1.4
1.39
1.38
1.32
1.245
1.16
1.1
1.04
1.025
0.98
0.97
0.925
0.915
0.88
0.88
0.845
0.84
0.82
0.825
0.795
0.795
0.76
0.76
0.725
0.72
0.67
0.665
0.615
0.605
0.56
0.54
0.5
0.48
0.445
0.43
0.38
0.385
0.375
0.36
0.36
0.44
0.415
0.36
0.285
0.18
0.05
0.01
-0.06
-0.1
-0.17
-0.215
-0.315
-0.36
0.08
1.045
1.52
0.57
-0.425
-0.51
-0.62
-0.645
-0.69
-0.72
-0.76
-0.78
-0.83
-0.855
-0.89
-0.91
-0.96
-0.98
-1.01
-1.02
-1.04
-1.06
-1.07
-1.06
-1.06
-1.03
-1.02
-1.01
-1.015
-1.025
-1.09
-1.16
-1.3
-1.4
-1.51
-1.57
-1.64
-1.68
-1.73
-1.745
-1.79
-1.8
-1.84
-1.86
-1.9
-1.92
-1.93
-1.94
-1.955
-1.96
-1.97
-1.96
-1.98
-1.99
-2.0
-2.0
-2.02
-2.015
-2.025
-2.02
-2.03
-2.02
-2.035
-2.0
-1.99
-1.97
-1.92
-1.835
-1.84
-1.86
-1.895
-1.96
-2.02
-2.015
-2.035
-2.04
-2.04
-2.04
-2.09
-2.02
-1.535
-0.745
-0.86
-1.765
-2.18
-2.08
-2.055
-2.0
-1.975
-1.975
-1.975
-1.95
-1.94
-1.93
-1.91
-1.88
-1.87
-1.855
-1.835
-1.795
-1.775
-1.74
-1.72
-1.665
-1.61
-1.56
-1.52
-1.48
-1.465
-1.46
-1.5
-1.55
-1.6
-1.665
-1.695
-1.71
-1.72
-1.71
-1.705
-1.68
-1.68
-1.67
-1.675
-1.655
-1.62
-1.62
-1.62
-1.6
-1.58
-1.56
-1.56
-1.545
-1.53
-1.52
-1.52
-1.515
-1.5
-1.495
-1.48
-1.455
-1.42
-1.39
-1.38
-1.3
-1.22
-1.215
-1.235
-1.255
-1.315
-1.33
-1.32
-1.32
-1.32
-1.315
-1.33
-1.35
-1.195
-0.675
-0.08
-0.47
-1.22
-1.32
-1.275
-1.24
-1.2
-1.185
-1.18
-1.145
-1.14
-1.125
-1.115
-1.1
-1.08
-1.055
-1.04
-1.0
-0.98
-0.95
-0.92
-0.88
-0.83
-0.775
-0.745
-0.705
-0.68
-0.65
-0.665
-0.695
-0.76
-0.805
-0.85
-0.875
-0.895
-0.89
-0.895
-0.9
-0.9
-0.88
-0.88
-0.88
-0.88
-0.87
-0.86
-0.85
-0.84
-0.825
-0.815
-0.79
-0.795
-0.775
-0.78
-0.775
-0.76
-0.75
-0.75
-0.74
-0.715
-0.67
-0.655
-0.61
-0.54
-0.52
-0.54
-0.55
-0.6
-0.645
-0.65
-0.65
-0.65
-0.65
-0.66
-0.68
-0.555
-0.04
0.685
0.45
-0.355
-0.62
-0.615
-0.575
-0.555
-0.54
-0.53
-0.51
-0.51
-0.485
-0.47
-0.46
-0.44
-0.415
-0.4
-0.375
-0.35
-0.325
-0.28
-0.24
-0.2
-0.145
-0.095
-0.03
-0.005
0.03
0.04
0.01
-0.06
-0.12
-0.18
-0.21
-0.24
-0.235
-0.24
-0.24
-0.235
-0.24
-0.24
-0.23
-0.23
-0.22
-0.21
-0.195
-0.18
-0.145
-0.155
-0.13
-0.115
-0.1
-0.095
-0.08
-0.08
-0.065
-0.065
-0.04
0.0
0.03
0.05
0.155
0.215
0.21
0.19
0.14
0.07
0.06
0.06
0.065
0.04
0.06
0.03
0.02
0.375
1.24
1.82
1.14
0.25
0.2
0.155
0.17
0.18
0.2
0.215
0.23
0.24
0.255
0.27
0.3
0.31
0.33
0.36
0.39
0.425
0.46
0.5
0.54
0.6
0.68
0.73
0.795
0.845
0.88
0.86
0.8
0.74
0.655
0.605
0.57
0.54
0.54
0.53
0.54
0.535
0.525
0.53
0.52
0.54
0.56
0.565
0.58
0.6
0.605
0.61
0.625
0.635
0.64
0.65
0.665
0.67
0.69
0.735
0.75
0.77
0.87
0.96
0.945
0.91
0.86
0.765
0.74
0.73
0.74
0.72
0.72
0.68
0.645
1.03
2.0
2.76
2.01
0.945
0.825
0.76
0.76
0.78
0.795
0.79
0.805
0.81
0.82
0.84
0.855
0.865
0.885
0.92
0.925
0.95
0.98
1.015
1.08
1.125
1.185
1.245
1.3
1.33
1.35
1.325
1.255
1.165
1.09
1.04
0.99
0.96
0.95
0.945
0.93
0.925
0.92
0.915
0.91
0.92
0.92
0.925
0.945
0.95
0.96
0.965
0.965
0.955
0.97
0.97
0.965
1.0
1.04
1.04
1.08
1.175
1.22
1.2
1.16
1.065
1.0
0.985
0.99
0.975
0.965
0.945
0.89
0.92
1.48
2.505
2.8
1.77
0.975
0.98
0.945
0.975
0.98
0.99
0.99
1.0
1.005
1.005
1.01
1.04
1.05
1.065
1.085
1.11
1.14
1.18
1.22
1.26
1.33
1.38
1.435
1.485
1.5
1.48
1.455
1.34
1.25
1.17
1.11
1.09
1.055
1.05
1.04
1.04
1.02
1.02
1.01
1.015
1.015
1.02
1.04
1.04
1.05
1.05
1.05
1.05
1.045
1.05
1.045
1.065
1.09
1.09
1.105
1.215
1.275
1.26
1.24
1.185
1.08
1.045
1.025
1.02
1.0
0.99
0.97
0.905
1.27
2.205
3.0
2.23
1.115
1.02
0.96
0.98
0.99
0.985
1.0
1.01
1.03
1.055
1.04
1.05
1.065
1.085
1.095
1.115
1.13
1.165
1.205
1.26
1.325
1.39
1.45
1.505
1.525
1.525
1.48
1.39
1.275
1.205
1.11
1.08
1.04
1.02
1.0
0.985
0.96
0.955
0.94
0.93
0.93
0.95
0.94
0.97
0.96
0.965
0.97
0.98
0.965
0.98
0.98
1.0
1.005
1.005
1.065
1.15
1.13
1.115
1.08
0.99
0.92
0.925
0.9
0.89
0.86
0.85
0.79
0.97
1.59
2.48
2.055
1.02
0.735
0.81
0.82
0.86
0.85
0.86
0.88
0.865
0.86
0.89
0.885
0.92
0.925
0.94
0.96
0.985
1.0
1.045
1.08
1.14
1.18
1.245
1.265
1.28
1.285
1.24
1.16
1.08
0.99
0.94
0.88
0.865
0.845
0.825
0.81
0.82
0.805
0.8
0.77
0.805
0.79
0.81
0.805
0.795
0.82
0.825
0.8
0.81
0.795
0.815
0.81
0.825
0.82
0.88
0.94
0.97
0.925
0.915
0.83
0.79
0.76
0.75
0.73
0.72
0.7
0.685
0.695
1.1
1.785
1.84
1.06
0.6
0.64
0.68
0.685
0.72
0.72
0.74
0.72
0.73
0.73
0.74
0.74
0.76
0.76
0.785
0.79
0.81
0.83
0.86
0.89
0.94
0.97
1.02
1.04
1.05
1.04
0.98
0.9
0.84
0.77
0.75
0.72
0.7
0.685
0.685
0.685
0.65
0.66
0.665
0.65
0.655
0.645
0.66
0.665
0.67
0.66
0.685
0.66
0.665
0.66
0.67
0.68
0.71
0.7
0.76
0.84
0.83
0.79
0.78
0.68
0.65
0.635
0.62
0.61
0.6
0.58
0.56
0.68
1.22
1.94
1.63
0.81
0.58
0.57
0.58
0.59
0.605
0.6
0.615
0.605
0.62
0.62
0.62
0.625
0.635
0.635
0.66
0.665
0.685
0.72
0.735
0.77
0.825
0.88
0.92
0.945
0.955
0.93
0.88
0.8
0.72
0.67
0.625
0.605
0.595
0.585
0.57
0.575
0.56
0.54
0.535
0.525
0.52
0.525
0.52
0.525
0.53
0.525
0.535
0.54
0.525
0.53
0.53
0.52
0.535
0.56
0.56
0.58
0.65
0.72
0.7
0.66
0.61
0.52
0.49
0.49
0.47
0.455
0.44
0.41
0.37
0.625
1.36
2.06
1.52
0.6
0.46
0.4
0.41
0.42
0.415
0.42
0.42
0.425
0.42
0.42
0.43
0.43
0.44
0.45
0.46
0.475
0.5
0.52
0.54
0.6
0.645
0.7
0.71
0.76
0.78
0.76
0.685
0.605
0.545
0.475
0.44
0.425
0.405
0.39
0.37
0.365
0.35
0.34
0.34
0.33
0.33
0.33
0.335
0.35
0.345
0.35
0.35
0.345
0.34
0.335
0.33
0.33
0.325
0.315
0.31
0.3
0.295
0.285
0.315
0.33
0.335
0.4
0.49
0.47
0.425
0.39
0.29
0.22
0.21
0.18
0.155
0.13
0.11
0.04
0.12
0.705
1.64
1.625
0.68
0.145
0.055
0.0
0.005
-0.015
-0.04
-0.04
-0.055
-0.06
-0.075
-0.08
-0.09
-0.095
-0.1
-0.11
-0.12
-0.105
-0.105
-0.1
-0.075
-0.055
-0.015
0.015
0.04
0.045
0.05
-0.005
-0.08
-0.175
-0.25
-0.32
-0.375
-0.4
-0.44
-0.47
-0.5
-0.54
-0.56
-0.6
-0.615
-0.635
-0.64
-0.65
-0.66
-0.67
-0.675
-0.685
-0.7
-0.72
-0.735
-0.75
-0.77
-0.795
-0.805
-0.815
-0.835
-0.85
-0.86
-0.88
-0.89
-0.89
-0.9
-0.88
-0.875
-0.875
-0.785
-0.705
-0.74
-0.785
-0.855
-0.975
-1.015
-1.02
-1.04
-1.08
-1.105
-1.13
-1.2
-1.055
-0.34
0.68
0.41
-0.66
-1.065
-1.15
-1.17
-1.16
-1.18
-1.18
-1.175
-1.18
-1.17
-1.165
-1.16
-1.16
-1.155
-1.15
-1.13
-1.125
-1.105
-1.085
-1.06
-1.03
-0.98
-0.945
-0.9
-0.86
-0.84
-0.835
-0.875
-0.92
-1.01
-1.065
-1.125
-1.16
-1.18
-1.2
-1.22
-1.235
-1.24
-1.24
-1.24
-1.23
-1.225
-1.215
-1.215
-1.195
-1.19
-1.19
-1.19
-1.2
-1.23
-1.23
-1.24
-1.23
-1.235
-1.225
-1.225
-1.2
-1.2
-1.215
-1.2
-1.2
-1.19
-1.175
-1.175
-1.16
-1.14
-1.1
-1.09
-0.99
-0.88
-0.875
-0.9
-0.94
-1.04
-1.095
-1.09
-1.1
-1.11
-1.115
-1.11
-1.17
-1.125
-0.56
0.43
0.61
-0.345
-1.0
-1.025
-1.05
-1.03
-1.015
-1.0
-0.995
-0.98
-0.96
-0.95
-0.935
-0.91
-0.88
-0.87
-0.85
-0.815
-0.795
-0.76
-0.73
-0.68
-0.635
-0.575
-0.53
-0.475
-0.44
-0.41
-0.42
-0.45
-0.51
-0.58
-0.625
-0.66
-0.7
-0.7
-0.71
-0.715
-0.72
-0.695
-0.695
-0.685
-0.66
-0.64
-0.63
-0.6
-0.6
-0.575
-0.56
-0.56
-0.56
-0.56
-0.545
-0.54
-0.54
-0.535
-0.52
-0.52
-0.52
-0.51
-0.5
-0.49
-0.48
-0.47
-0.47
-0.455
-0.46
-0.425
-0.39
-0.36
-0.335
-0.21
-0.15
-0.19
-0.21
-0.27
-0.345
-0.355
-0.35
-0.36
-0.36
-0.37
-0.385
-0.415
-0.06
0.775
1.36
0.545
-0.445
-0.42
-0.38
-0.315
-0.28
-0.255
-0.23
-0.23
-0.22
-0.19
-0.18
-0.165
-0.145
-0.115
-0.1
-0.075
-0.05
-0.015
0.025
0.08
0.12
0.18
0.22
0.265
0.29
0.3
0.3
0.245
0.17
0.1
0.03
-0.005
-0.04
-0.065
-0.08
-0.075
-0.075
-0.075
-0.07
-0.06
-0.05
-0.035
-0.03
-0.02
-0.01
-0.005
-0.015
-0.01
-0.01
-0.01
0.005
-0.01
-0.005
0.005
-0.01
0.01
0.005
0.02
0.02
0.025
0.02
0.03
0.03
0.045
0.05
0.09
0.105
0.145
0.22
0.285
0.25
0.245
0.195
0.135
0.1
0.105
0.1
0.09
0.08
0.08
0.025
0.31
0.98
1.53
0.87
0.02
-0.005
0.06
0.095
0.12
0.12
0.14
0.15
0.17
0.17
0.175
0.2
0.21
0.205
0.24
0.25
0.28
0.3
0.335
0.36
0.4
0.44
0.485
0.5
0.54
0.55
0.545
0.49
0.445
0.38
0.33
0.28
0.26
0.225
0.23
0.215
0.21
0.205
0.215
0.21
0.22
0.24
0.245
0.245
0.26
0.25
0.27
0.255
0.26
0.26
0.27
0.25
0.26
0.25
0.26
0.26
0.26
0.26
0.28
0.255
0.27
0.26
0.27
0.28
0.32
0.32
0.36
0.45
0.49
0.445
0.45
0.38
0.32
0.295
0.295
0.28
0.27
0.26
0.24
0.22
0.625
1.4
1.805
1.06
0.28
0.26
0.27
0.285
0.31
0.3
0.32
0.315
0.335
0.34
0.36
0.37
0.38
0.37
0.405
0.405
0.44
0.45
0.475
0.505
0.56
0.6
0.65
0.68
0.725
0.73
0.74
0.685
0.635
0.56
0.52
0.46
0.44
0.405
0.4
0.37
0.39
0.36
0.385
0.37
0.4
0.4
0.42
0.425
0.45
0.425
0.45
0.42
0.44
0.42
0.44
0.42
0.44
0.42
0.43
0.41
0.44
0.42
0.43
0.43
0.425
0.42
0.43
0.42
0.445
0.45
0.49
0.49
0.535
0.62
0.66
0.62
0.605
0.52
0.45
0.44
0.44
0.4
0.405
0.385
0.36
0.35
0.83
1.75
2.18
1.31
0.495
0.44
0.4
0.4
0.42
0.41
0.44
0.425
0.44
0.44
0.465
0.46
0.485
0.475
0.51
0.52
0.54
0.545
0.58
0.6
0.65
0.685
0.745
0.76
0.81
0.84
0.845
0.79
0.74
0.655
0.61
0.56
0.54
0.5
0.5
0.465
0.49
0.465
0.475
0.46
0.47
0.465
0.49
0.485
0.5
0.495
0.51
0.5
0.52
0.49
0.52
0.49
0.515
0.485
0.505
0.48
0.5
0.485
0.5
0.485
0.495
0.485
0.505
0.485
0.5
0.475
0.52
0.52
0.56
0.56
0.625
0.72
0.74
0.69
0.685
0.57
0.53
0.505
0.505
0.475
0.485
0.46
0.41
0.455
1.04
1.965
2.09
1.125
0.545
0.48
0.47
0.465
0.485
0.47
0.495
0.495
0.505
0.505
0.525
0.525
0.54
0.54
0.57
0.575
0.6
0.59
0.64
0.645
0.7
0.725
0.78
0.795
0.845
0.85
0.88
0.83
0.77
0.685
0.65
0.59
0.58
0.54
0.535
0.51
0.52
0.495
0.52
0.52
0.53
0.525
0.54
0.53
0.56
0.54
0.545
0.54
0.545
0.52
0.54
0.52
0.53
0.515
0.53
0.51
0.53
0.505
0.52
0.5
0.505
0.505
0.525
0.5
0.52
0.5
0.52
0.505
0.525
0.54
0.575
0.57
0.67
0.72
0.71
0.67
0.615
0.505
0.495
0.47
0.46
0.42
0.42
0.375
0.33
0.58
1.38
2.12
1.54
0.52
0.385
0.31
0.31
0.3
0.3
0.27
0.28
0.26
0.265
0.24
0.24
0.22
0.24
0.21
0.22
0.21
0.215
0.2
0.205
0.205
0.24
0.225
0.26
0.245
0.27
0.24
0.215
0.13
0.06
-0.04
-0.115
-0.195
-0.235
-0.3
-0.32
-0.375
-0.39
-0.44
-0.44
-0.485
-0.495
-0.52
-0.54
-0.585
-0.6
-0.645
-0.66
-0.715
-0.73
-0.785
-0.81
-0.86
-0.88
-0.935
-0.955
-0.995
-1.02
-1.075
-1.1
-1.14
-1.155
-1.2
-1.225
-1.28
-1.305
-1.345
-1.36
-1.41
-1.41
-1.43
-1.43
-1.45
-1.375
-1.34
-1.39
-1.46
-1.52
-1.66
-1.68
-1.73
-1.76
-1.81
-1.82
-1.88
-1.925
-1.67
-0.88
-0.195
-0.82
-1.825
-1.935
-2.0
-1.98
-2.0
-2.0
-2.03
-2.025
-2.04
-2.025
-2.05
-2.03
-2.04
-2.025
-2.04
-2.015
-2.035
-2.0
-2.01
-1.985
-1.98
-1.93
-1.91
-1.875
-1.875
-1.83
-1.84
-1.84
-1.895
-1.95
-2.025
-2.06
-2.12
-2.14
-2.175
-2.175
-2.195
-2.18
-2.19
-2.16
-2.18
-2.16
-2.18
-2.155
-2.16
-2.15
-2.16
-2.155
-2.16
-2.15
-2.16
-2.15
-2.16
-2.14
-2.15
-2.135
-2.145
-2.12
-2.135
-2.12
-2.13
-2.115
-2.13
-2.1
-2.12
-2.095
-2.095
-2.09
-2.085
-2.04
-2.015
-1.99
-1.975
-1.855
-1.795
-1.795
-1.81
-1.855
-1.95
-1.95
-1.945
-1.95
-1.96
-1.94
-1.97
-1.98
-1.68
-0.875
-0.17
-0.76
-1.75
-1.825
-1.865
-1.83
-1.8
-1.78
-1.78
-1.745
-1.74
-1.705
-1.695
-1.655
-1.65
-1.605
-1.585
-1.54
-1.52
-1.465
-1.455
-1.4
-1.375
-1.32
-1.275
-1.22
-1.2
-1.14
-1.125
-1.095
-1.13
-1.16
-1.21
-1.235
-1.275
-1.285
-1.285
-1.27
-1.27
-1.235
-1.23
-1.185
-1.17
-1.14
-1.125
-1.08
-1.08
-1.06
-1.04
-1.02
-1.025
-0.995
-1.0
-0.98
-0.97
-0.95
-0.94
-0.92
-0.92
-0.89
-0.88
-0.86
-0.855
-0.825
-0.825
-0.805
-0.8
-0.77
-0.77
-0.75
-0.74
-0.705
-0.68
-0.635
-0.615
-0.555
-0.46
-0.375
-0.395
-0.395
-0.48
-0.54
-0.555
-0.535
-0.54
-0.54
-0.54
-0.545
-0.58
-0.2
0.635
1.28
0.56
-0.37
-0.42
-0.455
-0.43
-0.39
-0.39
-0.355
-0.34
-0.31
-0.295
-0.26
-0.255
-0.22
-0.2
-0.18
-0.155
-0.11
-0.1
-0.065
-0.04
0.01
0.04
0.09
0.12
0.165
0.19
0.22
0.225
0.205
0.155
0.12
0.06
0.04
0.0
0.005
-0.005
0.01
0.02
0.04
0.05
0.08
0.08
0.105
0.105
0.12
0.12
0.14
0.135
0.15
0.15
0.155
0.155
0.16
0.155
0.17
0.185
0.2
0.19
0.2
0.205
0.225
0.215
0.24
0.225
0.255
0.25
0.265
0.28
0.31
0.33
0.36
0.4
0.52
0.56
0.545
0.52
0.44
0.35
0.36
0.34
0.345
0.34
0.34
0.295
0.295
0.74
1.645
2.09
1.26
0.39
0.4
0.36
0.4
0.41
0.43
0.43
0.445
0.47
0.475
0.485
0.5
0.52
0.545
0.56
0.585
0.6
0.63
0.65
0.68
0.705
0.74
0.775
0.81
0.83
0.88
0.89
0.88
0.825
0.77
0.72
0.665
0.61
0.6
0.56
0.56
0.56
0.57
0.565
0.57
0.57
0.585
0.56
0.58
0.575
0.56
0.545
0.54
0.525
0.52
0.495
0.505
0.47
0.46
0.44
0.445
0.41
0.41
0.4
0.37
0.35
0.345
0.305
0.295
0.27
0.26
0.24
0.23
0.225
0.24
0.22
0.28
0.34
0.31
0.255
0.2
0.055
-0.02
-0.055
-0.08
-0.15
-0.18
-0.24
-0.33
-0.22
0.44
1.36
1.065
-0.035
-0.46
-0.51
-0.535
-0.55
-0.57
-0.595
-0.625
-0.655
-0.675
-0.7
-0.72
-0.745
-0.755
-0.78
-0.785
-0.805
-0.81
-0.84
-0.835
-0.84
-0.83
-0.82
-0.815
-0.82
-0.825
-0.825
-0.84
-0.88
-0.98
-1.07
-1.13
-1.22
-1.265
-1.315
-1.33
-1.36
-1.375
-1.395
-1.4
-1.425
-1.42
-1.445
-1.44
-1.455
-1.465
-1.48
-1.495
-1.515
-1.52
-1.52
-1.535
-1.555
-1.56
-1.56
-1.56
-1.58
-1.58
-1.585
-1.59
-1.595
-1.595
-1.61
-1.6
-1.615
-1.61
-1.61
-1.595
-1.58
-1.55
-1.545
-1.445
-1.36
-1.36
-1.385
-1.41
-1.51
-1.555
-1.555
-1.56
-1.58
-1.59
-1.6
-1.64
-1.52
-0.88
0.1
-0.07
-1.13
-1.59
-1.58
-1.555
-1.52
-1.5
-1.48
-1.465
-1.455
-1.42
-1.4
-1.385
-1.36
-1.32
-1.315
-1.28
-1.25
-1.21
-1.185
-1.155
-1.12
-1.07
-1.03
-0.99
-0.95
-0.895
-0.88
-0.865
-0.87
-0.915
-0.965
-1.0
-1.04
-1.06
-1.075
-1.07
-1.06
-1.04
-1.03
-1.01
-0.995
-0.965
-0.93
-0.92
-0.905
-0.88
-0.87
-0.855
-0.84
-0.835
-0.82
-0.81
-0.795
-0.78
-0.76
-0.75
-0.74
-0.72
-0.71
-0.695
-0.675
-0.655
-0.64
-0.62
-0.6
-0.585
-0.56
-0.5
-0.47
-0.435
-0.33
-0.23
-0.255
-0.25
-0.295
-0.375
-0.38
-0.375
-0.38
-0.37
-0.36
-0.375
-0.415
-0.12
0.71
1.58
1.005
-0.07
-0.235
-0.26
-0.235
-0.2
-0.18
-0.155
-0.155
-0.12
-0.1
-0.08
-0.055
-0.025
0.01
0.04
0.06
0.09
0.125
0.15
0.2
0.225
0.27
0.315
0.36
0.4
0.44
0.46
0.47
0.44
0.38
0.335
0.285
0.25
0.24
0.21
0.215
0.22
0.225
0.24
0.25
0.26
0.28
0.295
0.305
0.32
0.33
0.33
0.345
0.345
0.35
0.365
0.36
0.36
0.37
0.375
0.385
0.385
0.4
0.42
0.405
0.415
0.425
0.425
0.44
0.445
0.46
0.485
0.52
0.53
0.63
0.73
0.725
0.705
0.66
0.56
0.525
0.525
0.525
0.51
0.5
0.49
0.425
0.61
1.345
2.32
1.97
0.895
0.545
0.52
0.535
0.55
0.57
0.56
0.575
0.59
0.605
0.625
0.645
0.65
0.67
0.685
0.72
0.735
0.76
0.775
0.81
0.84
0.88
0.91
0.96
0.98
1.01
1.04
1.05
1.015
0.965
0.895
0.84
0.79
0.77
0.755
0.745
0.735
0.76
0.74
0.76
0.75
0.775
0.78
0.785
0.79
0.795
0.795
0.805
0.785
0.805
0.79
0.785
0.79
0.785
0.78
0.79
0.78
0.79
0.785
0.785
0.78
0.795
0.785
0.795
0.79
0.805
0.83
0.88
0.865
0.96
1.04
1.05
1.02
1.005
0.88
0.84
0.83
0.82
0.805
0.8
0.79
0.74
0.775
1.36
2.325
2.5
1.48
0.805
0.795
0.785
0.785
0.81
0.805
0.84
0.84
0.85
0.85
0.88
0.87
0.9
0.9
0.93
0.93
0.96
0.97
1.0
1.01
1.06
1.085
1.135
1.14
1.18
1.2
1.21
1.17
1.135
1.065
1.02
0.96
0.93
0.9
0.89
0.88
0.88
0.865
0.89
0.88
0.895
0.895
0.91
0.89
0.915
0.89
0.91
0.89
0.89
0.88
0.89
0.88
0.88
0.86
0.88
0.87
0.88
0.865
0.88
0.865
0.88
0.88
0.88
0.86
0.885
0.895
0.925
0.935
1.0
1.09
1.115
1.08
1.055
0.96
0.89
0.88
0.87
0.845
0.84
0.82
0.775
0.78
1.29
2.245
2.6
1.66
0.825
0.81
0.795
0.8
0.83
0.82
0.84
0.845
0.85
0.85
0.88
0.87
0.9
0.91
0.92
0.93
0.955
0.97
1.01
1.04
1.05
1.08
1.125
1.16
1.18
1.21
1.21
1.17
1.115
1.06
1.01
0.96
0.91
0.885
0.88
0.86
0.865
0.86
0.86
0.86
0.855
0.88
0.88
0.88
0.885
0.88
0.88
0.88
0.87
0.865
0.86
0.86
0.85
0.84
0.84
0.84
0.84
0.84
0.84
0.83
0.825
0.825
0.83
0.815
0.825
0.84
0.88
0.865
0.9
1.005
1.065
1.03
1.01
0.925
0.84
0.825
0.81
0.8
0.79
0.76
0.74
0.7
1.0
1.86
2.66
1.975
0.9
0.76
0.725
0.74
0.75
0.76
0.76
0.75
0.78
0.79
0.79
0.795
0.81
0.83
0.84
0.845
0.865
0.9
0.92
0.93
0.96
1.005
1.04
1.07
1.09
1.115
1.135
1.105
1.08
1.015
0.94
0.885
0.84
0.81
0.805
0.785
0.775
0.77
0.77
0.77
0.785
0.79
0.79
0.79
0.79
0.785
0.795
0.795
0.785
0.785
0.775
0.765
0.76
0.75
0.74
0.76
0.74
0.74
0.735
0.74
0.73
0.745
0.745
0.73
0.745
0.765
0.79
0.805
0.9
0.97
0.945
0.92
0.86
0.76
0.72
0.72
0.7
0.685
0.68
0.66
0.59
0.85
1.66
2.53
1.945
0.85
0.66
0.63
0.645
0.68
0.68
0.68
0.685
0.7
0.71
0.72
0.73
0.74
0.75
0.77
0.77
0.795
0.82
0.84
0.88
0.91
0.95
0.99
1.04
1.05
1.08
1.085
1.06
1.01
0.93
0.86
0.805
0.74
0.72
0.7
0.685
0.69
0.69
0.68
0.68
0.685
0.685
0.68
0.69
0.69
0.69
0.69
0.68
0.69
0.685
0.68
0.68
0.66
0.655
0.66
0.655
0.645
0.635
0.64
0.64
0.64
0.65
0.695
0.7
0.72
0.79
0.88
0.85
0.84
0.79
0.685
0.63
0.63
0.615
0.6
0.585
0.575
0.52
0.685
1.37
2.345
2.0
0.85
0.465
0.51
0.535
0.56
0.6
0.59
0.6
0.62
0.625
0.635
0.655
0.66
0.69
0.69
0.705
0.74
0.76
0.785
0.81
0.85
0.885
0.93
0.965
0.99
1.01
1.015
1.0
0.94
0.86
0.79
0.73
0.67
0.64
0.615
0.605
0.59
0.6
0.6
0.605
0.6
0.61
0.615
0.61
0.61
0.62
0.615
0.61
0.6
0.6
0.585
0.59
0.585
0.585
0.59
0.57
0.57
0.565
0.56
0.56
0.565
0.57
0.6
0.62
0.62
0.72
0.79
0.775
0.76
0.72
0.61
0.565
0.56
0.545
0.525
0.52
0.485
0.44
0.525
1.22
2.285
2.24
1.13
0.545
0.5
0.48
0.49
0.505
0.51
0.52
0.51
0.52
0.53
0.54
0.54
0.575
0.575
0.59
0.6
0.63
0.64
0.67
0.69
0.74
0.775
0.82
0.85
0.88
0.9
0.9
0.85
0.785
0.72
0.66
0.6
0.58
0.56
0.545
0.56
0.54
0.525
0.53
0.52
0.535
0.53
0.535
0.53
0.545
0.53
0.545
0.54
0.545
0.52
0.52
0.51
0.525
0.5
0.5
0.495
0.5
0.475
0.495
0.485
0.505
0.535
0.545
0.56
0.68
0.72
0.685
0.655
0.575
0.475
0.475
0.445
0.445
0.42
0.405
0.375
0.305
0.65
1.56
2.37
1.675
0.56
0.41
0.34
0.35
0.36
0.36
0.36
0.38
0.365
0.385
0.385
0.4
0.4
0.41
0.42
0.445
0.45
0.475
0.48
0.52
0.545
0.6
0.62
0.685
0.695
0.74
0.74
0.73
0.65
0.585
0.505
0.46
0.405
0.39
0.36
0.36
0.345
0.345
0.33
0.34
0.325
0.33
0.33
0.34
0.33
0.345
0.34
0.34
0.33
0.325
0.32
0.32
0.31
0.305
0.29
0.295
0.28
0.29
0.27
0.27
0.26
0.285
0.3
0.32
0.32
0.425
0.475
0.47
0.43
0.375
0.28
0.225
0.205
0.2
0.17
0.145
0.12
0.065
0.245
1.02
2.005
1.615
0.465
0.125
0.06
0.06
0.065
0.07
0.055
0.06
0.05
0.065
0.06
0.07
0.05
0.08
0.08
0.085
0.085
0.11
0.1
0.14
0.15
0.2
0.225
0.26
0.28
0.32
0.3
0.28
0.21
0.14
0.045
-0.005
-0.065
-0.08
-0.135
-0.135
-0.17
-0.155
-0.185
-0.175
-0.2
-0.2
-0.22
-0.2
-0.22
-0.215
-0.235
-0.23
-0.24
-0.24
-0.27
-0.27
-0.28
-0.28
-0.32
-0.3
-0.33
-0.32
-0.34
-0.34
-0.355
-0.32
-0.315
-0.295
-0.275
-0.18
-0.145
-0.165
-0.2
-0.27
-0.38
-0.38
-0.415
-0.425
-0.455
-0.455
-0.49
-0.545
-0.31
0.54
1.46
0.92
-0.24
-0.455
-0.52
-0.51
-0.505
-0.495
-0.505
-0.49
-0.495
-0.475
-0.485
-0.46
-0.47
-0.44
-0.435
-0.4
-0.41
-0.36
-0.36
-0.325
-0.3
-0.24
-0.22
-0.16
-0.145
-0.095
-0.1
-0.115
-0.185
-0.255
-0.33
-0.38
-0.44
-0.44
-0.48
-0.48
-0.505
-0.49
-0.505
-0.495
-0.5
-0.475
-0.485
-0.46
-0.47
-0.45
-0.46
-0.45
-0.46
-0.45
-0.475
-0.45
-0.465
-0.46
-0.475
-0.45
-0.47
-0.45
-0.47
-0.44
-0.45
-0.4
-0.4
-0.375
-0.325
-0.2
-0.2
-0.2
-0.24
-0.32
-0.41
-0.39
-0.4
-0.4
-0.44
-0.425
-0.48
-0.455
0.05
1.02
1.415
0.44
-0.495
-0.44
-0.455
-0.395
-0.38
-0.35
-0.36
-0.32
-0.33
-0.295
-0.28
-0.255
-0.24
-0.215
-0.215
-0.165
-0.155
-0.11
-0.09
-0.03
0.01
0.085
0.125
0.185
0.205
0.24
0.205
0.175
0.08
0.015
-0.06
-0.1
-0.15
-0.14
-0.175
-0.17
-0.175
-0.16
-0.175
-0.15
-0.155
-0.13
-0.14
-0.11
-0.115
-0.095
-0.11
-0.08
-0.115
-0.11
-0.12
-0.09
-0.11
-0.095
-0.1
-0.08
-0.1
-0.08
-0.1
-0.075
-0.05
-0.01
-0.015
0.09
0.155
0.165
0.145
0.12
0.005
-0.02
-0.03
-0.02
-0.06
-0.06
-0.07
-0.11
-0.075
0.56
1.54
1.605
0.445
-0.23
-0.145
-0.095
-0.06
-0.01
-0.01
0.025
0.035
0.065
0.045
0.09
0.1
0.13
0.14
0.175
0.19
0.24
0.255
0.32
0.35
0.425
0.48
0.545
0.57
0.61
0.59
0.575
0.485
0.405
0.305
0.25
0.18
0.16
0.13
0.13
0.12
0.125
0.105
0.125
0.105
0.13
0.12
0.14
0.13
0.15
0.13
0.145
0.13
0.12
0.12
0.125
0.1
0.11
0.09
0.105
0.085
0.085
0.08
0.065
0.05
0.08
0.08
0.1
0.1
0.215
0.24
0.2
0.14
0.08
-0.035
-0.05
-0.08
-0.095
-0.14
-0.155
-0.22
-0.28
-0.01
0.85
1.625
0.865
-0.34
-0.44
-0.42
-0.395
-0.4
-0.38
-0.41
-0.4
-0.435
-0.43
-0.465
-0.47
-0.5
-0.495
-0.52
-0.51
-0.53
-0.51
-0.515
-0.495
-0.485
-0.445
-0.43
-0.4
-0.42
-0.42
-0.465
-0.535
-0.655
-0.755
-0.88
-0.96
-1.04
-1.09
-1.14
-1.15
-1.2
-1.23
-1.28
-1.295
-1.32
-1.34
-1.36
-1.38
-1.42
-1.42
-1.46
-1.48
-1.515
-1.535
-1.57
-1.595
-1.63
-1.65
-1.68
-1.695
-1.73
-1.735
-1.775
-1.79
-1.8
-1.8
-1.81
-1.82
-1.785
-1.71
-1.72
-1.755
-1.795
-1.875
-1.96
-1.98
-2.015
-2.025
-2.06
-2.06
-2.125
-2.145
-1.74
-0.92
-0.465
-1.29
-2.2
-2.195
-2.205
-2.16
-2.17
-2.15
-2.15
-2.13
-2.135
-2.12
-2.135
-2.115
-2.12
-2.1
-2.09
-2.07
-2.06
-2.03
-1.995
-1.96
-1.91
-1.875
-1.84
-1.78
-1.77
-1.735
-1.755
-1.81
-1.89
-1.95
-2.03
-2.07
-2.115
-2.11
-2.125
-2.12
-2.135
-2.12
-2.14
-2.125
-2.13
-2.135
-2.14
-2.12
-2.11
-2.105
-2.095
-2.065
-2.06
-2.05
-2.05
-2.03
-2.025
-2.015
-2.0
-1.985
-1.985
-1.95
-1.92
-1.885
-1.88
-1.81
-1.72
-1.715
-1.735
-1.735
-1.81
-1.825
-1.82
-1.815
-1.825
-1.8
-1.8
-1.83
-1.72
-1.175
-0.4
-0.485
-1.35
-1.735
-1.68
-1.675
-1.64
-1.59
-1.575
-1.545
-1.535
-1.495
-1.48
-1.455
-1.435
-1.39
-1.36
-1.32
-1.3
-1.25
-1.2
-1.155
-1.11
-1.035
-0.98
-0.905
-0.86
-0.815
-0.79
-0.795
-0.845
-0.9
-0.96
-0.98
-1.01
-1.0
-1.0
-0.985
-0.98
-0.96
-0.955
-0.94
-0.94
-0.92
-0.92
-0.895
-0.88
-0.865
-0.85
-0.83
-0.815
-0.79
-0.78
-0.76
-0.76
-0.735
-0.72
-0.71
-0.71
-0.68
-0.665
-0.63
-0.6
-0.57
-0.5
-0.4
-0.39
-0.4
-0.42
-0.49
-0.52
-0.515
-0.52
-0.51
-0.51
-0.505
-0.545
-0.4
0.22
1.15
1.02
0.065
-0.37
-0.38
-0.39
-0.35
-0.34
-0.315
-0.31
-0.28
-0.27
-0.25
-0.23
-0.21
-0.19
-0.16
-0.145
-0.105
-0.075
-0.045
-0.01
0.05
0.105
0.175
0.24
0.295
0.33
0.36
0.33
0.285
0.21
0.15
0.1
0.08
0.05
0.06
0.05
0.06
0.06
0.06
0.05
0.08
0.06
0.08
0.09
0.1
0.12
0.13
0.145
0.16
0.165
0.185
0.19
0.2
0.2
0.21
0.215
0.24
0.245
0.28
0.305
0.325
0.37
0.48
0.51
0.5
0.475
0.4
0.32
0.32
0.315
0.31
0.3
0.3
0.25
0.27
0.74
1.805
2.395
1.51
0.51
0.435
0.36
0.375
0.385
0.4
0.39
0.415
0.44
0.44
0.44
0.47
0.48
0.5
0.52
0.545
0.56
0.6
0.625
0.685
0.72
0.78
0.85
0.9
0.935
0.97
0.945
0.885
0.785
0.69
0.62
0.565
0.52
0.51
0.475
0.46
0.45
0.44
0.4
0.4
0.36
0.36
0.35
0.34
0.33
0.325
0.305
0.29
0.28
0.25
0.225
0.21
0.18
0.17
0.13
0.105
0.08
0.08
0.08
0.055
0.055
0.125
0.145
0.08
0.015
-0.08
-0.215
-0.28
-0.31
-0.375
-0.43
-0.48
-0.55
-0.63
-0.315
0.565
1.32
0.5
-0.71
-0.84
-0.89
-0.925
-0.955
-0.985
-1.035
-1.06
-1.11
-1.145
-1.18
-1.2
-1.255
-1.275
-1.3
-1.32
-1.34
-1.35
-1.36
-1.34
-1.32
-1.29
-1.26
-1.25
-1.25
-1.265
-1.335
-1.44
-1.56
-1.69
-1.77
-1.855
-1.92
-1.96
-2.0
-2.025
-2.065
-2.085
-2.105
-2.14
-2.16
-2.175
-2.19
-2.2
-2.2
-2.205
-2.215
-2.215
-2.225
-2.24
-2.24
-2.255
-2.265
-2.275
-2.28
-2.29
-2.295
-2.28
-2.265
-2.255
-2.23
-2.145
-2.115
-2.14
-2.16
-2.225
-2.28
-2.305
-2.31
-2.34
-2.34
-2.355
-2.38
-2.405
-2.07
-1.36
-0.895
-1.62
-2.43
-2.38
-2.355
-2.32
-2.29
-2.27
-2.26
-2.24
-2.23
-2.22
-2.2
-2.2
-2.18
-2.16
-2.135
-2.115
-2.075
-2.04
-2.0
-1.95
-1.9
-1.84
-1.78
-1.735
-1.68
-1.68
-1.7
-1.765
-1.82
-1.88
-1.925
-1.94
-1.96
-1.96
-1.96
-1.955
-1.945
-1.945
-1.93
-1.925
-1.9
-1.895
-1.875
-1.84
-1.83
-1.82
-1.785
-1.77
-1.76
-1.75
-1.725
-1.72
-1.68
-1.68
-1.66
-1.64
-1.59
-1.56
-1.535
-1.455
-1.36
-1.37
-1.36
-1.39
-1.43
-1.445
-1.42
-1.415
-1.41
-1.39
-1.38
-1.41
-1.21
-0.595
0.12
-0.28
-1.115
-1.27
-1.235
-1.21
-1.16
-1.135
-1.105
-1.095
-1.06
-1.035
-1.0
-0.99
-0.95
-0.925
-0.88
-0.87
-0.82
-0.785
-0.735
-0.69
-0.62
-0.56
-0.485
-0.43
-0.38
-0.35
-0.33
-0.375
-0.4
-0.465
-0.495
-0.53
-0.52
-0.53
-0.505
-0.505
-0.49
-0.49
-0.475
-0.47
-0.44
-0.435
-0.4
-0.395
-0.36
-0.34
-0.3
-0.3
-0.27
-0.265
-0.24
-0.24
-0.215
-0.21
-0.18
-0.175
-0.145
-0.09
-0.07
-0.04
0.08
0.12
0.12
0.095
0.065
-0.01
-0.005
0.0
0.01
-0.005
0.01
-0.02
-0.025
0.35
1.18
1.77
1.105
0.2
0.155
0.12
0.145
0.16
0.17
0.195
0.225
0.225
0.25
0.26
0.285
0.305
0.345
0.36
0.4
0.405
0.45
0.48
0.54
0.6
0.665
0.72
0.78
0.81
0.86
0.84
0.795
0.7
0.655
0.6
0.56
0.535
0.54
0.53
0.545
0.535
0.535
0.52
0.54
0.55
0.56
0.565
0.58
0.59
0.62
0.625
0.64
0.64
0.66
0.655
0.67
0.66
0.68
0.685
0.7
0.745
0.77
0.785
0.89
0.955
0.94
0.92
0.88
0.785
0.765
0.77
0.765
0.72
0.74
0.73
0.685
0.97
1.885
2.815
2.23
1.095
0.895
0.805
0.82
0.82
0.83
0.84
0.85
0.86
0.865
0.885
0.895
0.905
0.93
0.94
0.97
0.985
1.015
1.05
1.09
1.13
1.21
1.265
1.325
1.36
1.4
1.385
1.34
1.26
1.18
1.105
1.06
1.04
1.02
1.0
1.0
1.0
0.975
0.98
0.975
0.98
0.99
1.0
1.005
1.01
1.025
1.03
1.05
1.04
1.04
1.045
1.04
1.045
1.06
1.08
1.115
1.125
1.17
1.275
1.3
1.275
1.25
1.14
1.08
1.07
1.06
1.04
1.04
1.04
0.96
0.98
1.545
2.64
3.06
2.03
1.105
1.08
1.025
1.04
1.055
1.06
1.055
1.065
1.08
1.08
1.08
1.11
1.115
1.135
1.16
1.17
1.2
1.22
1.26
1.305
1.36
1.42
1.49
1.53
1.56
1.565
1.53
1.44
1.36
1.275
1.21
1.18
1.14
1.125
1.085
1.1
1.09
1.08
1.07
1.08
1.08
1.08
1.105
1.11
1.115
1.115
1.12
1.11
1.105
1.105
1.11
1.11
1.1
1.135
1.15
1.165
1.24
1.34
1.33
1.32
1.28
1.165
1.1
1.09
1.07
1.055
1.04
1.025
0.96
1.05
1.75
2.86
2.82
1.68
1.08
1.04
1.005
1.04
1.025
1.03
1.04
1.04
1.045
1.065
1.07
1.08
1.1
1.11
1.125
1.145
1.17
1.2
1.23
1.28
1.35
1.415
1.46
1.5
1.525
1.51
1.465
1.375
1.275
1.2
1.14
1.1
1.08
1.06
1.03
1.02
1.005
1.005
1.01
1.01
1.005
1.03
1.03
1.04
1.04
1.04
1.04
1.025
1.04
1.045
1.03
1.04
1.065
1.08
1.085
1.19
1.265
1.24
1.22
1.16
1.04
1.02
1.0
0.98
0.97
0.955
0.94
0.88
1.16
2.04
2.985
2.32
1.115
0.93
0.91
0.91
0.945
0.95
0.96
0.965
0.96
0.985
0.99
0.99
1.0
1.025
1.04
1.06
1.07
1.095
1.13
1.18
1.225
1.28
1.33
1.37
1.41
1.41
1.38
1.32
1.23
1.13
1.08
1.01
1.0
0.96
0.935
0.92
0.92
0.905
0.9
0.91
0.91
0.93
0.945
0.94
0.945
0.94
0.94
0.94
0.935
0.93
0.925
0.93
0.94
0.97
0.98
1.01
1.115
1.165
1.13
1.105
1.01
0.93
0.9
0.885
0.88
0.86
0.85
0.795
0.78
1.26
2.325
2.975
2.01
0.935
0.88
0.83
0.85
0.865
0.85
0.865
0.88
0.88
0.885
0.89
0.895
0.91
0.92
0.95
0.96
0.98
1.005
1.04
1.08
1.135
1.2
1.225
1.28
1.31
1.31
1.28
1.21
1.1
1.03
0.96
0.91
0.88
0.86
0.84
0.84
0.81
0.805
0.805
0.81
0.84
0.83
0.84
0.85
0.845
0.855
0.84
0.85
0.84
0.84
0.84
0.84
0.88
0.89
0.89
0.98
1.08
1.065
1.045
0.99
0.87
0.825
0.82
0.795
0.78
0.78
0.76
0.68
0.845
1.625
2.74
2.415
1.16
0.73
0.73
0.73
0.745
0.745
0.74
0.765
0.76
0.77
0.785
0.8
0.795
0.81
0.825
0.84
0.86
0.88
0.92
0.96
1.0
1.07
1.115
1.145
1.185
1.205
1.185
1.115
1.01
0.91
0.845
0.795
0.745
0.73
0.705
0.69
0.665
0.67
0.66
0.67
0.66
0.66
0.67
0.68
0.7
0.7
0.685
0.685
0.68
0.67
0.665
0.68
0.68
0.72
0.725
0.73
0.81
0.9
0.87
0.85
0.795
0.725
0.665
0.665
0.635
0.625
0.605
0.6
0.56
0.665
1.26
2.19
1.98
0.91
0.49
0.56
0.56
0.6
0.6
0.6
0.62
0.625
0.625
0.645
0.65
0.67
0.68
0.69
0.72
0.735
0.76
0.795
0.825
0.865
0.92
0.98
1.0
1.04
1.04
1.02
0.955
0.865
0.78
0.72
0.66
0.63
0.61
0.6
0.575
0.575
0.56
0.56
0.56
0.56
0.56
0.565
0.56
0.57
0.575
0.57
0.56
0.565
0.55
0.56
0.56
0.54
0.535
0.56
0.57
0.6
0.62
0.72
0.74
0.705
0.67
0.605
0.53
0.53
0.52
0.5
0.475
0.475
0.43
0.43
0.85
1.665
2.0
1.205
0.44
0.465
0.44
0.465
0.47
0.485
0.485
0.5
0.49
0.5
0.52
0.53
0.525
0.54
0.545
0.57
0.58
0.615
0.63
0.68
0.72
0.765
0.795
0.84
0.86
0.86
0.81
0.76
0.68
0.62
0.56
0.53
0.495
0.48
0.465
0.47
0.45
0.455
0.44
0.46
0.445
0.465
0.465
0.47
0.47
0.485
0.47
0.47
0.47
0.47
0.45
0.46
0.44
0.46
0.445
0.45
0.46
0.49
0.5
0.52
0.6
0.7
0.67
0.65
0.59
0.49
0.44
0.46
0.43
0.42
0.4
0.4
0.33
0.43
1.04
2.015
2.0
1.0
0.45
0.43
0.4
0.415
0.405
0.41
0.41
0.43
0.425
0.44
0.44
0.46
0.46
0.49
0.49
0.52
0.54
0.565
0.575
0.63
0.665
0.73
0.76
0.81
0.81
0.845
0.8
0.745
0.66
0.605
0.52
0.52
0.47
0.46
0.44
0.44
0.42
0.425
0.42
0.425
0.42
0.43
0.43
0.44
0.43
0.46
0.445
0.455
0.44
0.46
0.43
0.445
0.44
0.44
0.425
0.44
0.42
0.44
0.42
0.44
0.45
0.495
0.485
0.58
0.68
0.695
0.65
0.63
0.495
0.45
0.43
0.425
0.39
0.39
0.36
0.34
0.285
0.775
1.81
2.42
1.5
0.505
0.42
0.38
0.36
0.4
0.365
0.4
0.38
0.41
0.4
0.42
0.42
0.45
0.44
0.475
0.475
0.51
0.525
0.56
0.57
0.645
0.665
0.725
0.76
0.805
0.81
0.82
0.75
0.7
0.6
0.56
0.49
0.48
0.44
0.44
0.405
0.405
0.4
0.405
0.385
0.42
0.4
0.41
0.42
0.44
0.425
0.44
0.425
0.43
0.42
0.425
0.41
0.425
0.405
0.42
0.405
0.42
0.4
0.415
0.4
0.41
0.4
0.4
0.4
0.445
0.455
0.475
0.565
0.69
0.65
0.65
0.57
0.46
0.4
0.42
0.38
0.38
0.345
0.365
0.285
0.29
0.825
1.9
2.3
1.3
0.37
0.4
0.325
0.365
0.36
0.38
0.36
0.385
0.38
0.415
0.4
0.43
0.44
0.455
0.46
0.5
0.49
0.525
0.55
0.59
0.62
0.68
0.7
0.75
0.76
0.795
0.77
0.75
0.66
0.605
0.525
0.49
0.44
0.42
0.4
0.4
0.365
0.4
0.38
0.4
0.39
0.405
0.405
0.42
0.4
0.415
0.4
0.405
0.38
0.4
0.365
0.385
0.36
0.365
0.34
0.36
0.335
0.36
0.32
0.345
0.325
0.33
0.32
0.33
0.31
0.325
0.33
0.37
0.365
0.4
0.47
0.58
0.545
0.52
0.455
0.35
0.295
0.31
0.27
0.26
0.225
0.24
0.145
0.225
0.88
1.95
1.94
0.83
0.19
0.2
0.165
0.2
0.185
0.21
0.2
0.22
0.205
0.22
0.225
0.24
0.23
0.25
0.25
0.28
0.28
0.32
0.315
0.36
0.365
0.42
0.44
0.475
0.485
0.51
0.48
0.46
0.37
0.31
0.225
0.18
0.12
0.11
0.07
0.06
0.04
0.06
0.04
0.065
0.045
0.065
0.045
0.05
0.04
0.04
0.02
0.01
-0.015
-0.01
-0.03
-0.03
-0.05
-0.05
-0.065
-0.065
-0.1
-0.08
-0.11
-0.105
-0.12
-0.12
-0.14
-0.12
-0.155
-0.14
-0.16
-0.11
-0.1
-0.095
-0.04
0.085
0.05
0.03
-0.015
-0.12
-0.2
-0.2
-0.24
-0.24
-0.28
-0.28
-0.35
-0.345
0.145
1.18
1.58
0.59
-0.32
-0.315
-0.37
-0.32
-0.33
-0.325
-0.315
-0.315
-0.325
-0.3
-0.32
-0.295
-0.3
-0.275
-0.28
-0.255
-0.26
-0.235
-0.215
-0.19
-0.165
-0.115
-0.1
-0.05
-0.05
-0.015
-0.03
-0.05
-0.12
-0.2
-0.28
-0.325
-0.38
-0.4
-0.43
-0.43
-0.46
-0.44
-0.455
-0.44
-0.45
-0.43
-0.44
-0.42
-0.44
-0.435
-0.46
-0.45
-0.485
-0.485
-0.49
-0.485
-0.51
-0.5
-0.52
-0.51
-0.53
-0.52
-0.54
-0.53
-0.545
-0.535
-0.55
-0.54
-0.545
-0.55
-0.56
-0.545
-0.545
-0.51
-0.5
-0.48
-0.44
-0.315
-0.3
-0.33
-0.37
-0.44
-0.535
-0.54
-0.555
-0.56
-0.59
-0.59
-0.645
-0.67
-0.265
0.725
1.34
0.48
-0.56
-0.595
-0.645
-0.6
-0.595
-0.58
-0.56
-0.56
-0.56
-0.54
-0.54
-0.515
-0.51
-0.485
-0.48
-0.45
-0.44
-0.4
-0.39
-0.355
-0.335
-0.28
-0.255
-0.22
-0.195
-0.155
-0.165
-0.155
-0.22
-0.28
-0.35
-0.395
-0.425
-0.46
-0.49
-0.485
-0.495
-0.485
-0.49
-0.47
-0.46
-0.44
-0.44
-0.425
-0.435
-0.42
-0.425
-0.42
-0.43
-0.425
-0.44
-0.44
-0.44
-0.435
-0.45
-0.43
-0.435
-0.43
-0.435
-0.415
-0.435
-0.42
-0.435
-0.45
-0.465
-0.45
-0.46
-0.45
-0.44
-0.41
-0.375
-0.36
-0.31
-0.185
-0.17
-0.2
-0.225
-0.31
-0.4
-0.39
-0.4
-0.4
-0.42
-0.415
-0.47
-0.48
-0.02
0.97
1.5
0.585
-0.395
-0.39
-0.435
-0.39
-0.37
-0.365
-0.35
-0.33
-0.335
-0.305
-0.3
-0.28
-0.265
-0.24
-0.235
-0.2
-0.2
-0.17
-0.145
-0.11
-0.08
-0.04
-0.01
0.03
0.06
0.085
0.1
0.095
0.05
-0.015
-0.08
-0.12
-0.17
-0.2
-0.215
-0.22
-0.215
-0.2
-0.21
-0.18
-0.18
-0.165
-0.16
-0.15
-0.14
-0.135
-0.14
-0.12
-0.14
-0.135
-0.145
-0.135
-0.14
-0.125
-0.13
-0.12
-0.13
-0.115
-0.12
-0.115
-0.115
-0.105
-0.105
-0.1
-0.1
-0.095
-0.09
-0.08
-0.065
-0.025
-0.015
0.03
0.135
0.205
0.17
0.155
0.08
-0.01
-0.04
-0.02
-0.035
-0.055
-0.055
-0.075
-0.135
0.195
1.065
1.93
1.24
0.11
-0.03
-0.04
-0.02
0.01
0.01
0.03
0.04
0.055
0.055
0.08
0.09
0.12
0.12
0.155
0.155
0.2
0.205
0.225
0.26
0.3
0.32
0.365
0.385
0.425
0.44
0.47
0.46
0.44
0.36
0.305
0.24
0.205
0.16
0.155
0.14
0.14
0.14
0.15
0.155
0.17
0.17
0.19
0.19
0.2
0.2
0.205
0.205
0.2
0.195
0.19
0.185
0.2
0.19
0.2
0.2
0.205
0.205
0.21
0.2
0.205
0.2
0.205
0.215
0.21
0.205
0.225
0.225
0.26
0.285
0.3
0.35
0.47
0.475
0.46
0.425
0.33
0.26
0.26
0.24
0.24
0.21
0.21
0.155
0.185
0.74
1.75
2.02
1.0
0.205
0.22
0.19
0.23
0.24
0.24
0.25
0.27
0.28
0.29
0.3
0.32
0.34
0.35
0.36
0.385
0.4
0.42
0.445
0.475
0.5
0.545
0.565
0.605
0.635
0.65
0.66
0.66
0.6
0.56
0.48
0.42
0.36
0.37
0.33
0.34
0.33
0.34
0.34
0.35
0.36
0.37
0.37
0.38
0.4
0.38
0.38
0.38
0.375
0.385
0.38
0.37
0.37
0.37
0.365
0.37
0.37
0.36
0.365
0.37
0.36
0.36
0.36
0.36
0.37
0.37
0.37
0.4
0.425
0.45
0.45
0.56
0.63
0.6
0.58
0.505
0.41
0.385
0.38
0.36
0.35
0.345
0.325
0.26
0.5
1.32
2.25
1.69
0.54
0.32
0.32
0.305
0.32
0.33
0.34
0.35
0.36
0.37
0.37
0.37
0.4
0.4
0.405
0.41
0.42
0.44
0.46
0.465
0.485
0.505
0.525
0.545
0.565
0.57
0.58
0.57
0.52
0.45
0.37
0.305
0.24
0.18
0.145
0.12
0.09
0.08
0.065
0.05
0.025
0.02
0.01
-0.01
-0.02
-0.04
-0.07
-0.09
-0.12
-0.135
-0.17
-0.2
-0.23
-0.24
-0.28
-0.3
-0.35
-0.37
-0.4
-0.42
-0.45
-0.485
-0.515
-0.54
-0.575
-0.6
-0.63
-0.64
-0.65
-0.665
-0.69
-0.625
-0.56
-0.625
-0.67
-0.75
-0.88
-0.96
-1.0
-1.04
-1.1
-1.135
-1.18
-1.275
-1.16
-0.485
0.53
0.26
-0.92
-1.39
-1.42
-1.46
-1.46
-1.47
-1.495
-1.52
-1.52
-1.545
-1.56
-1.58
-1.585
-1.6
-1.605
-1.6
-1.615
-1.62
-1.63
-1.625
-1.625
-1.61
-1.6
-1.58
-1.58
-1.575
-1.58
-1.595
-1.625
-1.71
-1.8
-1.87
-1.95
-2.0
-2.04
-2.075
-2.1
-2.115
-2.12
-2.135
-2.14
-2.155
-2.16
-2.16
-2.17
-2.18
-2.195
-2.21
-2.23
-2.24
-2.24
-2.26
-2.28
-2.29
-2.295
-2.315
-2.32
-2.32
-2.34
-2.355
-2.36
-2.35
-2.375
-2.38
-2.38
-2.39
-2.38
-2.37
-2.34
-2.33
-2.3
-2.2
-2.14
-2.16
-2.185
-2.265
-2.36
-2.385
-2.385
-2.405
-2.41
-2.435
-2.45
-2.5
-2.21
-1.35
-0.45
-1.1
-2.25
-2.42
-2.43
-2.425
-2.38
-2.375
-2.36
-2.35
-2.33
-2.31
-2.29
-2.275
-2.25
-2.225
-2.2
-2.17
-2.14
-2.12
-2.09
-2.06
-2.015
-1.96
-1.92
-1.885
-1.835
-1.805
-1.78
-1.77
-1.79
-1.84
-1.89
-1.94
-1.97
-1.99
-1.995
-1.995
-1.98
-1.96
-1.95
-1.925
-1.9
-1.88
-1.84
-1.84
-1.83
-1.81
-1.79
-1.775
-1.755
-1.75
-1.73
-1.72
-1.71
-1.695
-1.665
-1.665
-1.64
-1.62
-1.6
-1.6
-1.57
-1.55
-1.535
-1.52
-1.495
-1.48
-1.45
-1.4
-1.355
-1.33
-1.22
-1.115
-1.105
-1.105
-1.125
-1.225
-1.24
-1.24
-1.235
-1.23
-1.22
-1.225
-1.27
-1.145
-0.47
0.61
0.55
-0.57
-1.12
-1.1
-1.095
-1.055
-1.02
-1.0
-0.97
-0.945
-0.92
-0.88
-0.86
-0.84
-0.795
-0.775
-0.74
-0.71
-0.67
-0.64
-0.6
-0.56
-0.515
-0.47
-0.415
-0.38
-0.34
-0.31
-0.28
-0.3
-0.335
-0.395
-0.435
-0.5
-0.52
-0.535
-0.545
-0.535
-0.52
-0.51
-0.5
-0.495
-0.475
-0.47
-0.44
-0.44
-0.42
-0.415
-0.42
-0.42
-0.4
-0.415
-0.4
-0.4
-0.39
-0.4
-0.39
-0.395
-0.38
-0.38
-0.37
-0.38
-0.36
-0.36
-0.355
-0.36
-0.345
-0.335
-0.295
-0.28
-0.255
-0.17
-0.065
-0.08
-0.08
-0.12
-0.22
-0.28
-0.27
-0.3
-0.295
-0.31
-0.31
-0.38
-0.3
0.32
1.37
1.46
0.39
-0.3
-0.28
-0.31
-0.27
-0.26
-0.24
-0.225
-0.2
-0.2
-0.18
-0.175
-0.14
-0.13
-0.1
-0.09
-0.055
-0.06
-0.025
-0.005
0.04
0.06
0.115
0.145
0.185
0.205
0.24
0.25
0.245
0.18
0.13
0.065
0.025
-0.02
-0.03
-0.05
-0.04
-0.05
-0.035
-0.03
-0.01
-0.03
0.005
0.005
0.02
0.02
0.035
0.02
0.04
0.025
0.04
0.04
0.045
0.045
0.05
0.045
0.06
0.055
0.08
0.065
0.08
0.08
0.095
0.085
0.11
0.12
0.17
0.18
0.26
0.36
0.39
0.36
0.36
0.25
0.2
0.18
0.19
0.17
0.175
0.15
0.135
0.11
0.625
1.61
2.1
1.15
0.24
0.19
0.2
0.21
0.25
0.245
0.27
0.28
0.305
0.305
0.33
0.34
0.38
0.39
0.425
0.44
0.475
0.485
0.53
0.54
0.61
0.63
0.68
0.72
0.75
0.77
0.805
0.775
0.725
0.66
0.62
0.545
0.52
0.49
0.49
0.475
0.475
0.475
0.505
0.5
0.52
0.525
0.54
0.54
0.56
0.55
0.56
0.56
0.57
0.565
0.58
0.57
0.585
0.57
0.58
0.58
0.6
0.59
0.61
0.6
0.62
0.61
0.62
0.63
0.685
0.68
0.725
0.81
0.9
0.865
0.865
0.795
0.7
0.665
0.67
0.65
0.64
0.63
0.63
0.56
0.785
1.54
2.57
2.13
0.97
0.645
0.645
0.635
0.665
0.67
0.69
0.695
0.72
0.73
0.75
0.745
0.785
0.79
0.815
0.825
0.86
0.88
0.905
0.925
0.96
1.0
1.05
1.08
1.115
1.13
1.165
1.16
1.11
1.05
1.0
0.94
0.895
0.845
0.84
0.825
0.825
0.815
0.825
0.82
0.84
0.84
0.85
0.84
0.86
0.845
0.86
0.85
0.855
0.84
0.845
0.84
0.85
0.84
0.84
0.835
0.84
0.83
0.84
0.84
0.825
0.84
0.88
0.885
0.905
0.965
1.07
1.08
1.055
1.0
0.92
0.84
0.85
0.83
0.82
0.79
0.795
0.72
0.765
1.34
2.385
2.64
1.565
0.77
0.79
0.76
0.785
0.79
0.805
0.805
0.83
0.83
0.855
0.86
0.88
0.88
0.91
0.92
0.94
0.955
0.99
1.015
1.05
1.08
1.12
1.16
1.2
1.225
1.255
1.24
1.2
1.11
1.04
0.98
0.935
0.89
0.87
0.845
0.85
0.83
0.84
0.825
0.83
0.84
0.84
0.84
0.85
0.85
0.85
0.83
0.84
0.83
0.825
0.82
0.83
0.81
0.825
0.81
0.82
0.805
0.81
0.81
0.83
0.85
0.87
0.88
0.98
1.06
1.055
1.01
0.96
0.85
0.81
0.8
0.795
0.775
0.76
0.75
0.7
0.925
1.695
2.66
2.095
0.9
0.625
0.665
0.7
0.74
0.765
0.77
0.785
0.79
0.815
0.82
0.84
0.85
0.87
0.88
0.905
0.925
0.94
0.98
1.01
1.07
1.115
1.16
1.2
1.23
1.24
1.245
1.205
1.115
1.04
0.95
0.88
0.83
0.795
0.77
0.765
0.74
0.75
0.76
0.76
0.76
0.765
0.765
0.77
0.765
0.78
0.765
0.765
0.76
0.76
0.75
0.745
0.75
0.74
0.73
0.725
0.73
0.73
0.73
0.75
0.77
0.77
0.845
0.94
0.96
0.92
0.88
0.79
0.73
0.72
0.7
0.69
0.68
0.66
0.6
0.62
1.225
2.24
2.44
1.28
0.475
0.545
0.56
0.615
0.645
0.67
0.665
0.68
0.685
0.7
0.72
0.73
0.745
0.76
0.78
0.785
0.81
0.85
0.89
0.93
0.98
1.025
1.07
1.105
1.14
1.14
1.095
1.04
0.94
0.845
0.78
0.72
0.68
0.67
0.66
0.66
0.63
0.63
0.62
0.63
0.635
0.645
0.645
0.645
0.65
0.66
0.66
0.645
0.645
0.635
0.63
0.63
0.62
0.615
0.61
0.61
0.61
0.61
0.62
0.645
0.65
0.67
0.76
0.845
0.82
0.79
0.76
0.645
0.6
0.59
0.58
0.57
0.56
0.53
0.45
0.585
1.36
2.525
2.42
1.185
0.56
0.54
0.5
0.535
0.535
0.54
0.55
0.56
0.56
0.58
0.58
0.585
0.6
0.61
0.625
0.645
0.66
0.685
0.72
0.76
0.79
0.855
0.89
0.925
0.96
0.98
0.96
0.88
0.785
0.7
0.625
0.58
0.535
0.505
0.49
0.47
0.45
0.425
0.42
0.385
0.38
0.375
0.35
0.34
0.34
0.315
0.3
0.285
0.27
0.245
0.22
0.2
0.185
0.15
0.13
0.11
0.1
0.065
0.07
0.065
0.045
0.09
0.18
0.15
0.1
0.04
-0.08
-0.19
-0.21
-0.27
-0.31
-0.36
-0.395
-0.46
-0.52
-0.065
1.0
1.65
0.67
-0.485
-0.595
-0.695
-0.715
-0.74
-0.77
-0.805
-0.83
-0.855
-0.87
-0.905
-0.92
-0.95
-0.975
-0.995
-1.015
-1.03
-1.04
-1.04
-1.04
-1.035
-1.0
-0.985
-0.98
-0.98
-0.99
-1.03
-1.12
-1.235
-1.36
-1.46
-1.55
-1.6
-1.67
-1.715
-1.75
-1.78
-1.835
-1.86
-1.89
-1.925
-1.95
-1.98
-2.0
-2.025
-2.04
-2.055
-2.085
-2.105
-2.12
-2.15
-2.175
-2.205
-2.235
-2.26
-2.28
-2.305
-2.32
-2.34
-2.345
-2.32
-2.32
-2.32
-2.24
-2.18
-2.22
-2.26
-2.32
-2.455
-2.49
-2.51
-2.54
-2.565
-2.59
-2.61
-2.695
-2.56
-1.8
-0.66
-0.84
-2.055
-2.62
-2.64
-2.68
-2.665
-2.66
-2.67
-2.655
-2.64
-2.64
-2.635
-2.625
-2.615
-2.61
-2.59
-2.575
-2.555
-2.535
-2.5
-2.47
-2.425
-2.365
-2.305
-2.24
-2.21
-2.16
-2.16
-2.2
-2.275
-2.36
-2.44
-2.51
-2.555
-2.58
-2.595
-2.605
-2.6
-2.6
-2.61
-2.61
-2.6
-2.6
-2.58
-2.575
-2.56
-2.55
-2.53
-2.515
-2.51
-2.5
-2.495
-2.48
-2.48
-2.465
-2.455
-2.44
-2.45
-2.435
-2.415
-2.385
-2.345
-2.32
-2.29
-2.16
-2.085
-2.105
-2.115
-2.16
-2.24
-2.235
-2.225
-2.225
-2.23
-2.23
-2.225
-2.26
-1.985
-1.135
-0.155
-0.79
-2.025
-2.2
-2.135
-2.07
-2.02
-1.97
-1.93
-1.905
-1.875
-1.84
-1.8
-1.765
-1.73
-1.68
-1.65
-1.6
-1.555
-1.52
-1.45
-1.39
-1.315
-1.22
-1.135
-1.07
-1.015
-0.975
-0.975
-1.03
-1.105
-1.19
-1.26
-1.31
-1.325
-1.34
-1.335
-1.33
-1.31
-1.295
-1.265
-1.255
-1.235
-1.2
-1.17
-1.145
-1.125
-1.1
-1.08
-1.07
-1.055
-1.035
-1.02
-1.005
-0.995
-0.98
-0.965
-0.945
-0.935
-0.915
-0.88
-0.85
-0.805
-0.78
-0.71
-0.58
-0.535
-0.57
-0.56
-0.65
-0.7
-0.695
-0.69
-0.69
-0.69
-0.69
-0.72
-0.755
-0.34
0.6
1.255
0.31
-0.805
-0.76
-0.7
-0.645
-0.6
-0.585
-0.57
-0.535
-0.53
-0.52
-0.5
-0.5
-0.495
-0.475
-0.455
-0.44
-0.42
-0.395
-0.37
-0.32
-0.275
-0.225
-0.175
-0.14
-0.135
-0.15
-0.2
-0.305
-0.435
-0.575
-0.66
-0.75
-0.815
-0.86
-0.91
-0.93
-0.985
-1.025
-1.05
-1.08
-1.12
-1.16
-1.19
-1.22
-1.255
-1.285
-1.32
-1.36
-1.4
-1.45
-1.485
-1.52
-1.56
-1.615
-1.65
-1.68
-1.72
-1.765
-1.79
-1.795
-1.82
-1.84
-1.78
-1.74
-1.815
-1.86
-1.935
-2.075
-2.145
-2.185
-2.215
-2.275
-2.315
-2.355
-2.47
-2.34
-1.55
-0.4
-0.63
-1.935
-2.54
-2.575
-2.6
-2.575
-2.575
-2.58
-2.575
-2.58
-2.575
-2.58
-2.58
-2.57
-2.56
-2.56
-2.54
-2.54
-2.5
-2.48
-2.455
-2.42
-2.36
-2.305
-2.25
-2.21
-2.17
-2.17
-2.195
-2.275
-2.355
-2.455
-2.52
-2.56
-2.58
-2.595
-2.6
-2.605
-2.6
-2.6
-2.6
-2.585
-2.575
-2.555
-2.53
-2.535
-2.505
-2.5
-2.48
-2.475
-2.46
-2.46
-2.45
-2.44
-2.43
-2.42
-2.415
-2.39
-2.38
-2.38
-2.36
-2.36
-2.34
-2.31
-2.265
-2.255
-2.185
-2.075
-2.03
-2.045
-2.055
-2.12
-2.18
-2.2
-2.19
-2.195
-2.19
-2.18
-2.175
-2.225
-1.9
-0.935
0.22
-0.35
-1.635
-1.95
-2.0
-1.995
-1.955
-1.95
-1.915
-1.89
-1.855
-1.84
-1.8
-1.785
-1.755
-1.73
-1.69
-1.66
-1.61
-1.575
-1.52
-1.47
-1.395
-1.32
-1.23
-1.15
-1.08
-1.03
-0.985
-1.0
-1.055
-1.135
-1.2
-1.255
-1.285
-1.305
-1.285
-1.285
-1.265
-1.26
-1.24
-1.23
-1.21
-1.21
-1.185
-1.16
-1.135
-1.1
-1.065
-1.04
-1.025
-0.985
-0.955
-0.94
-0.915
-0.905
-0.86
-0.87
-0.84
-0.825
-0.795
-0.775
-0.74
-0.7
-0.645
-0.635
-0.575
-0.44
-0.36
-0.375
-0.36
-0.42
-0.49
-0.505
-0.47
-0.475
-0.46
-0.45
-0.455
-0.51
-0.155
0.785
1.815
1.125
-0.12
-0.305
-0.305
-0.295
-0.24
-0.235
-0.2
-0.2
-0.165
-0.155
-0.135
-0.13
-0.095
-0.07
-0.04
-0.035
0.01
0.04
0.08
0.12
0.19
0.255
0.315
0.36
0.41
0.43
0.43
0.37
0.3
0.2
0.12
0.04
0.01
-0.02
-0.02
-0.055
-0.04
-0.06
-0.06
-0.08
-0.08
-0.115
-0.1
-0.13
-0.11
-0.125
-0.1
-0.115
-0.095
-0.115
-0.105
-0.13
-0.12
-0.135
-0.12
-0.145
-0.15
-0.155
-0.135
-0.145
-0.11
-0.12
-0.04
0.02
0.02
-0.03
-0.035
-0.13
-0.155
-0.18
-0.18
-0.21
-0.2
-0.235
-0.24
-0.215
0.28
1.065
1.025
0.06
-0.375
-0.295
-0.265
-0.24
-0.2
-0.2
-0.19
-0.19
-0.165
-0.165
-0.15
-0.16
-0.12
-0.12
-0.09
-0.075
-0.025
-0.005
0.05
0.065
0.125
0.18
0.24
0.245
0.285
0.265
0.24
0.165
0.11
0.04
0.01
-0.04
-0.05
-0.07
-0.06
-0.075
-0.055
-0.075
-0.05
-0.07
-0.05
-0.05
-0.04
-0.05
-0.015
-0.015
0.005
0.0
0.02
0.015
0.04
0.025
0.045
0.03
0.045
0.04
0.085
0.095
0.13
0.165
0.26
0.25
0.25
0.215
0.18
0.125
0.14
0.14
0.155
0.12
0.15
0.115
0.175
0.58
1.24
1.22
0.525
0.11
0.185
0.185
0.24
0.25
0.3
0.29
0.32
0.325
0.35
0.345
0.38
0.385
0.42
0.43
0.465
0.49
0.525
0.55
0.61
0.645
0.705
0.74
0.795
0.8
0.82
0.79
0.76
0.69
0.66
0.61
0.6
0.57
0.59
0.58
0.585
0.58
0.6
0.585
0.62
0.605
0.635
0.62
0.64
0.635
0.67
0.665
0.69
0.68
0.7
0.69
0.72
0.72
0.72
0.725
0.76
0.78
0.81
0.805
0.905
0.94
0.93
0.9
0.88
0.795
0.805
0.79
0.795
0.79
0.805
0.765
0.77
1.045
1.705
2.11
1.54
0.81
0.825
0.805
0.855
0.855
0.885
0.865
0.9
0.89
0.92
0.92
0.945
0.94
0.98
0.97
1.0
1.015
1.05
1.065
1.115
1.15
1.215
1.25
1.3
1.32
1.345
1.305
1.275
1.19
1.14
1.065
1.045
1.005
1.02
1.0
1.0
0.98
0.99
0.97
0.98
0.96
0.975
0.965
1.0
0.985
1.01
1.0
1.01
1.005
1.03
1.005
1.025
1.015
1.04
1.01
1.055
1.065
1.09
1.145
1.24
1.2
1.185
1.125
1.065
1.02
1.025
0.99
1.0
0.98
0.97
0.9
1.14
1.83
2.68
2.22
1.27
1.04
0.985
0.965
0.99
0.98
0.99
0.985
1.0
0.99
1.02
1.01
1.025
1.04
1.055
1.05
1.09
1.085
1.12
1.135
1.2
1.23
1.305
1.33
1.38
1.4
1.4
1.33
1.285
1.18
1.115
1.05
1.04
1.0
1.005
0.98
0.98
0.94
0.96
0.92
0.93
0.905
0.93
0.9
0.92
0.9
0.92
0.89
0.92
0.89
0.89
0.865
0.88
0.865
0.91
0.9
0.935
1.01
1.04
0.985
0.955
0.83
0.76
0.725
0.72
0.665
0.655
0.61
0.565
0.57
1.12
2.12
2.405
1.39
0.64
0.54
0.485
0.465
0.465
0.44
0.445
0.41
0.41
0.385
0.4
0.37
0.38
0.36
0.37
0.35
0.365
0.36
0.4
0.4
0.445
0.47
0.505
0.52
0.56
0.525
0.48
0.38
0.29
0.18
0.11
0.04
0.02
-0.03
-0.05
-0.08
-0.11
-0.155
-0.155
-0.195
-0.19
-0.22
-0.22
-0.24
-0.225
-0.24
-0.24
-0.28
-0.275
-0.3
-0.29
-0.3
-0.26
-0.275
-0.22
-0.14
-0.1
-0.17
-0.175
-0.31
-0.38
-0.4
-0.4
-0.44
-0.44
-0.485
-0.54
-0.49
0.12
1.11
1.225
0.155
-0.495
-0.53
-0.54
-0.53
-0.515
-0.53
-0.52
-0.52
-0.505
-0.51
-0.49
-0.49
-0.47
-0.46
-0.44
-0.43
-0.395
-0.38
-0.335
-0.3
-0.225
-0.18
-0.13
-0.105
-0.065
-0.08
-0.12
-0.22
-0.295
-0.38
-0.415
-0.46
-0.475
-0.495
-0.49
-0.51
-0.495
-0.52
-0.5
-0.5
-0.47
-0.47
-0.46
-0.455
-0.43
-0.43
-0.4
-0.42
-0.395
-0.4
-0.375
-0.34
-0.315
-0.3
-0.19
-0.11
-0.115
-0.145
-0.19
-0.305
-0.305
-0.32
-0.3
-0.32
-0.315
-0.36
-0.38
-0.055
0.89
1.745
1.04
-0.1
-0.21
-0.27
-0.24
-0.24
-0.215
-0.2
-0.19
-0.185
-0.16
-0.165
-0.12
-0.115
-0.08
-0.06
-0.02
-0.005
0.04
0.085
0.15
0.215
0.295
0.35
0.42
0.44
0.46
0.41
0.34
0.24
0.17
0.095
0.08
0.055
0.04
0.025
0.02
0.01
0.01
-0.005
0.0
0.02
0.03
0.04
0.06
0.08
0.1
0.09
0.12
0.12
0.145
0.17
0.19
0.24
0.35
0.35
0.34
0.3
0.24
0.18
0.2
0.165
0.175
0.15
0.16
0.11
0.205
0.74
1.575
1.39
0.445
0.065
0.155
0.185
0.24
0.24
0.25
0.265
0.285
0.28
0.305
0.31
0.33
0.33
0.365
0.385
0.42
0.425
0.475
0.525
0.58
0.63
0.695
0.73
0.76
0.765
0.74
0.68
0.605
0.52
0.475
0.42
0.41
0.4
0.385
0.365
0.38
0.37
0.37
0.36
0.385
0.4
0.4
0.4
0.41
0.42
0.44
0.43
0.44
0.44
0.47
0.475
0.49
0.56
0.635
0.6
0.575
0.52
0.47
0.455
0.455
0.445
0.44
0.425
0.4
0.41
0.76
1.38
1.625
0.96
0.38
0.41
0.43
0.445
0.465
0.475
0.49
0.49
0.505
0.51
0.52
0.52
0.54
0.56
0.58
0.57
0.605
0.62
0.665
0.7
0.74
0.78
0.83
0.85
0.88
0.86
0.82
0.745
0.69
0.62
0.6
0.56
0.55
0.54
0.535
0.53
0.53
0.52
0.52
0.52
0.52
0.52
0.54
0.54
0.56
0.545
0.56
0.56
0.56
0.57
0.61
0.61
0.63
0.72
0.765
0.74
0.72
0.64
0.585
0.58
0.57
0.55
0.545
0.525
0.5
0.52
0.9
1.64
1.885
1.14
0.54
0.535
0.53
0.535
0.56
0.545
0.575
0.56
0.575
0.57
0.585
0.585
0.6
0.605
0.625
0.645
0.68
0.68
0.73
0.74
0.8
0.845
0.89
0.91
0.94
0.925
0.885
0.81
0.745
0.68
0.645
0.61
0.61
0.6
0.6
0.57
0.585
0.56
0.57
0.56
0.56
0.54
0.57
0.56
0.58
0.585
0.59
0.585
0.6
0.59
0.6
0.605
0.64
0.645
0.68
0.76
0.815
0.775
0.76
0.685
0.625
0.605
0.6
0.575
0.56
0.56
0.52
0.54
1.02
1.85
2.12
1.275
0.62
0.585
0.56
0.565
0.58
0.565
0.585
0.585
0.59
0.59
0.61
0.605
0.62
0.635
0.65
0.665
0.69
0.7
0.74
0.77
0.82
0.87
0.92
0.945
0.985
0.98
0.935
0.86
0.78
0.72
0.68
0.635
0.63
0.62
0.62
0.6
0.58
0.58
0.565
0.545
0.565
0.56
0.565
0.57
0.585
0.585
0.59
0.58
0.6
0.59
0.58
0.58
0.585
0.58
0.605
0.62
0.645
0.68
0.785
0.81
0.78
0.74
0.655
0.58
0.575
0.57
0.56
0.53
0.535
0.46
0.53
1.105
2.09
2.22
1.27
0.64
0.59
0.525
0.55
0.53
0.545
0.54
0.545
0.56
0.565
0.565
0.58
0.58
0.6
0.61
0.63
0.65
0.68
0.705
0.765
0.795
0.86
0.905
0.96
0.98
0.985
0.93
0.865
0.78
0.72
0.66
0.64
0.605
0.6
0.58
0.57
0.55
0.545
0.53
0.54
0.54
0.545
0.56
0.575
0.58
0.59
0.59
0.6
0.6
0.6
0.58
0.59
0.585
0.6
0.585
0.6
0.585
0.6
0.625
0.635
0.645
0.74
0.84
0.825
0.795
0.76
0.635
0.59
0.58
0.575
0.56
0.54
0.52
0.45
0.605
1.375
2.46
2.205
1.06
0.615
0.54
0.52
0.54
0.54
0.52
0.54
0.535
0.545
0.55
0.56
0.55
0.56
0.57
0.59
0.6
0.62
0.63
0.665
0.7
0.75
0.795
0.85
0.87
0.89
0.885
0.82
0.725
0.645
0.56
0.49
0.445
0.405
0.38
0.36
0.31
0.29
0.265
0.25
0.245
0.24
0.23
0.24
0.22
0.205
0.195
0.185
0.16
0.14
0.12
0.1
0.08
0.05
0.04
0.025
-0.005
-0.02
-0.035
-0.06
-0.08
-0.095
-0.1
-0.08
-0.1
-0.095
-0.02
0.045
0.0
-0.04
-0.13
-0.24
-0.315
-0.315
-0.36
-0.4
-0.42
-0.47
-0.56
-0.29
0.545
1.47
0.8
-0.4
-0.59
-0.63
-0.635
-0.62
-0.65
-0.65
-0.665
-0.68
-0.68
-0.69
-0.71
-0.715
-0.71
-0.715
-0.71
-0.7
-0.695
-0.67
-0.65
-0.61
-0.56
-0.51
-0.475
-0.44
-0.44
-0.475
-0.555
-0.65
-0.77
-0.855
-0.92
-0.965
-1.01
-1.04
-1.065
-1.09
-1.1
-1.12
-1.125
-1.13
-1.125
-1.125
-1.13
-1.125
-1.125
-1.125
-1.135
-1.15
-1.16
-1.17
-1.175
-1.175
-1.19
-1.2
-1.2
-1.2
-1.215
-1.225
-1.235
-1.225
-1.24
-1.23
-1.235
-1.22
-1.195
-1.19
-1.125
-1.02
-1.04
-1.07
-1.1
-1.195
-1.26
-1.245
-1.265
-1.28
-1.285
-1.3
-1.36
-1.29
-0.69
0.25
0.12
-0.955
-1.425
-1.34
-1.32
-1.27
-1.245
-1.23
-1.215
-1.2
-1.19
-1.18
-1.16
-1.14
-1.13
-1.11
-1.08
-1.06
-1.02
-0.995
-0.945
-0.895
-0.83
-0.77
-0.71
-0.665
-0.645
-0.65
-0.69
-0.77
-0.855
-0.92
-0.97
-1.015
-1.035
-1.04
-1.04
-1.04
-1.04
-1.04
-1.03
-1.025
-1.0
-0.98
-0.96
-0.95
-0.935
-0.92
-0.915
-0.915
-0.895
-0.9
-0.895
-0.895
-0.88
-0.875
-0.86
-0.855
-0.855
-0.84
-0.835
-0.83
-0.815
-0.805
-0.795
-0.79
-0.76
-0.72
-0.7
-0.69
-0.595
-0.52
-0.51
-0.535
-0.55
-0.635
-0.675
-0.655
-0.66
-0.68
-0.68
-0.675
-0.735
-0.54
0.185
1.095
0.72
-0.31
-0.61
-0.625
-0.61
-0.595
-0.575
-0.56
-0.55
-0.54
-0.52
-0.52
-0.515
-0.5
-0.485
-0.475
-0.465
-0.455
-0.44
-0.42
-0.39
-0.36
-0.325
-0.29
-0.255
-0.22
-0.21
-0.21
-0.24
-0.33
-0.4
-0.5
-0.56
-0.615
-0.665
-0.7
-0.74
-0.775
-0.795
-0.83
-0.85
-0.87
-0.87
-0.9
-0.915
-0.94
-0.955
-0.985
-1.0
-1.055
-1.09
-1.13
-1.16
-1.2
-1.235
-1.275
-1.31
-1.36
-1.39
-1.445
-1.475
-1.515
-1.55
-1.61
-1.645
-1.68
-1.72
-1.78
-1.81
-1.86
-1.9
-1.94
-1.96
-1.99
-1.995
-2.04
-2.01
-1.97
-2.02
-2.095
-2.14
-2.28
-2.36
-2.41
-2.445
-2.48
-2.535
-2.575
-2.64
-2.575
-1.995
-1.1
-1.14
-2.12
-2.64
-2.74
-2.78
-2.78
-2.795
-2.8
-2.815
-2.83
-2.825
-2.85
-2.855
-2.855
-2.835
-2.85
-2.83
-2.83
-2.82
-2.82
-2.785
-2.77
-2.73
-2.7
-2.64
-2.615
-2.57
-2.54
-2.52
-2.575
-2.615
-2.69
-2.74
-2.795
-2.8
-2.83
-2.83
-2.855
-2.84
-2.86
-2.84
-2.85
-2.84
-2.855
-2.85
-2.83
-2.8
-2.8
-2.78
-2.775
-2.755
-2.755
-2.74
-2.735
-2.715
-2.73
-2.705
-2.705
-2.68
-2.68
-2.655
-2.655
-2.63
-2.62
-2.6
-2.595
-2.57
-2.58
-2.54
-2.55
-2.53
-2.52
-2.49
-2.48
-2.43
-2.405
-2.36
-2.32
-2.2
-2.16
-2.16
-2.16
-2.225
-2.305
-2.295
-2.3
-2.295
-2.305
-2.285
-2.315
-2.31
-1.935
-1.02
-0.4
-1.09
-2.03
-2.09
-2.145
-2.11
-2.09
-2.06
-2.04
-2.0
-2.015
-1.96
-1.96
-1.925
-1.915
-1.88
-1.86
-1.82
-1.795
-1.75
-1.72
-1.67
-1.63
-1.56
-1.52
-1.455
-1.42
-1.355
-1.33
-1.32
-1.35
-1.38
-1.445
-1.46
-1.49
-1.49
-1.51
-1.5
-1.51
-1.48
-1.47
-1.435
-1.415
-1.38
-1.36
-1.325
-1.32
-1.285
-1.275
-1.24
-1.25
-1.22
-1.2
-1.18
-1.17
-1.155
-1.135
-1.1
-1.11
-1.08
-1.07
-1.04
-1.04
-1.01
-0.995
-0.975
-0.97
-0.94
-0.935
-0.9
-0.88
-0.86
-0.86
-0.83
-0.83
-0.78
-0.76
-0.71
-0.67
-0.63
-0.54
-0.43
-0.43
-0.415
-0.45
-0.52
-0.56
-0.54
-0.555
-0.535
-0.54
-0.52
-0.575
-0.415
0.26
1.25
1.02
0.01
-0.385
-0.4
-0.395
-0.355
-0.345
-0.32
-0.3
-0.27
-0.24
-0.225
-0.2
-0.17
-0.155
-0.12
-0.095
-0.07
-0.04
0.01
0.04
0.085
0.135
0.2
0.24
0.285
0.325
0.36
0.375
0.37
0.325
0.285
0.225
0.19
0.16
0.15
0.14
0.15
0.16
0.18
0.19
0.21
0.22
0.255
0.25
0.27
0.3
0.3
0.305
0.31
0.31
0.33
0.32
0.33
0.34
0.35
0.34
0.365
0.375
0.38
0.38
0.4
0.4
0.4
0.4
0.425
0.43
0.43
0.44
0.45
0.45
0.46
0.47
0.475
0.485
0.505
0.52
0.565
0.58
0.62
0.735
0.78
0.76
0.76
0.67
0.59
0.58
0.58
0.57
0.58
0.565
0.525
0.5
0.91
1.8
2.39
1.605
0.65
0.61
0.575
0.6
0.64
0.64
0.65
0.665
0.685
0.69
0.71
0.73
0.74
0.76
0.77
0.795
0.81
0.84
0.855
0.88
0.905
0.93
0.97
1.0
1.025
1.04
1.05
1.05
1.0
0.92
0.86
0.79
0.74
0.69
0.65
0.625
0.6
0.585
0.575
0.55
0.535
0.52
0.505
0.48
0.475
0.43
0.39
0.365
0.32
0.28
0.245
0.21
0.155
0.125
0.06
0.025
-0.015
-0.065
-0.11
-0.165
-0.215
-0.27
-0.32
-0.38
-0.44
-0.49
-0.55
-0.61
-0.675
-0.73
-0.79
-0.84
-0.91
-0.975
-1.02
-1.035
-1.09
-1.13
-1.1
-1.075
-1.14
-1.22
-1.335
-1.49
-1.59
-1.64
-1.72
-1.77
-1.82
-1.88
-1.995
-1.835
-1.14
-0.235
-0.705
-1.825
-2.16
-2.195
-2.225
-2.235
-2.255
-2.275
-2.29
-2.31
-2.335
-2.36
-2.345
-2.36
-2.36
-2.36
-2.35
-2.35
-2.34
-2.34
-2.33
-2.3
-2.29
-2.26
-2.24
-2.22
-2.195
-2.175
-2.16
-2.185
-2.225
-2.285
-2.345
-2.405
-2.435
-2.46
-2.47
-2.465
-2.465
-2.45
-2.44
-2.435
-2.42
-2.405
-2.39
-2.39
-2.375
-2.38
-2.37
-2.375
-2.365
-2.37
-2.36
-2.345
-2.345
-2.32
-2.32
-2.315
-2.3
-2.29
-2.28
-2.27
-2.255
-2.255
-2.245
-2.225
-2.22
-2.215
-2.21
-2.19
-2.19
-2.185
-2.175
-2.16
-2.16
-2.15
-2.11
-2.085
-2.06
-1.98
-1.88
-1.885
-1.9
-1.92
-2.015
-2.065
-2.06
-2.055
-2.06
-2.055
-2.05
-2.105
-1.98
-1.32
-0.315
-0.46
-1.52
-2.015
-1.985
-1.975
-1.93
-1.9
-1.87
-1.84
-1.81
-1.78
-1.765
-1.73
-1.695
-1.675
-1.64
-1.6
-1.575
-1.55
-1.51
-1.48
-1.445
-1.4
-1.355
-1.3
-1.27
-1.22
-1.19
-1.15
-1.14
-1.17
-1.22
-1.26
-1.3
-1.33
-1.34
-1.335
-1.32
-1.31
-1.275
-1.26
-1.24
-1.2
-1.185
-1.155
-1.135
-1.125
-1.105
-1.08
-1.08
-1.065
-1.06
-1.04
-1.03
-1.015
-1.0
-0.99
-0.975
-0.96
-0.945
-0.935
-0.92
-0.905
-0.895
-0.87
-0.855
-0.835
-0.83
-0.805
-0.785
-0.76
-0.74
-0.72
-0.695
-0.66
-0.615
-0.58
-0.5
-0.38
-0.32
-0.34
-0.345
-0.425
-0.475
-0.46
-0.455
-0.455
-0.44
-0.435
-0.485
-0.415
0.18
1.18
1.365
0.365
-0.33
-0.315
-0.31
-0.255
-0.23
-0.2
-0.18
-0.15
-0.12
-0.105
-0.075
-0.055
-0.025
0.01
0.045
0.08
0.12
0.155
0.19
0.24
0.28
0.31
0.365
0.405
0.445
0.48
0.51
0.52
0.5
0.455
0.4
0.36
0.33
0.32
0.31
0.32
0.32
0.34
0.35
0.38
0.405
0.41
0.43
0.44
0.46
0.485
0.485
0.49
0.495
0.505
0.495
0.52
0.52
0.525
0.53
0.54
0.56
0.56
0.565
0.57
0.57
0.57
0.58
0.59
0.59
0.605
0.61
0.61
0.6
0.615
0.61
0.605
0.64
0.66
0.665
0.72
0.81
0.84
0.815
0.77
0.685
0.58
0.565
0.55
0.525
0.49
0.475
0.4
0.39
0.895
1.84
2.18
1.22
0.35
0.32
0.27
0.27
0.27
0.24
0.21
0.21
0.2
0.165
0.15
0.13
0.12
0.095
0.08
0.06
0.055
0.04
0.02
0.015
0.005
-0.005
0.005
0.0
-0.005
-0.02
-0.02
-0.05
-0.115
-0.2
-0.29
-0.375
-0.455
-0.51
-0.555
-0.59
-0.62
-0.64
-0.67
-0.69
-0.7
-0.72
-0.74
-0.755
-0.775
-0.795
-0.81
-0.825
-0.855
-0.87
-0.89
-0.91
-0.92
-0.95
-0.96
-0.97
-0.985
-0.99
-1.01
-1.02
-1.025
-1.035
-1.035
-1.04
-1.04
-1.05
-1.055
-1.075
-1.06
-1.08
-1.08
-1.04
-1.02
-1.015
-0.955
-0.855
-0.84
-0.865
-0.895
-0.98
-1.055
-1.065
-1.075
-1.08
-1.095
-1.105
-1.16
-1.095
-0.49
0.535
0.6
-0.45
-1.08
-1.08
-1.095
-1.06
-1.04
-1.035
-1.015
-1.0
-0.985
-0.96
-0.94
-0.92
-0.9
-0.875
-0.86
-0.84
-0.815
-0.79
-0.75
-0.72
-0.68
-0.645
-0.61
-0.56
-0.52
-0.485
-0.455
-0.45
-0.48
-0.52
-0.56
-0.615
-0.645
-0.655
-0.66
-0.65
-0.645
-0.63
-0.615
-0.6
-0.58
-0.555
-0.54
-0.52
-0.5
-0.495
-0.485
-0.465
-0.47
-0.45
-0.435
-0.425
-0.41
-0.395
-0.39
-0.36
-0.36
-0.34
-0.34
-0.32
-0.315
-0.29
-0.275
-0.27
-0.25
-0.24
-0.23
-0.22
-0.2
-0.185
-0.15
-0.1
-0.09
-0.01
0.105
0.13
0.11
0.095
-0.01
-0.065
-0.07
-0.07
-0.07
-0.075
-0.07
-0.12
-0.02
0.63
1.65
1.6
0.535
-0.01
-0.015
-0.015
0.025
0.045
0.055
0.08
0.085
0.105
0.12
0.13
0.15
0.17
0.185
0.215
0.23
0.255
0.28
0.295
0.33
0.37
0.4
0.44
0.47
0.5
0.53
0.56
0.56
0.52
0.47
0.405
0.36
0.325
0.3
0.285
0.285
0.285
0.3
0.32
0.32
0.33
0.345
0.36
0.365
0.37
0.37
0.385
0.37
0.385
0.385
0.38
0.385
0.4
0.385
0.4
0.4
0.4
0.405
0.4
0.405
0.41
0.42
0.42
0.415
0.425
0.44
0.44
0.44
0.46
0.5
0.52
0.56
0.66
0.73
0.7
0.69
0.615
0.525
0.52
0.53
0.505
0.5
0.49
0.46
0.44
0.805
1.7
2.395
1.64
0.6
0.525
0.49
0.52
0.56
0.56
0.565
0.58
0.6
0.62
0.625
0.64
0.66
0.685
0.705
0.725
0.745
0.76
0.79
0.82
0.85
0.9
0.92
0.96
0.985
1.0
1.03
1.055
1.015
0.96
0.92
0.865
0.82
0.79
0.775
0.77
0.77
0.775
0.79
0.79
0.795
0.82
0.825
0.83
0.85
0.85
0.85
0.85
0.86
0.855
0.85
0.87
0.86
0.86
0.865
0.88
0.885
0.885
0.88
0.89
0.89
0.9
0.9
0.9
0.905
0.94
0.92
0.925
0.94
0.96
0.99
1.005
1.04
1.145
1.2
1.18
1.165
1.09
1.0
1.0
0.985
0.96
0.945
0.945
0.9
0.88
1.275
2.2
2.85
2.04
1.0
0.96
0.92
0.945
0.97
0.975
0.985
1.0
1.0
1.02
1.04
1.05
1.06
1.07
1.085
1.105
1.115
1.14
1.16
1.18
1.2
1.24
1.265
1.3
1.33
1.36
1.37
1.38
1.35
1.29
1.24
1.18
1.125
1.1
1.075
1.065
1.06
1.05
1.06
1.055
1.06
1.06
1.06
1.045
1.05
1.05
1.02
1.02
1.0
0.99
0.97
0.96
0.925
0.92
0.885
0.88
0.84
0.825
0.79
0.775
0.74
0.72
0.69
0.65
0.62
0.595
0.54
0.51
0.47
0.445
0.44
0.405
0.375
0.44
0.445
0.365
0.305
0.17
0.015
-0.055
-0.12
-0.2
-0.28
-0.355
-0.44
-0.555
-0.32
0.485
1.23
0.475
-0.71
-0.92
-1.015
-1.075
-1.12
-1.19
-1.26
-1.31
-1.36
-1.42
-1.48
-1.535
-1.585
-1.63
-1.67
-1.705
-1.75
-1.785
-1.82
-1.86
-1.88
-1.895
-1.92
-1.925
-1.94
-1.955
-1.975
-2.0
-2.075
-2.155
-2.25
-2.34
-2.43
-2.475
-2.535
-2.56
-2.59
-2.61
-2.63
-2.64
-2.655
-2.655
-2.665
-2.67
-2.67
-2.67
-2.68
-2.675
-2.68
-2.69
-2.69
-2.69
-2.69
-2.68
-2.68
-2.66
-2.66
-2.64
-2.635
-2.62
-2.62
-2.6
-2.595
-2.58
-2.575
-2.555
-2.53
-2.49
-2.455
-2.43
-2.375
-2.255
-2.225
-2.23
-2.245
-2.32
-2.395
-2.385
-2.39
-2.395
-2.395
-2.39
-2.44
-2.405
-1.86
-0.85
-0.51
-1.48
-2.29
-2.28
-2.3
-2.255
-2.22
-2.195
-2.16
-2.14
-2.12
-2.085
-2.07
-2.04
-2.015
-1.99
-1.975
-1.925
-1.905
-1.86
-1.84
-1.79
-1.755
-1.695
-1.64
-1.59
-1.56
-1.52
-1.505
-1.49
-1.53
-1.575
-1.625
-1.66
-1.7
-1.72
-1.72
-1.71
-1.705
-1.69
-1.68
-1.65
-1.64
-1.61
-1.59
-1.55
-1.535
-1.515
-1.5
-1.48
-1.48
-1.455
-1.45
-1.435
-1.42
-1.395
-1.395
-1.375
-1.355
-1.34
-1.335
-1.32
-1.295
-1.275
-1.26
-1.24
-1.22
-1.18
-1.13
-1.08
-1.06
-0.95
-0.84
-0.835
-0.835
-0.86
-0.95
-0.96
-0.95
-0.935
-0.935
-0.92
-0.92
-0.955
-0.71
0.1
1.09
0.64
-0.485
-0.75
-0.76
-0.72
-0.695
-0.655
-0.635
-0.61
-0.585
-0.55
-0.52
-0.48
-0.46
-0.415
-0.385
-0.35
-0.32
-0.27
-0.24
-0.19
-0.16
-0.095
-0.04
0.02
0.06
0.12
0.15
0.17
0.15
0.12
0.06
0.02
-0.02
-0.04
-0.04
-0.035
-0.025
-0.005
0.01
0.025
0.05
0.08
0.09
0.14
0.14
0.165
0.17
0.215
0.21
0.24
0.24
0.26
0.265
0.28
0.28
0.3
0.305
0.33
0.335
0.36
0.365
0.39
0.4
0.42
0.43
0.46
0.5
0.52
0.55
0.67
0.74
0.73
0.72
0.67
0.58
0.57
0.56
0.56
0.545
0.56
0.53
0.5
0.785
1.65
2.51
1.88
0.735
0.6
0.58
0.62
0.635
0.66
0.67
0.705
0.705
0.735
0.74
0.77
0.78
0.8
0.82
0.865
0.88
0.92
0.94
0.99
1.02
1.08
1.12
1.185
1.205
1.25
1.26
1.27
1.2
1.16
1.07
1.02
0.96
0.94
0.92
0.93
0.9
0.925
0.91
0.925
0.93
0.945
0.94
0.97
0.965
0.97
0.965
0.985
0.97
0.985
0.985
1.0
0.99
0.985
0.975
0.99
0.98
1.0
0.99
1.015
1.0
1.005
1.0
1.015
1.01
1.045
1.055
1.085
1.16
1.26
1.24
1.235
1.185
1.115
1.045
1.065
1.04
1.04
1.02
1.02
0.95
1.115
1.8
2.8
2.45
1.265
0.84
0.93
0.965
1.04
1.05
1.08
1.08
1.105
1.1
1.125
1.14
1.16
1.175
1.21
1.205
1.25
1.265
1.295
1.33
1.38
1.4
1.48
1.495
1.535
1.54
1.57
1.54
1.52
1.435
1.365
1.27
1.255
1.2
1.185
1.15
1.16
1.15
1.165
1.14
1.17
1.16
1.18
1.18
1.175
1.18
1.205
1.17
1.18
1.16
1.17
1.16
1.17
1.15
1.16
1.13
1.16
1.135
1.145
1.125
1.145
1.13
1.14
1.125
1.14
1.14
1.2
1.19
1.22
1.32
1.365
1.33
1.325
1.24
1.16
1.14
1.115
1.09
1.085
1.065
1.04
0.98
1.4
2.36
3.185
2.36
1.225
1.08
1.025
1.02
1.045
1.025
1.045
1.03
1.04
1.04
1.06
1.025
1.04
1.025
1.045
1.04
1.06
1.04
1.065
1.06
1.08
1.095
1.14
1.14
1.175
1.165
1.18
1.115
1.06
0.955
0.865
0.745
0.69
0.62
0.585
0.525
0.495
0.43
0.41
0.36
0.325
0.28
0.245
0.2
0.175
0.11
0.09
0.03
-0.01
-0.075
-0.11
-0.185
-0.22
-0.29
-0.335
-0.395
-0.44
-0.52
-0.56
-0.625
-0.67
-0.745
-0.78
-0.84
-0.86
-0.91
-0.94
-0.95
-0.88
-0.95
-1.0
-1.105
-1.235
-1.37
-1.4
-1.48
-1.52
-1.605
-1.64
-1.765
-1.78
-1.29
-0.24
0.13
-0.87
-1.865
-1.915
-2.02
-2.0
-2.04
-2.05
-2.08
-2.08
-2.1
-2.105
-2.12
-2.12
-2.14
-2.125
-2.14
-2.115
-2.12
-2.09
-2.09
-2.055
-2.04
-1.985
-1.96
-1.905
-1.895
-1.84
-1.855
-1.86
-1.945
-2.0
-2.09
-2.12
-2.18
-2.18
-2.205
-2.195
-2.21
-2.195
-2.21
-2.175
-2.185
-2.15
-2.16
-2.13
-2.12
-2.09
-2.09
-2.06
-2.065
-2.03
-2.04
-2.0
-2.015
-1.98
-1.995
-1.965
-1.96
-1.93
-1.93
-1.895
-1.9
-1.865
-1.865
-1.82
-1.8
-1.74
-1.73
-1.62
-1.52
-1.48
-1.495
-1.495
-1.595
-1.63
-1.62
-1.6
-1.62
-1.6
-1.59
-1.62
-1.605
-1.0
0.06
0.45
-0.575
-1.4
-1.42
-1.435
-1.41
-1.35
-1.355
-1.305
-1.295
-1.245
-1.235
-1.185
-1.17
-1.11
-1.095
-1.04
-1.02
-0.96
-0.945
-0.875
-0.84
-0.76
-0.715
-0.635
-0.585
-0.52
-0.49
-0.435
-0.455
-0.49
-0.555
-0.59
-0.645
-0.645
-0.66
-0.645
-0.65
-0.62
-0.63
-0.59
-0.58
-0.54
-0.535
-0.5
-0.49
-0.455
-0.45
-0.41
-0.4
-0.375
-0.375
-0.345
-0.345
-0.31
-0.31
-0.28
-0.275
-0.24
-0.24
-0.2
-0.205
-0.17
-0.17
-0.135
-0.115
-0.05
-0.035
0.02
0.13
0.22
0.2
0.2
0.13
0.065
0.06
0.08
0.065
0.08
0.08
0.07
0.01
0.35
1.24
2.16
1.49
0.35
0.18
0.19
0.21
0.245
0.26
0.29
0.29
0.34
0.35
0.385
0.4
0.44
0.46
0.51
0.52
0.56
0.58
0.63
0.66
0.74
0.79
0.865
0.92
0.98
1.0
1.03
1.0
0.96
0.88
0.805
0.74
0.72
0.66
0.68
0.655
0.665
0.65
0.68
0.665
0.68
0.68
0.705
0.72
0.74
0.725
0.76
0.76
0.775
0.765
0.785
0.77
0.795
0.78
0.805
0.795
0.81
0.795
0.81
0.805
0.825
0.825
0.865
0.88
0.895
0.965
1.08
1.08
1.06
1.04
0.94
0.86
0.9
0.865
0.865
0.85
0.845
0.77
0.86
1.465
2.48
2.49
1.34
0.655
0.765
0.77
0.85
0.88
0.9
0.89
0.94
0.93
0.955
0.955
0.98
0.99
1.025
1.04
1.085
1.1
1.15
1.18
1.24
1.28
1.35
1.41
1.46
1.48
1.49
1.45
1.4
1.29
1.215
1.13
1.08
1.02
1.02
0.99
0.99
0.96
0.98
0.985
0.985
0.97
1.0
1.005
1.005
1.005
1.015
1.0
1.01
1.0
1.0
0.99
1.01
0.97
0.98
0.98
0.98
0.97
0.985
0.96
0.98
0.99
1.025
1.04
1.115
1.185
1.2
1.16
1.14
1.04
0.99
0.97
0.97
0.935
0.94
0.92
0.86
0.93
1.57
2.54
2.485
1.31
0.7
0.795
0.84
0.89
0.94
0.93
0.945
0.955
0.97
0.97
1.0
0.985
1.0
1.02
1.045
1.045
1.085
1.095
1.14
1.175
1.225
1.26
1.305
1.325
1.36
1.345
1.32
1.245
1.165
1.05
0.98
0.91
0.88
0.83
0.805
0.765
0.76
0.73
0.725
0.71
0.72
0.69
0.695
0.68
0.68
0.64
0.625
0.6
0.585
0.55
0.54
0.51
0.48
0.46
0.445
0.41
0.4
0.37
0.35
0.33
0.345
0.325
0.325
0.32
0.39
0.43
0.385
0.34
0.28
0.15
0.1
0.06
0.04
-0.02
-0.04
-0.095
-0.18
-0.01
0.805
1.945
1.685
0.41
-0.115
-0.22
-0.26
-0.275
-0.28
-0.31
-0.305
-0.315
-0.32
-0.34
-0.34
-0.36
-0.335
-0.355
-0.35
-0.355
-0.335
-0.335
-0.31
-0.29
-0.24
-0.22
-0.17
-0.15
-0.1
-0.08
-0.1
-0.155
-0.24
-0.34
-0.4
-0.49
-0.52
-0.54
-0.55
-0.56
-0.56
-0.6
-0.585
-0.59
-0.61
-0.625
-0.63
-0.63
-0.62
-0.635
-0.625
-0.62
-0.615
-0.625
-0.615
-0.625
-0.62
-0.63
-0.62
-0.63
-0.62
-0.64
-0.615
-0.6
-0.555
-0.56
-0.515
-0.415
-0.35
-0.38
-0.395
-0.475
-0.55
-0.58
-0.575
-0.59
-0.59
-0.6
-0.61
-0.68
-0.34
0.63
1.645
1.0
-0.235
-0.48
-0.55
-0.55
-0.515
-0.515
-0.485
-0.485
-0.46
-0.45
-0.425
-0.415
-0.395
-0.375
-0.34
-0.33
-0.295
-0.265
-0.235
-0.21
-0.135
-0.095
-0.015
0.04
0.09
0.14
0.16
0.135
0.085
0.0
-0.075
-0.135
-0.17
-0.185
-0.18
-0.195
-0.195
-0.19
-0.185
-0.19
-0.17
-0.175
-0.15
-0.145
-0.12
-0.11
-0.095
-0.095
-0.08
-0.08
-0.06
-0.06
-0.04
-0.055
-0.035
-0.035
-0.03
-0.02
-0.005
-0.01
0.02
0.055
0.09
0.1
0.18
0.28
0.29
0.26
0.25
0.15
0.105
0.1
0.1
0.08
0.08
0.06
0.01
0.04
0.685
1.815
2.14
1.05
0.2
0.145
0.1
0.12
0.145
0.145
0.155
0.17
0.19
0.2
0.22
0.23
0.25
0.265
0.3
0.32
0.35
0.375
0.41
0.445
0.5
0.56
0.62
0.68
0.72
0.76
0.765
0.72
0.645
0.56
0.5
0.445
0.41
0.4
0.4
0.38
0.38
0.365
0.37
0.37
0.37
0.37
0.39
0.38
0.4
0.405
0.41
0.405
0.42
0.405
0.405
0.41
0.41
0.405
0.415
0.405
0.405
0.405
0.42
0.42
0.455
0.47
0.475
0.54
0.645
0.66
0.64
0.61
0.52
0.445
0.445
0.43
0.425
0.405
0.405
0.34
0.36
0.92
1.92
2.18
1.065
0.24
0.325
0.34
0.4
0.41
0.42
0.44
0.455
0.455
0.475
0.485
0.505
0.51
0.525
0.545
0.58
0.6
0.625
0.67
0.74
0.795
0.86
0.92
0.96
0.98
1.0
0.965
0.885
0.785
0.69
0.615
0.56
0.505
0.485
0.465
0.465
0.46
0.465
0.445
0.445
0.44
0.46
0.46
0.47
0.475
0.47
0.48
0.48
0.48
0.48
0.465
0.475
0.46
0.465
0.45
0.47
0.465
0.47
0.47
0.475
0.485
0.52
0.515
0.575
0.68
0.69
0.64
0.635
0.54
0.5
0.465
0.47
0.46
0.44
0.44
0.4
0.38
0.88
1.73
1.97
0.97
0.24
0.335
0.37
0.42
0.45
0.455
0.465
0.46
0.475
0.485
0.51
0.5
0.52
0.53
0.55
0.56
0.58
0.6
0.63
0.665
0.71
0.75
0.8
0.84
0.855
0.84
0.845
0.76
0.695
0.615
0.56
0.51
0.475
0.445
0.43
0.42
0.42
0.4
0.415
0.4
0.4
0.4
0.4
0.4
0.4
0.41
0.4
0.4
0.4
0.38
0.38
0.36
0.36
0.36
0.34
0.34
0.345
0.335
0.37
0.36
0.36
0.44
0.475
0.44
0.415
0.38
0.315
0.26
0.26
0.225
0.225
0.2
0.2
0.155
0.315
0.835
1.485
1.105
0.28
0.09
0.12
0.13
0.155
0.15
0.155
0.15
0.155
0.155
0.15
0.155
0.175
0.155
0.175
0.18
0.2
0.2
0.24
0.245
0.285
0.32
0.35
0.37
0.41
0.41
0.41
0.39
0.315
0.26
0.2
0.14
0.11
0.09
0.07
0.065
0.06
0.05
0.04
0.025
0.02
0.01
0.015
0.015
0.005
0.015
0.02
0.02
0.03
0.02
0.025
0.02
0.02
0.025
0.025
0.005
0.02
0.015
0.055
0.065
0.08
0.14
0.215
0.185
0.175
0.14
0.06
0.025
0.025
0.01
0.0
-0.01
-0.025
-0.06
0.145
0.79
1.55
1.14
0.24
0.01
-0.015
-0.005
0.02
0.025
0.03
0.04
0.045
0.04
0.06
0.065
0.085
0.085
0.105
0.12
0.14
0.16
0.185
0.21
0.26
0.3
0.345
0.4
0.45
0.475
0.485
0.46
0.4
0.305
0.26
0.19
0.155
0.14
0.13
0.125
0.125
0.12
0.11
0.095
0.11
0.11
0.12
0.11
0.13
0.135
0.14
0.14
0.15
0.15
0.155
0.155
0.15
0.16
0.17
0.16
0.18
0.215
0.24
0.25
0.335
0.4
0.4
0.385
0.32
0.24
0.2
0.2
0.18
0.165
0.165
0.14
0.095
0.39
1.225
2.16
1.61
0.52
0.28
0.2
0.185
0.2
0.2
0.2
0.21
0.22
0.225
0.24
0.255
0.26
0.27
0.285
0.305
0.315
0.34
0.36
0.4
0.445
0.49
0.54
0.605
0.66
0.68
0.69
0.65
0.57
0.48
0.4
0.34
0.295
0.26
0.24
0.22
0.2
0.19
0.175
