signal
0.0
0.0
0.0
0.0
0.005
0.005
0.005
0.01
0.015
0.01
0.015
0.02
0.025
0.02
0.025
0.025
0.03
0.025
0.035
0.035
0.04
0.03
0.035
0.03
0.04
0.035
0.035
0.035
0.06
0.075
0.115
0.155
0.19
0.145
0.125
0.05
0.045
0.055
0.05
0.04
0.04
0.025
0.13
-0.06
-0.415
-0.245
0.15
0.79
0.615
0.36
0.155
0.025
0.005
-0.01
-0.01
-0.035
-0.02
-0.045
-0.035
-0.055
-0.06
-0.075
-0.08
-0.105
-0.11
-0.125
-0.14
-0.165
-0.18
-0.21
-0.22
-0.25
-0.245
-0.26
-0.24
-0.215
-0.17
-0.105
-0.045
0.0
0.025
0.02
0.025
0.015
0.005
0.0
-0.005
-0.005
-0.015
-0.005
-0.01
-0.01
-0.005
-0.005
-0.005
0.0
0.005
0.005
0.005
0.01
0.01
0.015
0.015
0.02
0.02
0.02
0.02
0.025
0.025
0.03
0.03
0.03
0.03
0.04
0.04
0.05
0.055
0.095
0.145
0.175
0.175
0.135
0.065
0.06
0.065
0.06
0.05
0.05
0.05
0.085
-0.02
-0.45
-0.48
0.145
0.77
0.74
0.435
0.215
0.085
0.015
0.015
0.0
-0.01
-0.015
-0.025
-0.035
-0.025
-0.035
-0.05
-0.065
-0.075
-0.09
-0.09
-0.11
-0.145
-0.15
-0.185
-0.2
-0.23
-0.24
-0.25
-0.245
-0.225
-0.175
-0.105
-0.03
0.01
0.04
0.06
0.065
0.04
0.035
0.035
0.02
0.025
0.01
0.01
0.0
0.015
0.0
0.0
0.0
0.005
0.0
0.0
0.0
0.015
0.0
0.005
0.005
0.0
0.015
-0.005
0.005
0.0
-0.005
0.0
0.0
-0.01
0.0
-0.015
-0.015
-0.005
-0.005
-0.025
-0.01
0.0
0.03
0.065
0.09
0.095
0.06
-0.02
-0.035
-0.02
-0.035
-0.04
-0.045
-0.05
-0.03
-0.08
-0.485
-0.585
-0.015
0.525
0.555
0.315
0.08
-0.04
-0.11
-0.13
-0.14
-0.145
-0.16
-0.165
-0.165
-0.175
-0.18
-0.195
-0.205
-0.215
-0.22
-0.24
-0.26
-0.275
-0.295
-0.315
-0.34
-0.37
-0.38
-0.385
-0.38
-0.355
-0.305
-0.24
-0.165
-0.11
-0.07
-0.055
-0.05
-0.06
-0.065
-0.075
-0.075
-0.08
-0.08
-0.085
-0.1
-0.095
-0.08
-0.085
-0.085
-0.085
-0.08
-0.08
-0.075
-0.075
-0.065
-0.07
-0.06
-0.055
-0.055
-0.05
-0.05
-0.05
-0.045
-0.04
-0.045
-0.04
-0.04
-0.03
-0.035
-0.025
-0.03
-0.025
-0.03
-0.02
-0.03
0.005
0.01
0.045
0.105
0.125
0.07
0.035
-0.01
0.0
-0.005
-0.005
-0.025
-0.01
-0.035
0.08
-0.185
-0.5
-0.05
0.23
0.72
0.515
0.255
0.075
-0.035
-0.03
-0.065
-0.055
-0.075
-0.06
-0.085
-0.075
-0.09
-0.08
-0.1
-0.095
-0.12
-0.12
-0.145
-0.155
-0.185
-0.195
-0.225
-0.235
-0.265
-0.265
-0.27
-0.255
-0.22
-0.165
-0.105
-0.04
0.0
0.02
0.03
0.02
0.01
0.0
0.0
-0.005
-0.01
-0.015
-0.015
-0.02
-0.02
-0.01
-0.015
-0.015
-0.005
-0.01
-0.005
0.0
0.0
0.0
0.0
0.005
0.005
0.01
0.01
0.01
0.015
0.02
0.02
0.02
0.02
0.02
0.015
0.025
0.015
0.03
0.02
0.02
0.02
0.025
0.02
0.03
0.03
0.04
0.03
0.05
0.06
0.085
0.145
0.175
0.135
0.11
0.04
0.06
0.055
0.055
0.045
0.05
0.03
0.115
-0.09
-0.46
-0.34
0.16
0.87
0.68
0.38
0.17
0.045
0.01
-0.02
-0.01
-0.03
-0.03
-0.045
-0.04
-0.06
-0.05
-0.07
-0.08
-0.095
-0.105
-0.125
-0.135
-0.155
-0.16
-0.18
-0.2
-0.22
-0.22
-0.225
-0.215
-0.185
-0.135
-0.1
-0.035
0.01
0.04
0.045
0.04
0.035
0.02
0.02
0.005
0.0
0.01
0.0
0.0
0.0
0.0
0.005
0.005
0.005
0.005
0.005
0.01
0.025
0.025
0.015
0.025
0.025
0.025
0.02
0.025
0.025
0.03
0.02
0.015
0.025
0.025
0.025
0.03
0.035
0.035
0.035
0.035
0.025
0.04
0.04
0.035
0.04
0.065
0.07
0.095
0.145
0.19
0.165
0.16
0.07
0.065
0.07
0.065
0.05
0.06
0.06
0.075
-0.01
-0.44
-0.46
0.13
0.715
0.725
0.435
0.195
0.085
0.015
-0.005
-0.01
-0.02
-0.005
-0.04
-0.045
-0.055
-0.065
-0.075
-0.085
-0.095
-0.12
-0.13
-0.145
-0.175
-0.19
-0.225
-0.245
-0.275
-0.295
-0.315
-0.305
-0.28
-0.24
-0.175
-0.095
-0.035
0.0
0.015
0.015
0.01
0.005
0.0
-0.005
-0.005
-0.005
-0.01
-0.015
-0.02
-0.015
-0.02
-0.02
-0.015
-0.01
-0.005
0.0
0.0
0.0
0.0
0.005
0.01
0.015
0.02
0.02
0.02
0.025
0.025
0.03
0.025
0.03
0.025
0.03
0.025
0.03
0.025
0.03
0.03
0.035
0.03
0.035
0.03
0.04
0.03
0.04
0.04
0.07
0.09
0.125
0.18
0.195
0.13
0.075
0.045
0.075
0.05
0.055
0.035
0.05
0.035
0.125
-0.215
-0.5
0.11
0.4
0.7
0.535
0.27
0.11
0.015
0.015
-0.005
0.0
-0.02
-0.015
-0.03
-0.02
-0.035
-0.03
-0.05
-0.05
-0.07
-0.08
-0.1
-0.11
-0.14
-0.16
-0.19
-0.205
-0.225
-0.23
-0.23
-0.21
-0.17
-0.11
-0.05
0.005
0.04
0.05
0.055
0.045
0.035
0.025
0.015
0.015
0.01
0.005
0.0
0.0
0.0
0.0
0.0
0.0
0.0
0.0
0.005
0.005
0.01
0.015
0.015
0.015
0.015
0.015
0.02
0.02
0.02
0.02
0.02
0.025
0.02
0.025
0.025
0.025
0.025
0.025
0.03
0.03
0.03
0.03
0.03
0.03
0.035
0.035
0.035
0.04
0.045
0.055
0.05
0.055
0.055
0.07
0.08
0.105
0.16
0.2
0.17
0.135
0.06
0.075
0.07
0.06
0.055
0.055
0.055
0.105
0.015
-0.36
-0.48
0.09
0.72
0.705
0.465
0.2
0.075
0.025
0.0
-0.005
-0.015
-0.02
-0.02
-0.03
-0.035
-0.03
-0.055
-0.065
-0.08
-0.08
-0.11
-0.12
-0.135
-0.155
-0.18
-0.19
-0.21
-0.215
-0.225
-0.215
-0.2
-0.16
-0.105
-0.045
0.015
0.045
0.055
0.045
0.035
0.03
0.02
0.01
0.015
0.005
-0.005
0.0
0.0
-0.005
-0.005
-0.005
-0.005
0.005
0.0
0.01
0.015
0.0
0.005
0.01
0.015
0.015
0.005
0.01
0.01
0.015
0.015
0.015
0.01
0.02
0.015
0.01
0.01
0.015
0.02
0.03
0.025
0.03
0.035
0.04
0.03
0.035
0.04
0.045
0.045
0.065
0.065
0.085
0.15
0.19
0.17
0.145
0.06
0.07
0.07
0.055
0.05
0.045
0.05
0.07
-0.05
-0.465
-0.45
0.17
0.775
0.73
0.43
0.21
0.065
0.0
-0.025
-0.02
-0.04
-0.03
-0.04
-0.045
-0.06
-0.06
-0.075
-0.08
-0.1
-0.11
-0.125
-0.145
-0.16
-0.18
-0.21
-0.23
-0.26
-0.275
-0.29
-0.285
-0.26
-0.21
-0.14
-0.065
-0.01
0.025
0.045
0.05
0.04
0.035
0.03
0.025
0.02
0.02
0.01
0.015
0.01
0.015
0.005
0.0
0.005
0.0
0.0
0.015
0.005
0.015
0.015
0.035
0.015
0.01
0.03
0.01
0.02
0.025
0.01
0.005
0.005
0.0
0.005
-0.01
0.0
0.0
0.0
0.0
-0.005
0.0
0.0
0.005
-0.01
-0.005
-0.02
0.0
-0.01
0.0
-0.025
0.025
0.025
0.055
0.095
0.155
0.11
0.07
-0.005
0.005
0.005
0.0
-0.03
-0.01
-0.025
0.025
-0.21
-0.435
-0.04
0.23
0.76
0.53
0.255
0.1
-0.03
-0.05
-0.06
-0.06
-0.08
-0.085
-0.11
-0.095
-0.1
-0.095
-0.13
-0.11
-0.13
-0.14
-0.15
-0.155
-0.175
-0.16
-0.215
-0.2
-0.225
-0.22
-0.215
-0.205
-0.175
-0.115
-0.07
-0.05
-0.02
-0.015
-0.035
-0.025
-0.04
-0.07
-0.055
-0.075
-0.08
-0.1
-0.085
-0.095
-0.105
-0.095
-0.1
-0.1
-0.1
-0.09
-0.095
-0.09
-0.09
-0.085
-0.085
-0.08
-0.085
-0.08
-0.07
-0.075
-0.07
-0.07
-0.06
-0.07
-0.055
-0.05
-0.04
-0.015
0.0
0.045
0.095
0.13
0.085
0.015
-0.015
-0.005
-0.02
-0.025
-0.03
-0.02
-0.01
-0.01
-0.26
-0.18
0.28
0.475
0.615
0.465
0.2
0.05
-0.015
-0.025
-0.04
-0.045
-0.05
-0.05
-0.05
-0.045
-0.05
-0.05
-0.06
-0.05
-0.065
-0.07
-0.085
-0.095
-0.11
-0.125
-0.135
-0.145
-0.15
-0.15
-0.14
-0.11
-0.065
-0.015
0.025
0.065
0.08
0.085
0.075
0.065
0.055
0.05
0.045
0.045
0.04
0.035
0.03
0.03
0.03
0.025
0.025
0.025
0.025
0.025
0.03
0.03
0.03
0.025
0.025
0.03
0.035
0.03
0.03
0.025
0.03
0.02
0.05
0.06
0.095
0.14
0.165
0.145
0.115
0.03
0.035
0.035
0.03
0.01
0.02
0.01
0.095
-0.025
-0.365
-0.225
0.18
0.755
0.635
0.395
0.155
0.03
0.015
-0.005
-0.01
-0.025
-0.025
-0.04
-0.03
-0.045
-0.04
-0.055
-0.055
-0.075
-0.075
-0.095
-0.11
-0.14
-0.16
-0.19
-0.205
-0.225
-0.23
-0.235
-0.215
-0.18
-0.12
-0.065
0.0
0.035
0.045
0.045
0.045
0.035
0.015
0.015
0.005
0.0
-0.01
-0.005
0.0
-0.005
-0.01
-0.015
-0.005
0.0
0.0
0.0
0.0
0.005
0.0
0.005
0.005
0.01
0.01
0.0
0.03
0.015
0.025
0.055
0.1
0.14
0.17
0.1
0.015
0.01
0.025
0.0
0.0
0.01
0.015
0.015
0.015
-0.36
-0.56
0.02
0.51
0.77
0.49
0.205
0.07
-0.03
-0.025
-0.045
-0.05
-0.07
-0.065
-0.06
-0.08
-0.08
-0.105
-0.105
-0.1
-0.125
-0.135
-0.135
-0.16
-0.17
-0.18
-0.195
-0.2
-0.205
-0.2
-0.205
-0.165
-0.14
-0.09
-0.03
0.005
0.025
0.025
0.015
0.01
0.0
0.01
0.005
0.005
-0.005
-0.005
0.0
-0.005
0.0
0.005
-0.015
0.0
0.0
0.0
0.0
0.005
0.0
0.005
0.0
0.01
0.005
0.015
0.01
0.035
0.06
0.075
0.145
0.19
0.135
0.095
0.015
0.035
0.0
0.005
-0.01
0.0
-0.02
0.045
-0.09
-0.25
0.06
0.18
0.62
0.515
0.29
0.135
0.0
-0.025
-0.04
-0.05
-0.06
-0.055
-0.06
-0.05
-0.065
-0.065
-0.085
-0.075
-0.095
-0.08
-0.095
-0.105
-0.125
-0.13
-0.145
-0.15
-0.155
-0.145
-0.15
-0.125
-0.095
-0.045
-0.01
0.02
0.045
0.05
0.04
0.035
0.015
0.02
0.01
0.0
0.01
0.01
0.005
0.0
0.0
0.005
0.005
0.005
0.0
0.0
0.0
0.005
0.005
0.01
0.0
0.005
0.01
0.015
0.01
0.05
0.06
0.11
0.16
0.195
0.145
0.075
0.025
0.03
0.005
0.01
0.0
0.0
-0.005
0.1
-0.125
-0.185
0.265
0.255
0.55
0.49
0.255
0.095
0.005
0.0
-0.02
-0.015
-0.03
-0.03
-0.035
-0.035
-0.04
-0.035
-0.05
-0.05
-0.055
-0.06
-0.075
-0.075
-0.085
-0.095
-0.11
-0.115
-0.115
-0.105
-0.105
-0.075
-0.035
0.005
0.045
0.075
0.075
0.07
0.055
0.05
0.04
0.035
0.025
0.03
0.02
0.03
0.025
0.03
0.02
0.03
0.025
0.03
0.035
0.035
0.03
0.04
0.035
0.04
0.04
0.045
0.045
0.05
0.045
0.09
0.09
0.125
0.19
0.215
0.16
0.115
0.06
0.075
0.055
0.055
0.04
0.05
0.03
0.135
-0.065
-0.295
0.1
0.26
0.745
0.6
0.325
0.16
0.05
0.045
0.01
0.01
0.0
0.005
-0.01
-0.005
-0.015
-0.01
-0.025
-0.03
-0.035
-0.045
-0.06
-0.065
-0.085
-0.105
-0.14
-0.12
-0.14
-0.145
-0.145
-0.12
-0.11
-0.055
-0.025
0.045
0.07
0.065
0.07
0.06
0.045
0.04
0.05
0.035
0.035
0.03
0.04
0.01
0.03
0.025
0.025
0.03
0.025
0.03
0.025
0.03
0.03
0.03
0.03
0.035
0.025
0.035
0.035
0.035
0.035
0.04
0.04
0.065
0.06
0.1
0.15
0.19
0.16
0.12
0.055
0.065
0.05
0.045
0.02
0.04
0.035
0.1
-0.04
-0.385
-0.285
0.2
0.84
0.705
0.435
0.195
0.065
0.025
0.0
0.0
-0.02
-0.01
-0.03
-0.015
-0.04
-0.03
-0.04
-0.05
-0.06
-0.07
-0.085
-0.095
-0.11
-0.12
-0.14
-0.15
-0.165
-0.16
-0.16
-0.15
-0.125
-0.09
-0.045
0.0
0.035
0.05
0.06
0.06
0.035
0.045
0.04
0.035
0.035
0.025
0.02
0.04
0.025
0.03
0.025
0.025
0.025
0.025
0.025
0.03
0.03
0.035
0.05
0.045
0.05
0.05
0.05
0.05
0.06
0.08
0.105
0.135
0.195
0.2
0.15
0.07
0.06
0.065
0.055
0.05
0.045
0.045
0.04
0.11
-0.24
-0.43
0.14
0.57
0.775
0.55
0.25
0.105
0.035
0.02
0.005
0.0
-0.01
-0.015
-0.02
-0.02
-0.025
-0.025
-0.035
-0.035
-0.055
-0.065
-0.08
-0.11
-0.11
-0.125
-0.145
-0.155
-0.17
-0.165
-0.155
-0.135
-0.115
-0.065
-0.015
0.03
0.055
0.06
0.06
0.055
0.05
0.035
0.04
0.035
0.035
0.035
0.035
0.03
0.03
0.02
0.03
0.03
0.035
0.035
0.035
0.03
0.035
0.045
0.035
0.04
0.045
0.035
0.04
0.04
0.04
0.04
0.05
0.045
0.045
0.045
0.08
0.075
0.11
0.175
0.2
0.145
0.1
0.055
0.07
0.055
0.055
0.045
0.035
0.04
0.105
0.0
-0.365
-0.38
0.16
0.795
0.715
0.43
0.2
0.065
0.025
0.0
0.0
-0.02
-0.03
-0.025
-0.025
-0.045
-0.025
-0.05
-0.06
-0.065
-0.065
-0.075
-0.09
-0.1
-0.11
-0.12
-0.135
-0.15
-0.15
-0.14
-0.135
-0.12
-0.085
-0.04
0.0
0.025
0.05
0.055
0.045
0.04
0.03
0.025
0.015
0.005
0.0
0.0
0.0
0.0
0.005
-0.005
-0.005
0.01
0.005
0.01
0.005
0.01
0.01
0.0
0.02
0.015
0.0
0.0
0.02
0.005
0.0
0.005
0.005
0.0
0.01
-0.005
0.005
0.0
-0.005
0.0
0.0
0.0
0.0
0.0
0.0
-0.01
-0.02
-0.025
-0.015
0.0
-0.025
-0.01
-0.025
-0.02
-0.015
-0.015
-0.01
-0.01
-0.015
-0.005
0.01
0.04
0.04
0.075
0.1
0.06
-0.005
0.01
0.005
0.015
-0.005
0.01
-0.005
0.015
-0.005
0.065
-0.175
-0.275
0.15
0.285
0.745
0.52
0.27
0.12
0.005
0.0
-0.03
-0.025
-0.04
-0.035
-0.05
-0.035
-0.045
-0.035
-0.055
-0.05
-0.07
-0.06
-0.08
-0.08
-0.105
-0.11
-0.125
-0.13
-0.145
-0.135
-0.135
-0.125
-0.1
-0.06
-0.015
0.02
0.055
0.06
0.06
0.05
0.045
0.035
0.025
0.02
0.015
0.01
0.01
0.005
0.005
0.005
0.01
0.005
0.01
0.01
0.01
0.015
0.015
0.015
0.015
0.015
0.015
0.02
0.02
0.02
0.02
0.025
0.025
0.025
0.02
0.015
0.02
0.02
0.025
0.015
0.015
0.02
0.015
0.01
0.005
0.01
0.01
0.005
0.005
0.005
0.01
0.005
0.005
0.005
0.005
0.005
0.005
0.005
0.0
0.01
0.01
0.01
0.01
0.01
0.01
0.01
0.01
0.005
0.01
0.01
0.01
0.01
0.01
0.01
0.01
0.01
0.015
0.015
0.015
0.02
0.02
0.02
0.065
0.075
0.09
0.095
0.09
0.03
0.025
0.035
0.045
0.03
0.03
0.03
0.035
0.035
0.1
0.04
-0.28
-0.31
0.175
0.68
0.63
0.445
0.195
0.06
0.02
0.005
0.0
-0.01
-0.015
-0.02
-0.02
-0.03
-0.03
-0.04
-0.045
-0.06
-0.065
-0.085
-0.09
-0.11
-0.125
-0.145
-0.16
-0.175
-0.18
-0.185
-0.175
-0.17
-0.135
-0.1
-0.055
-0.01
0.02
0.03
0.03
0.025
0.02
0.01
0.005
0.0
-0.005
-0.01
-0.01
-0.01
-0.01
-0.02
-0.015
-0.015
-0.01
-0.01
-0.005
-0.005
0.0
0.0
0.0
0.0
0.005
0.0
0.0
0.0
0.0
0.0
0.005
0.0
0.0
0.005
0.0
0.005
0.005
0.005
0.005
0.005
0.005
0.005
0.005
0.005
0.0
0.0
0.005
0.0
0.0
0.0
0.005
0.005
0.005
0.005
0.005
0.005
0.005
0.0
0.005
0.005
0.01
0.005
0.005
0.0
0.005
0.005
0.01
0.01
0.015
0.01
0.015
0.015
0.02
0.01
0.025
0.02
0.025
0.03
0.065
0.07
0.095
0.075
0.085
0.02
0.03
0.03
0.055
0.03
0.045
0.03
0.045
0.025
0.12
-0.145
-0.455
-0.05
0.305
0.855
0.655
0.335
0.15
0.035
0.03
0.0
0.005
-0.015
-0.005
-0.025
-0.015
-0.035
-0.03
-0.05
-0.05
-0.07
-0.075
-0.1
-0.105
-0.13
-0.15
-0.17
-0.18
-0.2
-0.195
-0.2
-0.19
-0.17
-0.13
-0.085
-0.035
0.005
0.03
0.035
0.04
0.035
0.02
0.01
0.01
0.0
0.0
0.0
0.0
-0.005
-0.005
-0.01
-0.005
-0.005
0.0
-0.005
0.0
0.0
0.0
0.0
0.0
0.015
0.01
0.005
0.005
0.01
0.015
0.005
0.0
0.01
0.005
0.01
0.0
0.0
0.0
0.0
0.005
0.0
0.01
0.0
0.005
0.0
0.0
0.005
0.005
0.005
0.0
0.0
0.0
0.0
0.005
0.0
0.01
0.005
0.0
0.0
0.015
0.005
0.015
0.0
0.01
0.0
0.02
0.01
0.04
0.055
0.08
0.125
0.18
0.12
0.075
0.005
0.055
0.04
0.025
0.01
0.02
0.0
0.04
-0.215
-0.385
0.06
0.325
0.81
0.57
0.275
0.115
-0.005
-0.005
-0.05
-0.045
-0.06
-0.05
-0.07
-0.065
-0.085
-0.08
-0.095
-0.095
-0.105
-0.105
-0.12
-0.12
-0.14
-0.14
-0.16
-0.18
-0.195
-0.19
-0.195
-0.175
-0.155
-0.105
-0.055
0.0
0.035
0.05
0.05
0.05
0.04
0.025
0.025
0.02
0.015
0.015
0.01
0.015
0.005
0.005
0.005
0.0
0.005
0.0
-0.005
0.0
0.0
0.005
0.0
0.005
0.0
0.0
0.0
0.0
0.0
0.0
0.0
0.0
0.0
0.0
0.0
0.0
0.0
0.0
0.0
0.0
-0.005
-0.005
0.0
0.0
0.0
0.0
-0.005
0.0
0.0
0.0
0.0
0.005
0.0
0.005
0.0
0.005
0.005
0.005
0.005
0.04
0.06
0.08
0.14
0.18
0.12
0.055
0.025
0.045
0.025
0.025
0.015
0.025
0.02
0.055
-0.245
-0.33
0.245
0.505
0.675
0.51
0.225
0.08
0.0
-0.005
-0.025
-0.025
-0.04
-0.035
-0.045
-0.045
-0.045
-0.05
-0.06
-0.065
-0.075
-0.08
-0.1
-0.11
-0.135
-0.145
-0.17
-0.18
-0.19
-0.2
-0.195
-0.175
-0.14
-0.1
-0.045
0.0
0.03
0.04
0.035
0.035
0.025
0.02
0.01
0.005
0.0
0.0
-0.005
-0.01
-0.01
-0.01
-0.01
-0.01
-0.01
-0.005
-0.005
-0.005
0.0
0.0
0.0
0.0
0.0
0.0
0.0
0.0
0.0
0.0
0.0
0.0
0.0
0.0
0.0
0.0
-0.005
0.0
-0.005
0.0
-0.005
-0.005
-0.005
-0.005
-0.01
-0.005
-0.01
-0.005
-0.005
-0.005
0.0
0.0
0.0
0.0
0.0
0.0
0.0
0.0
0.0
0.0
0.0
0.005
0.005
0.01
0.005
0.015
0.035
0.065
0.09
0.15
0.145
0.12
0.035
0.03
0.04
0.03
0.015
0.025
0.02
0.07
-0.04
-0.39
-0.32
0.225
0.795
0.725
0.46
0.19
0.055
0.015
-0.005
-0.015
-0.025
-0.03
-0.04
-0.04
-0.045
-0.045
-0.065
-0.065
-0.08
-0.085
-0.105
-0.115
-0.14
-0.155
-0.18
-0.195
-0.215
-0.225
-0.225
-0.22
-0.205
-0.17
-0.125
-0.065
-0.02
0.01
0.025
0.025
0.02
0.015
0.005
0.0
0.0
0.0
0.0
-0.005
-0.01
-0.005
-0.01
-0.005
-0.005
0.0
0.0
0.0
0.0
0.005
0.005
0.01
0.01
0.01
0.015
0.01
0.005
0.01
0.015
0.015
0.015
0.015
0.015
0.02
0.015
0.015
0.01
0.015
0.01
0.015
0.015
0.015
0.01
0.015
0.01
0.005
0.005
0.005
0.0
0.005
0.0
0.005
0.0
0.01
0.005
0.01
0.005
0.005
0.005
0.01
0.0
0.01
0.005
0.03
0.025
0.06
0.115
0.16
0.11
0.085
0.015
0.035
0.02
0.025
0.01
0.005
-0.01
0.035
-0.26
-0.52
-0.04
0.38
0.94
0.68
0.3
0.12
0.0
-0.025
-0.055
-0.05
-0.065
-0.065
-0.08
-0.075
-0.09
-0.085
-0.1
-0.105
-0.13
-0.125
-0.14
-0.155
-0.175
-0.18
-0.2
-0.21
-0.215
-0.215
-0.22
-0.2
-0.175
-0.13
-0.095
-0.045
-0.01
0.01
0.015
0.01
0.005
-0.005
-0.015
-0.015
-0.025
-0.025
-0.035
-0.045
-0.05
-0.04
-0.055
-0.05
-0.04
-0.05
-0.045
-0.045
-0.04
-0.045
-0.04
-0.035
-0.05
-0.04
-0.04
-0.05
-0.035
-0.035
-0.045
-0.045
-0.04
-0.05
-0.055
-0.04
-0.035
-0.05
-0.04
-0.055
-0.045
-0.045
-0.04
-0.045
-0.045
-0.035
-0.05
-0.035
-0.045
-0.04
-0.035
-0.025
-0.04
0.0
0.0
0.04
0.1
0.135
0.09
0.04
-0.02
0.01
-0.025
-0.025
-0.03
-0.03
-0.035
-0.055
-0.36
-0.36
0.16
0.465
0.715
0.47
0.205
0.06
-0.035
-0.05
-0.065
-0.07
-0.075
-0.075
-0.08
-0.075
-0.09
-0.09
-0.09
-0.095
-0.11
-0.115
-0.125
-0.135
-0.145
-0.155
-0.175
-0.185
-0.2
-0.2
-0.195
-0.18
-0.15
-0.105
-0.055
-0.01
0.0
0.02
0.02
0.015
0.0
0.0
-0.005
-0.01
-0.01
-0.01
-0.02
-0.015
-0.015
-0.02
-0.025
-0.025
-0.02
-0.02
-0.025
-0.02
-0.025
-0.02
-0.025
-0.02
-0.025
-0.02
-0.015
-0.025
-0.02
-0.02
-0.015
-0.015
-0.015
-0.02
-0.02
-0.025
-0.02
-0.015
-0.015
-0.02
-0.01
-0.02
-0.01
-0.015
-0.01
-0.015
-0.005
-0.01
-0.005
-0.01
0.02
0.025
0.055
0.1
0.15
0.12
0.09
0.01
0.025
0.01
0.01
-0.01
0.0
-0.025
0.06
-0.175
-0.405
0.04
0.28
0.775
0.575
0.3
0.1
-0.02
-0.025
-0.055
-0.055
-0.075
-0.065
-0.075
-0.07
-0.085
-0.075
-0.095
-0.095
-0.115
-0.12
-0.14
-0.14
-0.165
-0.18
-0.205
-0.215
-0.235
-0.24
-0.24
-0.225
-0.205
-0.155
-0.105
-0.05
-0.015
0.0
0.0
0.0
-0.01
-0.015
-0.025
-0.03
-0.035
-0.035
-0.04
-0.04
-0.04
-0.04
-0.04
-0.04
-0.035
-0.03
-0.025
-0.025
-0.025
-0.015
-0.02
-0.015
-0.015
-0.015
-0.015
-0.01
-0.015
-0.015
-0.01
-0.01
-0.005
-0.005
0.0
-0.005
-0.005
-0.005
-0.005
-0.005
-0.005
-0.01
-0.005
-0.005
-0.005
-0.005
-0.005
-0.005
0.0
0.0
0.0
0.005
0.005
0.005
0.005
0.015
0.04
0.065
0.1
0.15
0.155
0.115
0.035
0.03
0.045
0.03
0.02
0.025
0.025
0.07
-0.045
-0.415
-0.37
0.245
0.815
0.755
0.485
0.19
0.07
0.015
0.0
-0.01
-0.02
-0.025
-0.03
-0.035
-0.04
-0.045
-0.055
-0.06
-0.07
-0.085
-0.095
-0.105
-0.125
-0.145
-0.16
-0.18
-0.195
-0.2
-0.2
-0.2
-0.185
-0.15
-0.1
-0.055
-0.005
0.02
0.035
0.035
0.03
0.025
0.015
0.005
0.005
0.0
0.0
-0.005
0.0
-0.005
-0.005
-0.005
0.0
0.0
0.0
0.005
0.005
0.01
0.015
0.015
0.02
0.02
0.025
0.025
0.03
0.025
0.03
0.03
0.03
0.03
0.03
0.03
0.035
0.035
0.04
0.035
0.04
0.045
0.045
0.045
0.04
0.05
0.045
0.05
0.045
0.05
0.045
0.05
0.05
0.055
0.045
0.065
0.065
0.095
0.135
0.18
0.15
0.12
0.035
0.05
0.04
0.04
0.02
0.02
0.005
0.065
-0.17
-0.5
-0.205
0.295
0.925
0.715
0.37
0.135
0.005
-0.02
-0.045
-0.055
-0.07
-0.07
-0.08
-0.08
-0.09
-0.095
-0.11
-0.115
-0.135
-0.145
-0.165
-0.17
-0.19
-0.205
-0.225
-0.235
-0.25
-0.255
-0.26
-0.235
-0.215
-0.165
-0.125
-0.07
-0.03
0.0
0.01
0.015
0.0
0.0
-0.005
-0.01
-0.015
-0.02
-0.025
-0.015
-0.025
-0.03
-0.03
-0.03
-0.02
-0.02
-0.015
-0.02
-0.025
-0.015
-0.015
-0.025
-0.02
-0.025
-0.02
-0.025
-0.025
-0.025
-0.02
-0.025
-0.025
-0.02
-0.03
-0.03
-0.025
-0.03
-0.03
-0.025
-0.03
-0.025
-0.015
-0.025
-0.025
-0.03
-0.015
-0.02
-0.01
-0.015
0.0
0.0
0.04
0.075
0.135
0.11
0.085
0.005
0.005
0.0
0.0
-0.015
-0.01
-0.025
0.02
-0.175
-0.505
-0.24
0.26
0.875
0.68
0.365
0.155
0.01
-0.035
-0.055
-0.06
-0.07
-0.065
-0.085
-0.065
-0.09
-0.085
-0.095
-0.095
-0.105
-0.11
-0.13
-0.14
-0.145
-0.155
-0.17
-0.17
-0.185
-0.19
-0.18
-0.175
-0.16
-0.105
-0.07
-0.025
0.0
0.015
0.025
0.005
0.005
0.0
-0.015
-0.015
-0.01
-0.03
-0.035
-0.02
-0.03
-0.045
-0.03
-0.035
-0.045
-0.04
-0.035
-0.04
-0.03
-0.03
-0.03
-0.03
-0.025
-0.02
-0.025
-0.025
-0.02
-0.02
-0.02
-0.02
-0.015
-0.02
-0.01
-0.015
-0.01
-0.015
-0.005
-0.015
0.0
-0.015
0.025
0.03
0.065
0.12
0.16
0.12
0.08
0.005
0.025
0.0
0.005
-0.01
0.0
-0.025
0.015
-0.25
-0.37
0.165
0.39
0.83
0.595
0.275
0.1
-0.02
-0.03
-0.055
-0.05
-0.07
-0.06
-0.08
-0.065
-0.075
-0.07
-0.085
-0.08
-0.1
-0.095
-0.12
-0.12
-0.135
-0.145
-0.165
-0.17
-0.18
-0.175
-0.175
-0.155
-0.13
-0.08
-0.04
0.0
0.025
0.035
0.025
0.02
0.01
0.005
0.0
-0.005
-0.005
-0.01
-0.01
-0.015
-0.015
-0.015
-0.015
-0.015
-0.015
-0.01
-0.01
-0.005
-0.005
-0.005
-0.005
-0.005
0.0
-0.005
0.0
0.0
0.0
0.0
0.0
0.0
0.0
0.0
0.0
-0.005
0.0
-0.005
0.0
-0.005
0.0
-0.005
0.0
0.0
0.03
0.035
0.065
0.115
0.15
0.115
0.085
0.01
0.03
0.02
0.02
0.0
0.01
-0.005
0.065
-0.17
-0.42
0.01
0.365
0.89
0.665
0.335
0.13
0.01
0.005
-0.02
-0.02
-0.045
-0.035
-0.05
-0.045
-0.055
-0.05
-0.07
-0.065
-0.085
-0.09
-0.105
-0.115
-0.135
-0.145
-0.165
-0.18
-0.195
-0.195
-0.19
-0.175
-0.16
-0.11
-0.065
-0.02
0.01
0.025
0.025
0.02
0.015
0.005
0.0
0.0
-0.005
-0.01
-0.015
-0.02
-0.02
-0.025
-0.02
-0.02
-0.02
-0.02
-0.015
-0.015
-0.01
-0.01
-0.005
0.0
0.0
0.0
0.0
-0.005
0.0
-0.005
-0.005
0.0
0.0
0.0
0.0
-0.005
0.0
0.0
0.0
-0.005
0.0
0.0
0.0
0.0
0.005
0.0
0.005
0.0
0.01
0.0
0.035
0.04
0.065
0.125
0.155
0.1
0.05
0.005
0.035
0.01
0.02
0.0
0.01
-0.005
0.035
-0.29
-0.515
0.085
0.465
0.89
0.64
0.265
0.1
0.0
-0.005
-0.035
-0.035
-0.05
-0.04
-0.055
-0.05
-0.06
-0.055
-0.07
-0.075
-0.095
-0.095
-0.115
-0.125
-0.145
-0.16
-0.18
-0.19
-0.2
-0.205
-0.2
-0.185
-0.16
-0.12
-0.075
-0.025
0.0
0.015
0.02
0.015
0.005
0.0
-0.005
-0.01
-0.01
-0.015
-0.02
-0.025
-0.025
-0.03
-0.03
-0.025
-0.025
-0.02
-0.025
-0.025
-0.025
-0.025
-0.02
-0.02
-0.02
-0.015
-0.015
-0.015
-0.015
-0.01
-0.01
-0.015
-0.015
-0.015
-0.015
-0.02
-0.02
-0.015
-0.015
-0.01
-0.015
-0.01
-0.015
-0.01
-0.015
-0.01
-0.015
-0.005
-0.015
-0.005
-0.01
0.02
0.025
0.05
0.11
0.145
0.1
0.07
0.0
0.02
0.01
0.015
0.0
0.0
-0.01
0.05
-0.215
-0.53
-0.16
0.325
0.94
0.7
0.32
0.105
-0.01
-0.03
-0.055
-0.06
-0.075
-0.07
-0.08
-0.075
-0.085
-0.09
-0.1
-0.105
-0.125
-0.125
-0.15
-0.16
-0.18
-0.19
-0.215
-0.22
-0.235
-0.235
-0.24
-0.22
-0.2
-0.155
-0.115
-0.065
-0.025
-0.005
0.0
0.0
-0.005
-0.01
-0.02
-0.025
-0.03
-0.03
-0.035
-0.035
-0.04
-0.04
-0.04
-0.035
-0.035
-0.03
-0.03
-0.025
-0.02
-0.015
-0.01
-0.005
0.0
0.0
0.0
0.0
0.0
0.0
0.0
0.005
0.0
0.0
0.0
0.0
0.005
0.0
0.005
0.0
0.005
0.0
0.01
0.005
0.01
0.0
0.015
0.01
0.02
0.015
0.045
0.045
0.065
0.135
0.17
0.115
0.075
0.025
0.045
0.025
0.03
0.01
0.02
0.0
0.05
-0.235
-0.57
-0.1
0.395
1.0
0.72
0.31
0.12
0.0
-0.015
-0.04
-0.04
-0.055
-0.05
-0.065
-0.06
-0.08
-0.08
-0.095
-0.1
-0.12
-0.12
-0.14
-0.14
-0.175
-0.18
-0.195
-0.2
-0.21
-0.205
-0.21
-0.19
-0.17
-0.13
-0.09
-0.04
0.0
0.005
0.01
0.01
0.01
-0.005
-0.015
-0.015
-0.01
-0.02
-0.03
-0.03
-0.03
-0.03
-0.03
-0.025
-0.025
-0.015
-0.02
-0.02
-0.01
-0.015
-0.015
-0.01
-0.01
-0.015
0.0
-0.005
0.0
0.0
0.0
0.0
0.0
0.0
0.0
-0.005
0.0
0.0
0.005
0.0
0.005
0.0
0.0
0.0
0.01
0.025
0.05
0.095
0.15
0.145
0.105
0.03
0.025
0.025
0.015
0.01
0.01
0.005
0.04
-0.09
-0.485
-0.43
0.2
0.795
0.755
0.44
0.19
0.05
-0.025
-0.04
-0.045
-0.075
-0.06
-0.075
-0.08
-0.08
-0.085
-0.095
-0.105
-0.12
-0.13
-0.14
-0.145
-0.165
-0.175
-0.19
-0.205
-0.215
-0.225
-0.22
-0.23
-0.195
-0.15
-0.11
-0.055
-0.02
0.0
0.01
0.015
0.0
-0.005
-0.015
-0.02
-0.02
-0.025
-0.03
-0.03
-0.03
-0.03
-0.04
-0.035
-0.04
-0.035
-0.03
-0.03
-0.03
-0.03
-0.025
-0.025
-0.03
-0.02
-0.025
-0.025
-0.025
-0.025
-0.02
-0.025
-0.02
-0.025
-0.015
-0.02
-0.01
-0.025
-0.01
-0.02
-0.005
-0.02
-0.005
-0.01
0.015
0.025
0.05
0.11
0.155
0.1
0.07
0.005
0.03
0.01
0.015
-0.005
0.005
-0.01
0.06
-0.18
-0.44
-0.01
0.29
0.82
0.605
0.32
0.115
0.0
-0.015
-0.04
-0.04
-0.06
-0.055
-0.07
-0.055
-0.07
-0.06
-0.08
-0.075
-0.095
-0.095
-0.115
-0.125
-0.145
-0.155
-0.18
-0.185
-0.205
-0.205
-0.205
-0.18
-0.16
-0.105
-0.055
-0.005
0.02
0.03
0.035
0.025
0.015
0.0
-0.005
-0.005
-0.01
-0.01
-0.015
-0.02
-0.02
-0.02
-0.02
-0.02
-0.015
-0.015
-0.01
-0.01
-0.005
-0.005
-0.005
-0.005
-0.005
-0.005
0.0
0.0
0.0
0.0
0.0
0.0
0.0
0.0
0.0
0.0
0.0
0.0
0.0
0.0
0.005
0.005
0.005
0.005
0.01
0.01
0.01
0.015
0.015
0.025
0.045
0.07
0.11
0.16
0.16
0.125
0.045
0.04
0.055
0.035
0.03
0.025
0.03
0.06
0.0
-0.35
-0.375
0.24
0.73
0.72
0.48
0.195
0.06
0.005
-0.005
-0.02
-0.02
-0.02
-0.035
-0.035
-0.04
-0.045
-0.05
-0.055
-0.065
-0.08
-0.09
-0.105
-0.12
-0.135
-0.155
-0.17
-0.185
-0.195
-0.19
-0.18
-0.16
-0.12
-0.08
-0.025
0.01
0.035
0.045
0.04
0.03
0.02
0.01
0.005
0.0
0.0
0.0
0.0
0.0
0.0
0.0
0.0
0.0
0.0
0.0
0.0
0.01
0.01
0.01
0.01
0.01
0.01
0.015
0.01
0.01
0.01
0.01
0.01
0.01
0.005
0.01
0.01
0.015
0.015
0.01
0.015
0.01
0.02
0.015
0.015
0.015
0.02
0.01
0.02
0.01
0.015
0.01
0.02
0.02
0.055
0.065
0.085
0.155
0.175
0.12
0.065
0.03
0.055
0.035
0.035
0.02
0.035
0.025
0.035
-0.335
-0.52
0.175
0.585
0.87
0.61
0.255
0.105
0.01
0.005
-0.015
-0.015
-0.035
-0.035
-0.04
-0.035
-0.045
-0.045
-0.06
-0.07
-0.08
-0.095
-0.11
-0.12
-0.14
-0.155
-0.175
-0.185
-0.195
-0.2
-0.19
-0.175
-0.145
-0.1
-0.05
-0.005
0.025
0.04
0.04
0.035
0.03
0.02
0.015
0.005
0.005
0.0
0.0
0.0
0.0
0.0
0.0
0.0
0.0
0.0
0.005
0.01
0.01
0.01
0.015
0.015
0.015
0.02
0.015
0.015
0.015
0.01
0.015
0.015
0.015
0.015
0.015
0.02
0.02
0.03
0.02
0.025
0.02
0.02
0.015
0.02
0.015
0.025
0.02
0.03
0.025
0.055
0.06
0.085
0.145
0.18
0.13
0.09
0.03
0.06
0.045
0.045
0.03
0.045
0.025
0.055
-0.27
-0.555
-0.025
0.45
1.015
0.72
0.32
0.14
0.02
0.01
-0.015
-0.015
-0.035
-0.035
-0.05
-0.05
-0.065
-0.07
-0.085
-0.085
-0.1
-0.11
-0.12
-0.13
-0.15
-0.155
-0.18
-0.185
-0.195
-0.185
-0.185
-0.17
-0.145
-0.1
-0.06
-0.01
0.015
0.03
0.04
0.035
0.025
0.015
0.01
0.005
0.005
0.0
0.0
-0.005
-0.005
-0.01
-0.005
-0.005
0.0
0.0
0.0
0.005
0.01
0.005
0.005
0.005
0.01
0.01
0.01
0.01
0.015
0.005
0.01
0.005
0.01
0.01
0.01
0.01
0.01
0.01
0.0
0.01
0.01
0.015
0.01
0.015
0.01
0.025
0.025
0.045
0.055
0.08
0.14
0.18
0.13
0.095
0.03
0.06
0.045
0.045
0.025
0.025
0.01
0.035
-0.265
-0.56
-0.085
0.4
0.935
0.66
0.3
0.14
0.005
-0.01
-0.03
-0.045
-0.065
-0.055
-0.065
-0.07
-0.08
-0.09
-0.105
-0.105
-0.12
-0.125
-0.145
-0.145
-0.17
-0.18
-0.2
-0.215
-0.23
-0.23
-0.235
-0.215
-0.19
-0.14
-0.095
-0.04
0.0
0.015
0.025
0.02
0.01
0.0
0.0
-0.01
-0.005
-0.01
-0.02
-0.02
-0.02
-0.02
-0.02
-0.025
-0.02
-0.02
-0.015
-0.015
-0.015
-0.015
-0.015
-0.01
-0.01
-0.01
-0.01
-0.005
-0.005
-0.005
-0.005
0.0
0.0
0.0
0.0
0.0
0.0
0.0
0.0
0.005
0.0
0.01
0.005
0.01
0.01
0.04
0.055
0.085
0.145
0.17
0.11
0.06
0.02
0.045
0.025
0.025
0.01
0.02
0.005
0.055
-0.285
-0.515
0.1
0.41
0.78
0.565
0.255
0.09
0.0
0.0
-0.03
-0.025
-0.05
-0.04
-0.055
-0.05
-0.06
-0.06
-0.075
-0.07
-0.09
-0.1
-0.115
-0.125
-0.155
-0.17
-0.195
-0.205
-0.22
-0.22
-0.215
-0.195
-0.165
-0.105
-0.055
-0.005
0.02
0.035
0.035
0.03
0.02
0.01
0.0
0.0
-0.005
-0.01
-0.01
-0.015
-0.015
-0.025
-0.02
-0.02
-0.015
-0.015
-0.01
-0.01
-0.005
-0.005
-0.005
-0.005
0.0
0.005
0.0
0.0
0.0
0.0
0.0
0.0
0.0
0.0
0.005
0.0
0.005
0.0
0.005
0.0
0.01
0.0
0.01
0.005
0.015
0.005
0.015
0.01
0.045
0.04
0.08
0.13
0.165
0.125
0.1
0.03
0.045
0.035
0.035
0.015
0.025
0.01
0.09
-0.115
-0.455
-0.185
0.26
0.865
0.685
0.37
0.15
0.025
0.01
-0.015
-0.015
-0.03
-0.025
-0.04
-0.035
-0.045
-0.04
-0.055
-0.055
-0.075
-0.08
-0.1
-0.11
-0.14
-0.15
-0.17
-0.185
-0.2
-0.205
-0.205
-0.19
-0.16
-0.125
-0.07
-0.02
0.015
0.035
0.04
0.04
0.03
0.025
0.015
0.015
0.01
0.01
0.0
0.005
0.0
0.0
0.0
0.0
0.0
0.005
0.005
0.005
0.01
0.015
0.015
0.02
0.015
0.015
0.015
0.02
0.01
0.015
0.015
0.015
0.015
0.015
0.015
0.01
0.015
0.015
0.015
0.015
0.015
0.015
0.015
0.015
0.015
0.02
0.025
0.02
0.03
0.03
0.03
0.03
0.05
0.055
0.085
0.13
0.165
0.135
0.11
0.035
0.05
0.045
0.035
0.03
0.035
0.025
0.08
-0.095
-0.485
-0.38
0.22
0.925
0.765
0.445
0.195
0.06
0.02
-0.01
-0.015
-0.025
-0.025
-0.03
-0.035
-0.045
-0.045
-0.065
-0.065
-0.08
-0.09
-0.105
-0.12
-0.13
-0.14
-0.165
-0.17
-0.18
-0.18
-0.18
-0.165
-0.145
-0.11
-0.065
-0.015
0.02
0.045
0.055
0.055
0.035
0.035
0.03
0.025
0.02
0.005
0.01
0.0
0.015
0.005
0.01
0.0
0.01
0.02
0.02
0.015
0.015
0.025
0.02
0.015
0.02
0.025
0.025
0.02
0.025
0.025
0.02
0.025
0.02
0.025
0.025
0.025
0.025
0.03
0.03
0.03
0.03
0.04
0.025
0.025
0.025
0.03
0.025
0.05
0.065
0.095
0.155
0.17
0.125
0.075
0.025
0.055
0.03
0.035
0.02
0.03
0.01
0.0
-0.35
-0.6
0.0
0.48
0.87
0.58
0.235
0.095
-0.02
-0.035
-0.06
-0.065
-0.08
-0.08
-0.085
-0.09
-0.105
-0.11
-0.125
-0.125
-0.145
-0.145
-0.16
-0.17
-0.195
-0.205
-0.225
-0.24
-0.255
-0.26
-0.255
-0.235
-0.2
-0.155
-0.105
-0.045
-0.015
0.005
0.01
0.0
-0.005
-0.015
-0.025
-0.025
-0.03
-0.03
-0.045
-0.045
-0.04
-0.05
-0.045
-0.05
-0.05
-0.045
-0.045
-0.04
-0.04
-0.04
-0.04
-0.045
-0.035
-0.04
-0.04
-0.04
-0.04
-0.045
-0.045
-0.045
-0.04
-0.04
-0.04
-0.04
-0.04
-0.04
-0.03
-0.04
-0.03
-0.03
-0.03
-0.025
-0.025
-0.01
0.0
0.03
0.075
0.12
0.11
0.075
0.005
0.005
0.015
0.0
0.0
-0.01
0.0
0.04
-0.03
-0.4
-0.46
0.125
0.66
0.65
0.44
0.16
0.03
-0.015
-0.03
-0.035
-0.04
-0.05
-0.05
-0.055
-0.055
-0.055
-0.06
-0.07
-0.08
-0.09
-0.1
-0.125
-0.14
-0.16
-0.18
-0.195
-0.21
-0.215
-0.215
-0.21
-0.185
-0.145
-0.09
-0.03
0.01
0.035
0.045
0.04
0.035
0.02
0.015
0.01
0.0
0.0
0.0
-0.01
-0.01
-0.01
-0.01
-0.01
-0.005
-0.005
0.0
0.0
0.0
0.0
0.005
0.0
0.01
0.005
0.015
0.01
0.01
0.005
0.01
0.005
0.005
0.005
0.01
0.01
0.01
0.01
0.01
0.005
0.015
0.01
0.015
0.005
0.015
0.01
0.015
0.01
0.02
0.02
0.05
0.065
0.11
0.15
0.15
0.11
0.04
0.03
0.05
0.025
0.03
0.02
0.03
0.055
0.03
-0.355
-0.49
0.185
0.665
0.765
0.53
0.215
0.08
0.005
0.0
-0.01
-0.015
-0.03
-0.025
-0.035
-0.035
-0.045
-0.045
-0.055
-0.065
-0.08
-0.085
-0.105
-0.12
-0.14
-0.16
-0.175
-0.19
-0.205
-0.2
-0.2
-0.18
-0.15
-0.1
-0.04
0.0
0.03
0.045
0.04
0.04
0.025
0.015
0.01
0.005
0.0
0.0
0.0
0.0
-0.005
-0.005
0.0
-0.005
-0.005
0.0
0.0
0.0
0.0
0.005
0.005
0.01
0.015
0.015
0.01
0.01
0.005
0.005
0.005
0.01
0.01
0.005
0.005
0.01
0.005
0.01
0.005
0.01
0.01
0.01
0.01
0.01
0.01
0.01
0.01
0.015
0.015
0.02
0.02
0.02
0.035
0.045
0.07
0.13
0.165
0.145
0.12
0.045
0.05
0.055
0.05
0.04
0.04
0.035
0.07
-0.065
-0.49
-0.48
0.195
0.885
0.83
0.51
0.22
0.08
0.015
-0.005
-0.015
-0.03
-0.03
-0.035
-0.04
-0.045
-0.05
-0.06
-0.07
-0.085
-0.095
-0.105
-0.12
-0.13
-0.145
-0.16
-0.175
-0.185
-0.19
-0.19
-0.18
-0.16
-0.115
-0.08
-0.03
0.015
0.04
0.045
0.05
0.04
0.03
0.025
0.015
0.015
0.005
0.005
0.0
0.0
0.0
0.0
0.0
0.0
0.005
0.0
0.0
0.01
0.01
0.01
0.02
0.005
0.01
0.02
0.015
0.015
0.015
0.015
0.015
0.01
0.02
0.02
0.025
0.02
0.02
0.025
0.025
0.03
0.025
0.035
0.035
0.02
0.035
0.025
0.06
0.065
0.085
0.155
0.18
0.14
0.115
0.04
0.06
0.05
0.045
0.03
0.04
0.02
0.065
-0.145
-0.52
-0.29
0.245
0.87
0.65
0.34
0.165
0.03
-0.01
-0.03
-0.03
-0.05
-0.045
-0.06
-0.06
-0.075
-0.075
-0.095
-0.095
-0.11
-0.115
-0.135
-0.145
-0.17
-0.185
-0.21
-0.225
-0.25
-0.255
-0.265
-0.25
-0.22
-0.165
-0.11
-0.04
0.0
0.03
0.035
0.035
0.03
0.025
0.02
0.015
0.015
0.01
0.005
0.005
0.0
0.0
0.0
0.0
0.0
0.0
0.0
0.0
0.01
0.01
0.01
0.005
0.01
0.005
0.015
0.015
0.015
0.015
0.015
0.01
0.015
0.015
0.015
0.01
0.015
0.015
0.015
0.015
0.015
0.01
0.015
0.015
0.02
0.015
0.02
0.015
0.04
0.045
0.08
0.125
0.17
0.14
0.115
0.035
0.045
0.05
0.045
0.025
0.035
0.025
0.1
-0.025
-0.375
-0.305
0.16
0.715
0.625
0.405
0.17
0.04
0.015
-0.005
-0.005
-0.02
-0.02
-0.035
-0.03
-0.04
-0.035
-0.05
-0.055
-0.075
-0.08
-0.1
-0.11
-0.135
-0.15
-0.18
-0.195
-0.215
-0.225
-0.23
-0.22
-0.195
-0.14
-0.085
-0.025
0.015
0.04
0.04
0.04
0.025
0.02
0.01
0.005
0.0
0.0
-0.005
-0.005
-0.01
-0.01
-0.015
-0.015
-0.015
-0.01
-0.01
-0.005
0.0
0.0
0.0
0.0
0.005
0.005
0.005
0.01
0.01
0.01
0.01
0.01
0.01
0.01
0.01
0.015
0.01
0.015
0.01
0.01
0.015
0.015
0.01
0.01
0.01
0.015
0.01
0.01
0.01
0.015
0.015
0.02
0.02
0.02
0.02
0.04
0.045
0.075
0.125
0.17
0.145
0.11
0.035
0.04
0.045
0.04
0.03
0.03
0.025
0.085
-0.02
-0.395
-0.4
0.175
0.755
0.71
0.445
0.18
0.05
0.005
-0.01
-0.015
-0.03
-0.03
-0.04
-0.04
-0.05
-0.05
-0.06
-0.065
-0.075
-0.085
-0.105
-0.115
-0.14
-0.155
-0.175
-0.19
-0.21
-0.215
-0.22
-0.21
-0.185
-0.145
-0.09
-0.035
0.005
0.035
0.045
0.05
0.04
0.03
0.025
0.02
0.015
0.015
0.005
0.005
0.005
0.0
0.005
0.0
0.0
0.005
0.01
0.015
0.02
0.02
0.02
0.025
0.025
0.03
0.03
0.03
0.025
0.03
0.025
0.03
0.025
0.02
0.025
0.02
0.02
0.02
0.02
0.025
0.02
0.02
0.02
0.02
0.02
0.02
0.015
0.02
0.02
0.02
0.025
0.02
0.02
0.02
0.02
0.02
0.025
0.02
0.045
0.055
0.075
0.135
0.17
0.14
0.11
0.04
0.05
0.055
0.045
0.03
0.035
0.025
0.08
-0.07
-0.48
-0.46
0.19
0.91
0.8
0.485
0.215
0.07
0.01
-0.01
-0.015
-0.025
-0.03
-0.04
-0.035
-0.045
-0.05
-0.06
-0.065
-0.075
-0.085
-0.095
-0.11
-0.125
-0.145
-0.155
-0.17
-0.175
-0.18
-0.185
-0.175
-0.16
-0.115
-0.075
-0.02
0.015
0.045
0.05
0.05
0.045
0.035
0.025
0.02
0.015
0.02
0.01
0.0
0.005
0.0
0.0
0.0
0.0
0.0
0.0
-0.005
0.0
0.01
0.0
0.005
0.005
0.0
0.01
0.01
0.005
0.0
0.01
0.01
0.005
0.005
0.01
0.005
0.005
0.0
0.005
0.0
0.01
0.0
0.005
0.0
0.01
0.01
0.015
0.01
0.015
0.005
0.015
0.01
0.045
0.045
0.075
0.14
0.175
0.125
0.09
0.025
0.055
0.03
0.04
0.02
0.03
0.01
0.05
-0.215
-0.555
-0.145
0.335
0.95
0.73
0.365
0.165
0.025
0.0
-0.03
-0.03
-0.055
-0.045
-0.06
-0.055
-0.065
-0.065
-0.08
-0.085
-0.1
-0.105
-0.12
-0.13
-0.16
-0.17
-0.195
-0.205
-0.23
-0.23
-0.23
-0.21
-0.18
-0.135
-0.08
-0.015
0.015
0.04
0.045
0.055
0.045
0.04
0.03
0.025
0.02
0.015
0.01
0.005
0.0
0.0
0.0
0.0
0.0
0.0
0.0
0.0
0.0
0.0
0.0
0.0
0.0
0.005
0.0
0.0
0.005
0.0
0.0
0.0
0.0
0.005
0.005
0.005
0.005
0.01
0.015
0.01
0.01
0.01
0.01
0.015
0.015
0.015
0.02
0.02
0.025
0.02
0.025
0.025
0.045
0.055
0.085
0.13
0.175
0.155
0.135
0.05
0.06
0.06
0.05
0.035
0.04
0.03
0.11
-0.045
-0.4
-0.275
0.22
0.81
0.705
0.44
0.195
0.075
0.045
0.02
0.01
0.0
0.0
-0.01
-0.01
-0.015
-0.02
-0.04
-0.04
-0.055
-0.065
-0.085
-0.1
-0.12
-0.14
-0.16
-0.18
-0.195
-0.205
-0.215
-0.2
-0.175
-0.13
-0.075
-0.02
0.015
0.045
0.05
0.05
0.045
0.035
0.02
0.02
0.02
0.015
0.01
0.005
0.0
0.0
0.0
0.005
0.005
0.0
0.0
0.0
0.01
0.005
0.015
0.015
0.015
0.015
0.02
0.015
0.015
0.01
0.015
0.02
0.02
0.02
0.02
0.02
0.02
0.02
0.025
0.035
0.025
0.03
0.025
0.04
0.03
0.035
0.04
0.04
0.045
0.07
0.09
0.115
0.17
0.195
0.15
0.105
0.055
0.09
0.06
0.065
0.05
0.06
0.055
0.01
-0.38
-0.56
0.105
0.605
0.89
0.61
0.265
0.13
0.02
0.0
-0.01
-0.02
-0.03
-0.035
-0.035
-0.045
-0.06
-0.06
-0.07
-0.08
-0.095
-0.115
-0.135
-0.135
-0.155
-0.18
-0.215
-0.215
-0.235
-0.24
-0.245
-0.23
-0.19
-0.13
-0.07
-0.02
0.01
0.035
0.04
0.035
0.025
0.015
0.005
0.0
0.0
0.0
-0.015
-0.005
-0.015
-0.025
-0.01
-0.01
-0.02
-0.015
-0.02
-0.015
-0.01
-0.01
-0.015
-0.015
-0.01
-0.005
0.0
-0.005
0.0
0.0
0.0
-0.005
0.0
-0.005
0.0
0.0
0.005
0.0
0.035
0.035
0.07
0.13
0.17
0.12
0.095
0.02
0.035
0.02
0.025
0.005
0.02
0.0
0.045
-0.245
-0.52
-0.05
0.345
0.88
0.66
0.325
0.14
0.01
-0.005
-0.03
-0.03
-0.045
-0.045
-0.06
-0.05
-0.065
-0.065
-0.075
-0.075
-0.09
-0.095
-0.115
-0.125
-0.15
-0.17
-0.195
-0.21
-0.23
-0.235
-0.23
-0.21
-0.175
-0.12
-0.06
-0.01
0.015
0.035
0.04
0.04
0.03
0.02
0.015
0.015
0.01
0.005
0.005
0.0
0.0
0.0
0.0
0.0
0.0
0.0
0.005
0.005
0.0
0.005
0.005
0.015
0.01
0.02
0.015
0.025
0.02
0.025
0.025
0.03
0.025
0.03
0.03
0.07
0.085
0.12
0.175
0.185
0.125
0.065
0.03
0.055
0.035
0.04
0.025
0.04
0.03
0.1
-0.26
-0.505
0.18
0.535
0.805
0.57
0.26
0.1
0.015
0.015
-0.005
-0.005
-0.025
-0.02
-0.035
-0.03
-0.045
-0.04
-0.055
-0.06
-0.08
-0.09
-0.11
-0.125
-0.155
-0.17
-0.205
-0.215
-0.235
-0.235
-0.225
-0.2
-0.155
-0.085
-0.02
0.03
0.055
0.07
0.075
0.07
0.05
0.045
0.04
0.04
0.03
0.03
0.025
0.025
0.02
0.015
0.015
0.02
0.025
0.025
0.025
0.03
0.03
0.04
0.04
0.04
0.035
0.045
0.04
0.045
0.04
0.04
0.04
0.045
0.04
0.05
0.045
0.08
0.08
0.115
0.185
0.2
0.14
0.085
0.045
0.07
0.055
0.06
0.04
0.055
0.035
0.11
-0.2
-0.57
-0.105
0.37
0.985
0.71
0.335
0.155
0.04
0.03
0.0
0.0
-0.025
-0.02
-0.035
-0.03
-0.045
-0.04
-0.07
-0.07
-0.085
-0.09
-0.115
-0.12
-0.14
-0.15
-0.175
-0.18
-0.19
-0.19
-0.18
-0.165
-0.135
-0.085
-0.03
0.01
0.045
0.06
0.06
0.05
0.045
0.035
0.025
0.03
0.025
0.015
0.02
0.015
0.015
0.015
0.015
0.02
0.025
0.025
0.03
0.025
0.03
0.035
0.03
0.04
0.04
0.045
0.04
0.05
0.04
0.045
0.04
0.045
0.045
0.045
0.045
0.055
0.06
0.08
0.1
0.15
0.185
0.19
0.14
0.085
0.055
0.08
0.065
0.05
0.05
0.06
0.065
0.045
-0.33
-0.54
0.065
0.58
0.825
0.545
0.255
0.12
0.025
0.02
0.01
-0.005
-0.015
-0.02
-0.025
-0.035
-0.05
-0.055
-0.06
-0.08
-0.08
-0.095
-0.12
-0.12
-0.155
-0.17
-0.2
-0.22
-0.24
-0.245
-0.24
-0.22
-0.175
-0.115
-0.05
0.0
0.03
0.045
0.045
0.035
0.03
0.02
0.02
0.01
0.01
0.01
0.005
0.0
0.0
-0.005
0.0
0.0
0.0
0.0
0.0
0.0
0.0
0.0
0.0
0.0
0.0
0.005
0.0
0.005
0.0
0.005
0.0
0.005
0.0
0.005
0.0
0.005
0.0
0.01
0.005
0.015
0.01
0.02
0.015
0.045
0.06
0.095
0.155
0.18
0.11
0.065
0.03
0.05
0.035
0.04
0.025
0.04
0.015
0.13
-0.11
-0.43
-0.1
0.225
0.785
0.585
0.34
0.15
0.03
0.02
0.0
0.0
-0.015
-0.015
-0.03
-0.02
-0.035
-0.03
-0.05
-0.045
-0.065
-0.07
-0.09
-0.1
-0.125
-0.14
-0.165
-0.175
-0.2
-0.2
-0.205
-0.185
-0.155
-0.1
-0.045
0.01
0.045
0.06
0.065
0.06
0.05
0.04
0.035
0.03
0.025
0.02
0.015
0.01
0.01
0.005
0.005
0.01
0.005
0.01
0.015
0.015
0.015
0.025
0.025
0.025
0.025
0.02
0.025
0.02
0.02
0.015
0.015
0.02
0.02
0.015
0.02
0.02
0.02
0.02
0.02
0.02
0.02
0.02
0.02
0.02
0.025
0.02
0.025
0.02
0.025
0.02
0.03
0.025
0.035
0.025
0.035
0.025
0.035
0.025
0.035
0.03
0.07
0.075
0.11
0.165
0.19
0.13
0.075
0.045
0.075
0.055
0.06
0.04
0.055
0.035
0.15
-0.065
-0.425
-0.23
0.17
0.83
0.64
0.375
0.17
0.045
0.035
0.005
0.01
-0.01
0.0
-0.025
-0.01
-0.03
-0.02
-0.04
-0.04
-0.06
-0.065
-0.085
-0.095
-0.115
-0.13
-0.16
-0.165
-0.19
-0.19
-0.195
-0.185
-0.16
-0.115
-0.065
0.0
0.035
0.065
0.07
0.075
0.06
0.055
0.045
0.04
0.035
0.03
0.025
0.02
0.02
0.015
0.01
0.015
0.015
0.02
0.02
0.015
0.02
0.025
0.035
0.03
0.02
0.03
0.035
0.03
0.025
0.015
0.03
0.025
0.025
0.035
0.025
0.025
0.025
0.025
0.02
0.025
0.02
0.025
0.025
0.02
0.015
0.03
0.02
0.02
0.015
0.02
0.03
0.03
0.035
0.035
0.035
0.03
0.035
0.04
0.03
0.045
0.04
0.045
0.035
0.065
0.075
0.105
0.16
0.19
0.14
0.08
0.045
0.085
0.06
0.06
0.05
0.045
0.05
0.095
-0.11
-0.5
-0.35
0.24
0.905
0.735
0.39
0.205
0.065
0.03
0.0
-0.01
-0.01
-0.01
-0.035
-0.025
-0.045
-0.05
-0.055
-0.06
-0.085
-0.095
-0.11
-0.115
-0.145
-0.145
-0.175
-0.19
-0.215
-0.23
-0.225
-0.235
-0.21
-0.155
-0.1
-0.03
0.02
0.04
0.06
0.065
0.065
0.06
0.04
0.045
0.03
0.03
0.02
0.015
0.01
0.015
0.01
0.01
0.01
0.015
0.005
0.0
0.02
0.01
0.02
0.01
0.01
0.01
0.01
0.02
0.025
0.025
0.01
0.01
0.015
0.005
0.01
0.01
0.005
0.015
0.005
0.005
0.005
0.01
-0.005
0.01
0.005
0.015
0.0
0.015
0.015
0.015
0.015
0.025
0.015
0.01
0.015
0.02
0.035
0.055
0.055
0.125
0.165
0.13
0.1
0.02
0.03
0.03
0.025
0.025
0.025
0.025
0.045
-0.02
-0.405
-0.43
0.165
0.65
0.65
0.41
0.185
0.06
-0.01
-0.025
-0.04
-0.035
-0.05
-0.05
-0.055
-0.065
-0.08
-0.085
-0.095
-0.11
-0.115
-0.135
-0.15
-0.17
-0.19
-0.215
-0.24
-0.26
-0.28
-0.285
-0.28
-0.265
-0.21
-0.145
-0.075
-0.015
0.015
0.03
0.035
0.035
0.025
0.02
0.015
0.01
0.005
0.0
0.0
0.0
0.0
0.0
-0.005
-0.005
-0.01
0.0
0.0
-0.005
0.0
-0.005
-0.005
0.0
0.0
0.0
0.0
0.0
0.0
0.0
-0.005
0.0
0.0
-0.005
-0.005
0.0
-0.005
0.0
-0.005
0.0
-0.005
-0.005
-0.01
-0.005
-0.005
0.0
-0.01
0.0
0.0
0.0
0.0
0.01
0.0
0.025
0.035
0.065
0.11
0.155
0.125
0.1
0.02
0.03
0.03
0.025
0.0
0.02
0.0
0.1
-0.045
-0.37
-0.22
0.125
0.68
0.545
0.35
0.14
0.005
-0.005
-0.03
-0.03
-0.045
-0.04
-0.055
-0.05
-0.065
-0.06
-0.075
-0.08
-0.095
-0.1
-0.125
-0.135
-0.17
-0.185
-0.215
-0.235
-0.26
-0.27
-0.28
-0.265
-0.235
-0.185
-0.125
-0.06
-0.005
0.015
0.025
0.025
0.01
0.0
-0.005
-0.015
-0.02
-0.02
-0.025
-0.025
-0.03
-0.03
-0.035
-0.03
-0.03
-0.03
-0.03
-0.03
-0.03
-0.02
-0.025
-0.025
-0.02
-0.02
-0.02
-0.02
-0.02
-0.015
-0.02
-0.015
-0.015
-0.01
-0.01
-0.01
-0.01
-0.01
-0.01
-0.005
-0.005
-0.005
-0.01
0.0
-0.01
0.0
-0.005
-0.005
-0.01
0.0
-0.005
0.005
0.0
0.01
0.005
0.015
0.01
0.05
0.05
0.085
0.15
0.18
0.125
0.09
0.035
0.065
0.055
0.065
0.035
0.05
0.025
0.105
-0.225
-0.525
0.0
0.365
0.86
0.625
0.29
0.12
0.01
0.01
-0.02
-0.005
-0.04
-0.03
-0.045
-0.04
-0.065
-0.055
-0.075
-0.075
-0.1
-0.11
-0.125
-0.135
-0.165
-0.175
-0.2
-0.21
-0.225
-0.22
-0.225
-0.21
-0.18
-0.125
-0.075
-0.015
0.02
0.04
0.045
0.045
0.025
0.02
0.015
0.005
-0.005
0.0
0.0
0.0
0.0
-0.005
0.0
-0.005
-0.01
0.0
-0.005
0.0
0.005
0.0
0.01
0.01
0.005
0.015
0.01
0.01
0.015
0.01
0.01
0.01
0.005
0.015
0.005
0.02
0.015
0.01
0.005
0.015
0.01
0.015
0.015
0.01
0.025
0.015
0.015
0.015
0.025
0.015
0.025
0.035
0.045
0.075
0.11
0.16
0.165
0.145
0.065
0.045
0.06
0.04
0.035
0.04
0.035
0.045
-0.04
-0.415
-0.395
0.21
0.7
0.775
0.48
0.21
0.08
0.01
-0.015
-0.02
-0.025
-0.03
-0.04
-0.045
-0.045
-0.06
-0.07
-0.075
-0.095
-0.09
-0.115
-0.11
-0.14
-0.165
-0.175
-0.2
-0.22
-0.245
-0.24
-0.24
-0.225
-0.17
-0.13
-0.055
0.0
0.03
0.045
0.05
0.045
0.045
0.015
0.01
0.02
0.0
-0.01
0.005
0.0
-0.015
-0.015
-0.02
-0.02
-0.015
-0.025
-0.015
-0.02
-0.025
-0.005
-0.015
-0.005
-0.015
-0.01
-0.03
-0.01
-0.01
-0.02
-0.015
-0.02
-0.02
-0.015
-0.01
-0.01
-0.005
-0.01
-0.01
-0.005
-0.01
0.0
-0.01
0.03
0.025
0.055
0.115
0.155
0.125
0.09
0.02
0.035
0.02
0.02
0.0
0.01
-0.005
0.05
-0.17
-0.435
-0.045
0.305
0.855
0.645
0.36
0.145
0.015
-0.005
-0.03
-0.035
-0.055
-0.05
-0.065
-0.055
-0.065
-0.06
-0.075
-0.075
-0.095
-0.095
-0.11
-0.12
-0.14
-0.15
-0.18
-0.19
-0.205
-0.205
-0.205
-0.195
-0.165
-0.11
-0.055
0.0
0.03
0.05
0.055
0.05
0.045
0.035
0.03
0.02
0.02
0.015
0.015
0.01
0.01
0.005
0.005
0.005
0.01
0.005
0.005
0.005
0.005
0.01
0.01
0.01
0.02
0.015
0.02
0.015
0.02
0.02
0.025
0.015
0.03
0.015
0.02
0.02
0.025
0.02
0.02
0.02
0.025
0.02
0.025
0.02
0.03
0.03
0.03
0.035
0.065
0.09
0.12
0.165
0.18
0.135
0.07
0.045
0.06
0.045
0.045
0.035
0.045
0.055
0.055
-0.3
-0.445
0.195
0.615
0.69
0.495
0.215
0.08
0.01
0.0
-0.01
-0.01
-0.02
-0.025
-0.03
-0.03
-0.045
-0.045
-0.055
-0.065
-0.08
-0.09
-0.11
-0.125
-0.15
-0.17
-0.195
-0.215
-0.23
-0.235
-0.23
-0.205
-0.165
-0.105
-0.045
0.005
0.035
0.05
0.045
0.04
0.025
0.02
0.005
0.005
0.0
0.0
0.0
0.0
0.0
0.005
0.0
0.0
0.0
0.0
0.01
0.005
0.005
0.0
0.0
0.005
0.01
0.015
0.015
0.02
0.02
0.02
0.02
0.015
0.01
0.02
0.02
0.02
0.025
0.015
0.015
0.01
0.025
0.01
0.025
0.015
0.04
0.05
0.08
0.135
0.18
0.125
0.09
0.025
0.055
0.035
0.035
0.025
0.03
0.015
0.07
-0.2
-0.51
-0.155
0.285
0.915
0.665
0.33
0.155
0.025
0.0
-0.02
-0.03
-0.05
-0.04
-0.045
-0.055
-0.06
-0.06
-0.075
-0.08
-0.1
-0.095
-0.12
-0.125
-0.14
-0.155
-0.175
-0.185
-0.205
-0.2
-0.205
-0.18
-0.16
-0.125
-0.065
-0.01
0.015
0.035
0.03
0.035
0.01
0.015
0.005
0.0
-0.005
-0.01
0.0
-0.01
-0.02
-0.005
-0.01
-0.02
0.0
-0.015
-0.01
-0.02
0.0
0.0
-0.005
-0.005
0.0
-0.005
-0.015
0.01
0.0
-0.025
0.005
0.02
-0.02
-0.015
0.005
0.0
-0.01
0.015
0.0
0.035
0.035
0.085
0.13
0.16
0.12
0.065
0.015
0.02
0.0
0.02
0.0
-0.005
-0.015
0.025
-0.27
-0.405
0.13
0.39
0.75
0.48
0.225
0.08
-0.025
-0.03
-0.045
-0.05
-0.08
-0.06
-0.065
-0.065
-0.075
-0.08
-0.095
-0.09
-0.105
-0.105
-0.115
-0.125
-0.14
-0.15
-0.175
-0.18
-0.19
-0.185
-0.18
-0.15
-0.12
-0.06
-0.01
0.02
0.045
0.05
0.055
0.045
0.035
0.025
0.015
0.015
0.005
0.01
0.015
0.01
0.005
0.0
0.0
0.0
0.0
0.0
0.0
0.0
0.0
0.0
0.0
0.0
0.0
0.005
0.005
0.01
0.01
0.01
0.01
0.015
0.015
0.02
0.015
0.02
0.03
0.055
0.08
0.115
0.16
0.18
0.135
0.07
0.03
0.05
0.03
0.025
0.015
0.025
0.02
0.055
-0.24
-0.305
0.295
0.495
0.705
0.52
0.24
0.085
0.0
-0.005
-0.025
-0.03
-0.04
-0.035
-0.045
-0.045
-0.05
-0.05
-0.065
-0.07
-0.08
-0.085
-0.1
-0.11
-0.135
-0.15
-0.17
-0.18
-0.19
-0.195
-0.18
-0.16
-0.12
-0.065
-0.015
0.025
0.04
0.05
0.04
0.03
0.02
0.005
0.005
0.0
0.0
0.0
0.0
-0.005
0.0
-0.005
0.0
-0.005
0.0
0.0
0.0
0.01
0.01
0.015
0.02
0.02
0.02
0.02
0.025
0.025
0.025
0.025
0.03
0.025
0.035
0.03
0.03
0.05
0.065
0.095
0.145
0.17
0.155
0.12
0.045
0.04
0.055
0.04
0.03
0.03
0.03
0.075
0.015
-0.36
-0.395
0.235
0.735
0.735
0.48
0.19
0.06
0.005
-0.005
-0.015
-0.02
-0.035
-0.03
-0.05
-0.05
-0.05
-0.065
-0.07
-0.08
-0.09
-0.11
-0.125
-0.14
-0.165
-0.18
-0.205
-0.215
-0.23
-0.23
-0.215
-0.195
-0.155
-0.095
-0.04
0.005
0.02
0.025
0.02
0.015
0.01
-0.01
-0.005
-0.005
-0.01
-0.02
-0.015
-0.02
-0.02
-0.015
-0.02
-0.02
-0.005
-0.01
-0.015
-0.005
0.0
0.0
-0.005
0.0
0.0
0.0
0.01
0.0
0.0
0.0
0.01
0.0
0.02
0.025
0.05
0.11
0.15
0.145
0.09
0.01
0.02
0.01
0.005
-0.005
0.0
-0.005
0.025
-0.075
-0.39
-0.27
0.185
0.695
0.67
0.405
0.165
0.03
-0.025
-0.045
-0.055
-0.065
-0.065
-0.07
-0.07
-0.08
-0.085
-0.09
-0.09
-0.11
-0.105
-0.12
-0.115
-0.13
-0.14
-0.155
-0.165
-0.17
-0.17
-0.175
-0.155
-0.125
-0.095
-0.03
0.0
0.03
0.035
0.035
0.03
0.01
0.01
0.005
0.0
0.0
0.005
-0.01
0.0
-0.005
-0.005
-0.01
-0.005
-0.005
0.005
0.0
0.005
0.005
0.01
0.005
0.015
0.005
0.015
0.01
0.02
0.01
0.06
0.06
0.1
0.155
0.195
0.165
0.115
0.035
0.05
0.025
0.025
0.0
0.02
0.0
0.07
-0.11
-0.23
0.21
0.285
0.73
0.565
0.32
0.15
0.02
0.01
-0.015
-0.01
-0.035
-0.02
-0.04
-0.03
-0.04
-0.03
-0.05
-0.05
-0.06
-0.06
-0.075
-0.075
-0.1
-0.1
-0.12
-0.13
-0.135
-0.125
-0.13
-0.105
-0.075
-0.025
0.01
0.05
0.065
0.065
0.06
0.05
0.045
0.035
0.03
0.025
0.02
0.015
0.02
0.01
0.015
0.005
0.015
0.01
0.015
0.01
0.02
0.01
0.025
0.025
0.025
0.025
0.02
0.015
0.02
0.02
0.05
0.06
0.095
0.14
0.17
0.155
0.125
0.035
0.04
0.035
0.03
0.01
0.015
0.01
0.06
-0.01
-0.3
-0.16
0.195
0.65
0.625
0.395
0.175
0.04
0.0
-0.02
-0.02
-0.04
-0.04
-0.055
-0.045
-0.06
-0.06
-0.07
-0.065
-0.085
-0.09
-0.095
-0.1
-0.115
-0.13
-0.15
-0.16
-0.17
-0.17
-0.165
-0.145
-0.14
-0.095
0.0
0.035
0.045
0.04
0.08
0.065
0.055
0.04
0.035
0.03
0.03
0.025
0.025
0.02
0.025
0.02
0.025
0.015
0.025
0.01
-0.03
0.05
0.045
0.045
0.045
0.04
0.05
0.04
0.05
0.045
0.055
0.045
0.09
0.085
0.12
0.18
0.19
0.145
0.1
0.04
0.05
0.045
0.045
0.03
0.04
0.025
0.115
-0.025
-0.345
-0.15
0.22
0.77
0.685
0.41
0.175
0.045
0.025
0.0
0.0
-0.02
-0.015
-0.03
-0.025
-0.035
-0.035
-0.05
-0.05
-0.065
-0.07
-0.09
-0.1
-0.12
-0.135
-0.16
-0.17
-0.185
-0.19
-0.19
-0.17
-0.14
-0.09
-0.04
0.005
0.035
0.05
0.045
0.04
0.035
0.02
0.015
0.01
0.0
0.0
0.0
0.0
0.0
0.0
0.0
0.0
0.0
0.0
0.005
0.005
0.005
0.01
0.015
0.02
0.015
0.015
0.02
0.02
0.02
0.02
0.02
0.025
0.02
0.025
0.02
0.025
0.02
0.025
0.025
0.05
0.055
0.085
0.15
0.175
0.125
0.08
0.035
0.05
0.04
0.035
0.025
0.035
0.03
0.09
-0.04
-0.42
-0.37
0.22
0.855
0.76
0.455
0.18
0.055
0.015
-0.005
-0.01
-0.025
-0.03
-0.04
-0.04
-0.05
-0.06
-0.065
-0.065
-0.08
-0.095
-0.105
-0.115
-0.135
-0.14
-0.165
-0.17
-0.185
-0.185
-0.185
-0.17
-0.15
-0.11
-0.07
-0.015
0.02
0.03
0.03
0.035
0.02
0.01
0.0
0.0
0.0
-0.01
0.0
0.0
-0.01
-0.01
0.0
0.0
-0.01
0.0
0.0
0.0
0.005
0.005
0.01
0.0
0.015
0.005
0.0
0.0
0.005
0.0
0.005
0.0
-0.005
0.005
0.005
0.0
0.005
0.0
0.0
0.0
0.0
0.005
0.0
0.0
0.0
0.0
0.01
0.005
0.01
0.015
0.005
0.015
0.015
0.04
0.05
0.07
0.14
0.175
0.12
0.085
0.025
0.04
0.02
0.02
0.005
0.005
0.005
0.035
-0.085
-0.405
-0.28
0.225
0.75
0.675
0.395
0.17
0.04
-0.025
-0.035
-0.045
-0.06
-0.045
-0.07
-0.065
-0.07
-0.08
-0.08
-0.095
-0.09
-0.11
-0.105
-0.09
-0.135
-0.135
-0.15
-0.15
-0.17
-0.17
-0.17
-0.16
-0.13
-0.085
-0.04
-0.015
0.03
0.04
0.045
0.04
0.025
0.02
0.005
0.01
-0.005
0.0
0.0
-0.01
0.0
0.0
0.0
-0.005
-0.01
0.0
-0.005
0.0
0.0
0.0
0.0
0.005
0.005
0.0
0.005
0.0
-0.005
0.0
0.0
0.005
0.0
0.005
0.0
0.0
0.005
0.01
0.01
0.015
0.015
0.015
0.01
0.025
0.015
0.025
0.02
0.06
0.065
0.11
0.155
0.2
0.145
0.08
0.025
0.05
0.025
0.025
0.005
0.015
-0.005
0.06
-0.18
-0.28
0.165
0.29
0.7
0.52
0.26
0.105
-0.005
-0.015
-0.045
-0.04
-0.065
-0.055
-0.065
-0.06
-0.07
-0.065
-0.08
-0.08
-0.095
-0.09
-0.1
-0.11
-0.125
-0.13
-0.145
-0.155
-0.15
-0.15
-0.145
-0.125
-0.09
-0.045
0.0
0.03
0.05
0.05
0.045
0.04
0.025
0.015
0.01
0.01
0.01
0.005
0.0
0.0
0.0
0.0
0.0
0.0
0.0
0.0
0.0
0.005
0.01
0.005
0.005
0.0
0.01
0.01
0.01
0.01
0.005
0.01
0.015
0.01
0.01
0.01
0.015
0.01
0.015
0.015
0.015
0.015
0.02
0.01
0.02
0.015
0.025
0.015
0.045
0.055
0.08
0.135
0.175
0.145
0.11
0.03
0.045
0.03
0.03
0.015
0.02
0.01
0.075
-0.05
-0.35
-0.215
0.16
0.715
0.615
0.39
0.16
0.03
0.0
-0.025
-0.03
-0.05
-0.05
-0.065
-0.06
-0.07
-0.07
-0.085
-0.085
-0.1
-0.105
-0.12
-0.125
-0.145
-0.16
-0.175
-0.19
-0.205
-0.2
-0.205
-0.19
-0.17
-0.125
-0.085
-0.03
0.005
0.01
0.01
0.005
0.0
-0.01
-0.02
-0.03
-0.035
-0.04
-0.045
-0.05
-0.05
-0.06
-0.06
-0.055
-0.06
-0.06
-0.06
-0.06
-0.07
-0.055
-0.065
-0.05
-0.06
-0.06
-0.065
-0.065
-0.06
-0.07
-0.065
-0.07
-0.065
-0.075
-0.07
-0.075
-0.075
-0.075
-0.075
-0.08
-0.08
-0.085
-0.08
-0.085
-0.085
-0.09
-0.085
-0.085
-0.09
-0.09
-0.08
-0.085
-0.08
-0.085
-0.08
-0.07
-0.05
-0.025
0.01
0.05
0.055
0.01
-0.055
-0.07
-0.05
-0.07
-0.075
-0.085
-0.075
-0.06
-0.08
-0.45
-0.605
0.025
0.49
0.635
0.415
0.105
-0.015
-0.09
-0.1
-0.12
-0.12
-0.135
-0.135
-0.145
-0.145
-0.15
-0.15
-0.155
-0.17
-0.18
-0.185
-0.195
-0.21
-0.225
-0.24
-0.255
-0.265
-0.275
-0.275
-0.26
-0.235
-0.2
-0.155
-0.1
-0.055
-0.03
-0.02
-0.02
-0.02
-0.035
-0.045
-0.05
-0.055
-0.055
-0.07
-0.065
-0.06
-0.07
-0.065
-0.07
-0.065
-0.06
-0.055
-0.05
-0.05
-0.05
-0.05
-0.05
-0.05
-0.045
-0.04
-0.045
-0.04
-0.035
-0.045
-0.04
-0.04
-0.04
-0.04
-0.04
-0.035
-0.035
-0.03
-0.03
-0.035
-0.03
-0.025
-0.025
-0.025
-0.02
-0.015
-0.01
-0.025
-0.015
-0.02
0.0
0.005
0.04
0.09
0.125
0.095
0.07
0.0
0.015
0.0
-0.005
-0.015
-0.01
-0.025
0.015
-0.205
-0.475
-0.155
0.23
0.855
0.63
0.31
0.12
-0.005
-0.045
-0.075
-0.075
-0.085
-0.08
-0.1
-0.09
-0.105
-0.105
-0.115
-0.115
-0.125
-0.125
-0.13
-0.14
-0.145
-0.15
-0.17
-0.17
-0.18
-0.18
-0.165
-0.145
-0.125
-0.085
-0.045
0.0
0.02
0.025
0.025
0.025
0.01
0.0
-0.005
-0.015
-0.005
-0.015
-0.01
-0.02
-0.01
-0.02
-0.02
-0.01
-0.015
-0.015
-0.01
-0.01
-0.015
-0.015
-0.01
-0.005
0.0
-0.005
-0.01
0.0
0.0
-0.01
-0.005
-0.005
0.0
-0.005
0.0
0.0
0.0
0.0
0.005
0.01
0.005
0.02
0.04
0.07
0.11
0.15
0.18
0.135
0.055
0.03
0.03
0.025
0.01
0.01
0.005
0.035
-0.03
-0.305
-0.17
0.235
0.65
0.655
0.425
0.185
0.045
-0.01
-0.025
-0.035
-0.055
-0.055
-0.06
-0.055
-0.055
-0.06
-0.075
-0.075
-0.08
-0.085
-0.095
-0.105
-0.115
-0.125
-0.135
-0.14
-0.15
-0.145
-0.145
-0.135
-0.105
-0.07
-0.03
0.005
0.035
0.045
0.045
0.035
0.025
0.005
0.005
0.0
-0.005
0.0
-0.005
-0.01
-0.005
-0.015
-0.01
-0.005
-0.005
-0.01
0.0
0.0
0.0
0.0
0.005
0.005
0.0
0.0
0.005
0.005
0.005
0.005
0.005
0.0
0.005
0.005
0.0
0.005
0.005
0.01
0.005
0.01
0.005
0.03
0.04
0.075
0.105
0.15
0.15
0.12
0.035
0.02
0.035
0.01
0.0
0.0
0.0
0.035
-0.035
-0.315
-0.24
0.2
0.685
0.67
0.44
0.175
0.035
-0.015
-0.03
-0.04
-0.055
-0.05
-0.06
-0.06
-0.065
-0.06
-0.075
-0.08
-0.085
-0.095
-0.105
-0.115
-0.125
-0.13
-0.145
-0.15
-0.16
-0.155
-0.155
-0.13
-0.11
-0.07
-0.025
0.015
0.045
0.045
0.05
0.04
0.025
0.01
0.01
0.005
0.0
-0.005
-0.005
-0.005
-0.01
-0.005
-0.005
-0.005
0.0
-0.005
-0.005
-0.005
0.0
0.0
0.0
0.0
0.005
0.0
0.005
0.0
0.0
0.0
0.01
0.005
0.005
0.0
0.015
0.005
0.015
0.005
0.015
0.005
0.04
0.04
0.075
0.13
0.17
0.125
0.09
0.02
0.04
0.025
0.025
0.01
0.02
0.005
0.085
-0.125
-0.39
-0.04
0.3
0.87
0.7
0.365
0.15
0.03
0.015
-0.015
-0.015
-0.035
-0.03
-0.05
-0.035
-0.05
-0.05
-0.06
-0.06
-0.08
-0.08
-0.095
-0.1
-0.125
-0.13
-0.15
-0.155
-0.17
-0.165
-0.165
-0.145
-0.12
-0.07
-0.025
0.015
0.04
0.05
0.05
0.045
0.035
0.025
0.015
0.015
0.005
0.005
0.0
0.0
-0.005
0.0
-0.01
-0.005
-0.005
0.0
0.005
0.005
0.01
0.005
0.01
0.015
0.02
0.015
0.025
0.015
0.025
0.015
0.025
0.025
0.02
0.015
0.02
0.005
0.045
0.045
0.08
0.14
0.165
0.125
0.085
0.02
0.045
0.025
0.025
0.01
0.025
0.0
0.065
-0.23
-0.49
0.06
0.41
0.925
0.665
0.29
0.125
0.01
0.0
-0.025
-0.03
-0.05
-0.045
-0.06
-0.045
-0.07
-0.07
-0.075
-0.075
-0.095
-0.1
-0.125
-0.125
-0.145
-0.15
-0.175
-0.175
-0.185
-0.18
-0.165
-0.14
-0.105
-0.06
-0.015
0.025
0.04
0.05
0.05
0.04
0.03
0.02
0.015
0.015
0.01
0.005
0.005
0.005
0.01
0.01
0.005
0.015
0.015
0.015
0.025
0.025
0.02
0.025
0.025
0.03
0.03
0.03
0.025
0.035
0.02
0.03
0.025
0.07
0.075
0.105
0.17
0.195
0.15
0.1
0.045
0.07
0.045
0.045
0.03
0.04
0.015
0.09
-0.205
-0.465
0.115
0.455
0.915
0.675
0.3
0.13
0.02
0.015
-0.015
-0.015
-0.03
-0.03
-0.04
-0.035
-0.05
-0.05
-0.07
-0.07
-0.085
-0.1
-0.115
-0.125
-0.145
-0.155
-0.175
-0.19
-0.2
-0.195
-0.19
-0.16
-0.125
-0.075
-0.025
0.015
0.035
0.04
0.045
0.035
0.03
0.015
0.015
0.01
0.005
0.0
0.0
0.0
0.0
0.0
0.0
0.005
0.005
0.01
0.015
0.02
0.015
0.025
0.02
0.02
0.02
0.02
0.025
0.025
0.025
0.065
0.07
0.095
0.16
0.175
0.12
0.07
0.02
0.045
0.025
0.025
0.01
0.02
0.01
0.055
-0.3
-0.56
0.095
0.535
0.92
0.655
0.27
0.11
0.015
0.0
-0.02
-0.025
-0.045
-0.045
-0.055
-0.06
-0.07
-0.075
-0.09
-0.095
-0.11
-0.115
-0.13
-0.14
-0.165
-0.18
-0.2
-0.21
-0.21
-0.21
-0.2
-0.17
-0.135
-0.08
-0.03
0.01
0.03
0.03
0.03
0.02
0.015
0.01
0.01
0.0
0.0
0.0
0.0
-0.005
0.0
-0.005
0.0
0.0
0.005
0.005
0.015
0.005
0.02
0.01
0.025
0.02
0.03
0.02
0.025
0.03
0.065
0.065
0.1
0.165
0.19
0.14
0.09
0.03
0.055
0.03
0.04
0.02
0.025
0.01
0.065
-0.195
-0.47
-0.01
0.385
0.915
0.68
0.315
0.145
0.025
0.0
-0.025
-0.03
-0.05
-0.04
-0.055
-0.06
-0.065
-0.07
-0.085
-0.085
-0.1
-0.105
-0.12
-0.12
-0.14
-0.14
-0.16
-0.155
-0.17
-0.155
-0.155
-0.12
-0.09
-0.035
-0.01
0.03
0.04
0.045
0.03
0.03
0.02
0.01
0.005
0.0
0.0
-0.005
-0.005
-0.005
-0.01
-0.015
-0.015
-0.005
-0.01
-0.01
-0.005
-0.005
0.0
0.0
0.01
0.005
0.01
0.005
0.01
0.025
0.04
0.055
0.075
0.135
0.16
0.165
0.125
0.045
0.03
0.03
0.01
0.01
0.005
0.01
0.025
0.0
-0.31
-0.28
0.25
0.65
0.71
0.48
0.205
0.065
-0.005
-0.02
-0.035
-0.04
-0.05
-0.05
-0.055
-0.05
-0.05
-0.06
-0.065
-0.075
-0.08
-0.09
-0.095
-0.11
-0.125
-0.13
-0.145
-0.15
-0.155
-0.145
-0.135
-0.105
-0.06
-0.005
0.03
0.055
0.06
0.06
0.05
0.04
0.03
0.03
0.02
0.015
0.015
0.01
0.005
0.005
0.0
0.005
0.0
0.0
0.005
0.005
0.005
0.015
0.015
0.015
0.015
0.02
0.025
0.025
0.025
0.025
0.02
0.025
0.025
0.025
0.025
0.025
0.025
0.03
0.03
0.03
0.03
0.03
0.05
0.065
0.085
0.15
0.165
0.135
0.095
0.04
0.04
0.04
0.025
0.02
0.015
0.02
0.055
0.0
-0.335
-0.325
0.245
0.71
0.73
0.495
0.2
0.07
0.015
0.0
-0.01
-0.015
-0.025
-0.03
-0.04
-0.04
-0.04
-0.055
-0.055
-0.065
-0.08
-0.09
-0.1
-0.115
-0.13
-0.145
-0.155
-0.165
-0.165
-0.16
-0.145
-0.12
-0.08
-0.03
0.005
0.04
0.055
0.055
0.045
0.04
0.03
0.02
0.02
0.01
0.01
0.005
0.0
0.01
0.005
0.005
0.005
0.01
0.01
0.015
0.015
0.02
0.015
0.02
0.025
0.02
0.015
0.02
0.02
0.025
0.02
0.02
0.02
0.02
0.015
0.015
0.01
0.015
0.01
0.01
0.005
0.005
0.005
0.005
0.005
0.0
0.0
0.005
0.005
0.005
0.0
0.005
0.0
0.0
0.0
0.0
0.0
0.0
-0.005
0.005
0.0
0.005
0.0
0.0
0.0
0.005
0.005
0.03
0.045
0.1
0.13
0.13
0.08
0.02
0.01
0.035
0.01
0.015
0.0
0.015
0.005
0.035
-0.3
-0.515
0.085
0.465
0.83
0.605
0.24
0.085
-0.005
-0.015
-0.04
-0.045
-0.06
-0.06
-0.075
-0.07
-0.085
-0.085
-0.1
-0.1
-0.115
-0.12
-0.135
-0.15
-0.17
-0.18
-0.2
-0.21
-0.22
-0.22
-0.22
-0.2
-0.17
-0.13
-0.085
-0.045
-0.02
-0.01
-0.01
-0.01
-0.025
-0.03
-0.04
-0.045
-0.045
-0.05
-0.055
-0.06
-0.055
-0.06
-0.06
-0.055
-0.055
-0.05
-0.05
-0.045
-0.045
-0.045
-0.04
-0.04
-0.04
-0.035
-0.035
-0.035
-0.04
-0.035
-0.04
-0.035
-0.04
-0.04
-0.04
-0.035
-0.04
-0.035
-0.035
-0.035
-0.04
-0.035
-0.04
-0.035
-0.035
-0.035
-0.035
-0.035
-0.035
-0.03
-0.03
-0.03
-0.035
-0.025
-0.035
-0.03
-0.035
-0.03
-0.03
-0.025
-0.03
-0.02
-0.03
-0.02
-0.025
-0.015
-0.015
0.01
0.02
0.06
0.105
0.125
0.07
0.015
-0.01
0.02
-0.005
0.0
-0.015
-0.005
-0.025
0.02
-0.295
-0.55
-0.015
0.405
0.9
0.66
0.27
0.1
-0.01
-0.025
-0.05
-0.05
-0.075
-0.065
-0.08
-0.075
-0.085
-0.08
-0.095
-0.095
-0.115
-0.115
-0.14
-0.14
-0.17
-0.17
-0.195
-0.2
-0.215
-0.215
-0.22
-0.2
-0.165
-0.115
-0.07
-0.015
0.005
0.02
0.015
0.01
0.0
0.0
-0.01
-0.015
-0.02
-0.02
-0.02
-0.025
-0.03
-0.025
-0.025
-0.025
-0.025
-0.015
-0.015
-0.01
-0.01
-0.015
-0.01
-0.005
-0.005
-0.01
-0.01
-0.01
-0.005
-0.005
-0.01
-0.005
-0.015
-0.015
-0.01
-0.01
-0.015
-0.015
-0.02
-0.01
-0.02
-0.015
-0.015
-0.015
-0.015
-0.015
-0.015
-0.01
-0.01
-0.01
-0.005
-0.005
-0.01
-0.01
-0.005
-0.02
0.0
0.0
-0.005
-0.01
0.0
-0.005
0.025
0.025
0.045
0.11
0.15
0.095
0.07
0.0
0.03
0.01
0.01
0.0
0.0
-0.01
0.02
-0.21
-0.515
-0.125
0.335
0.935
0.67
0.32
0.13
0.0
-0.03
-0.06
-0.06
-0.085
-0.08
-0.085
-0.075
-0.1
-0.09
-0.1
-0.105
-0.12
-0.115
-0.13
-0.14
-0.15
-0.165
-0.18
-0.17
-0.195
-0.19
-0.18
-0.16
-0.135
-0.095
-0.05
0.0
0.015
0.025
0.03
0.025
0.01
0.005
0.0
0.0
-0.005
-0.01
-0.01
-0.01
-0.01
-0.015
-0.015
-0.02
-0.02
-0.02
-0.02
-0.025
-0.02
-0.02
-0.03
-0.015
-0.015
-0.02
-0.02
-0.03
-0.025
-0.03
-0.04
-0.035
-0.045
-0.045
-0.05
-0.05
-0.055
-0.05
-0.06
-0.055
-0.06
-0.06
-0.07
-0.065
-0.08
-0.07
-0.075
-0.075
-0.08
-0.075
-0.08
-0.07
-0.085
-0.08
-0.085
-0.055
-0.055
-0.025
0.015
0.06
0.025
0.0
-0.085
-0.075
-0.095
-0.1
-0.125
-0.12
-0.135
-0.07
-0.275
-0.525
-0.19
0.125
0.675
0.495
0.22
0.0
-0.125
-0.145
-0.18
-0.17
-0.19
-0.19
-0.205
-0.19
-0.2
-0.19
-0.205
-0.2
-0.215
-0.21
-0.225
-0.23
-0.245
-0.25
-0.27
-0.275
-0.285
-0.275
-0.265
-0.245
-0.21
-0.155
-0.1
-0.055
-0.015
-0.005
0.0
0.0
0.0
-0.01
-0.01
-0.015
-0.005
-0.01
-0.01
-0.01
-0.005
-0.005
-0.005
0.0
0.0
0.005
0.015
0.015
0.02
0.03
0.03
0.035
0.04
0.04
0.045
0.045
0.045
0.04
0.05
0.05
0.045
0.045
0.045
0.045
0.055
0.045
0.045
0.04
0.045
0.035
0.04
0.03
0.035
0.025
0.035
0.025
0.05
0.05
0.085
0.13
0.17
0.14
0.12
0.035
0.045
0.035
0.03
0.01
0.02
0.0
0.07
-0.17
-0.46
-0.06
0.315
0.885
0.675
0.34
0.13
0.01
-0.005
-0.04
-0.04
-0.065
-0.06
-0.075
-0.065
-0.08
-0.08
-0.1
-0.1
-0.125
-0.135
-0.155
-0.16
-0.185
-0.195
-0.22
-0.23
-0.24
-0.235
-0.235
-0.21
-0.18
-0.125
-0.08
-0.03
0.0
0.01
0.015
0.015
0.005
-0.005
-0.01
-0.015
-0.015
-0.02
-0.025
-0.035
-0.03
-0.035
-0.035
-0.035
-0.035
-0.03
-0.025
-0.02
-0.02
-0.025
-0.02
-0.025
-0.015
-0.015
-0.015
-0.015
-0.015
-0.015
-0.01
-0.015
-0.005
-0.005
-0.005
-0.01
0.0
-0.005
0.0
-0.01
0.0
-0.005
0.005
0.0
0.005
-0.005
0.0
0.0
0.03
0.035
0.07
0.13
0.165
0.105
0.075
0.015
0.035
0.015
0.02
0.005
0.02
-0.005
0.02
-0.3
-0.565
0.07
0.455
0.885
0.63
0.255
0.105
-0.015
-0.025
-0.055
-0.045
-0.06
-0.06
-0.07
-0.075
-0.08
-0.085
-0.105
-0.1
-0.125
-0.13
-0.145
-0.155
-0.175
-0.19
-0.21
-0.21
-0.225
-0.21
-0.205
-0.18
-0.145
-0.09
-0.045
0.0
0.015
0.025
0.025
0.02
0.005
0.005
0.0
-0.005
-0.015
-0.01
-0.015
-0.02
-0.015
-0.015
-0.02
-0.02
-0.01
-0.015
-0.01
-0.01
-0.005
-0.005
0.0
0.0
-0.005
0.0
0.005
0.0
0.0
0.0
-0.005
0.0
-0.005
0.0
-0.005
0.0
-0.01
0.0
-0.005
0.005
0.0
0.0
0.0
0.01
0.0
0.035
0.045
0.065
0.125
0.17
0.115
0.08
0.01
0.03
0.015
0.01
-0.005
0.005
-0.02
0.015
-0.275
-0.465
0.09
0.395
0.83
0.575
0.25
0.11
-0.01
-0.025
-0.05
-0.045
-0.065
-0.06
-0.07
-0.06
-0.075
-0.07
-0.085
-0.085
-0.095
-0.095
-0.12
-0.115
-0.135
-0.14
-0.155
-0.16
-0.17
-0.16
-0.16
-0.13
-0.095
-0.045
-0.005
0.03
0.045
0.055
0.05
0.04
0.035
0.03
0.025
0.02
0.02
0.015
0.01
0.005
0.0
0.0
0.0
0.0
0.0
0.0
0.0
0.0
0.0
0.005
0.0
0.0
0.005
0.01
0.01
0.005
0.005
0.01
0.01
0.005
0.01
0.01
0.015
0.01
0.015
0.015
0.02
0.01
0.02
0.015
0.025
0.015
0.02
0.015
0.025
0.015
0.055
0.06
0.085
0.145
0.19
0.13
0.095
0.035
0.06
0.04
0.045
0.02
0.03
0.005
0.08
-0.2
-0.405
0.165
0.39
0.825
0.61
0.305
0.13
0.02
0.015
-0.01
-0.005
-0.025
-0.02
-0.04
-0.025
-0.045
-0.035
-0.055
-0.05
-0.07
-0.075
-0.095
-0.105
-0.12
-0.135
-0.16
-0.17
-0.185
-0.18
-0.18
-0.16
-0.12
-0.065
-0.015
0.025
0.055
0.065
0.06
0.055
0.04
0.03
0.025
0.015
0.015
0.01
0.01
0.005
0.005
0.005
0.005
0.005
0.005
0.005
0.01
0.01
0.015
0.015
0.02
0.02
0.02
0.02
0.02
0.015
0.025
0.02
0.025
0.02
0.025
0.02
0.025
0.02
0.025
0.02
0.02
0.02
0.02
0.02
0.025
0.025
0.03
0.015
0.025
0.025
0.03
0.025
0.035
0.03
0.055
0.06
0.09
0.14
0.185
0.145
0.12
0.045
0.055
0.055
0.05
0.03
0.04
0.025
0.095
-0.105
-0.44
-0.205
0.305
0.92
0.74
0.41
0.175
0.05
0.02
-0.005
-0.01
-0.03
-0.025
-0.04
-0.035
-0.045
-0.04
-0.055
-0.06
-0.075
-0.075
-0.1
-0.105
-0.13
-0.14
-0.16
-0.175
-0.195
-0.195
-0.195
-0.18
-0.15
-0.1
-0.05
0.0
0.03
0.05
0.06
0.055
0.045
0.04
0.025
0.025
0.015
0.02
0.015
0.01
0.01
0.01
0.01
0.01
0.005
0.01
0.01
0.015
0.015
0.02
0.02
0.02
0.02
0.025
0.025
0.025
0.025
0.03
0.025
0.03
0.025
0.025
0.025
0.025
0.03
0.025
0.025
0.02
0.02
0.02
0.02
0.02
0.025
0.025
0.03
0.03
0.03
0.025
0.04
0.03
0.04
0.03
0.04
0.035
0.07
0.07
0.105
0.17
0.2
0.145
0.1
0.06
0.08
0.06
0.065
0.05
0.055
0.035
0.08
-0.235
-0.505
0.055
0.48
1.015
0.725
0.335
0.155
0.045
0.03
0.005
0.0
-0.015
-0.01
-0.025
-0.02
-0.035
-0.035
-0.045
-0.045
-0.075
-0.075
-0.095
-0.11
-0.135
-0.145
-0.17
-0.18
-0.19
-0.19
-0.185
-0.16
-0.13
-0.085
-0.035
0.01
0.045
0.055
0.06
0.055
0.045
0.035
0.025
0.02
0.025
0.015
0.01
0.01
0.015
0.005
0.005
0.0
0.01
0.01
0.005
0.01
0.015
0.02
0.015
0.015
0.015
0.025
0.02
0.02
0.025
0.02
0.025
0.015
0.025
0.015
0.015
0.015
0.015
0.015
0.015
0.015
0.02
0.015
0.015
0.015
0.025
0.015
0.02
0.01
0.03
0.02
0.05
0.06
0.09
0.145
0.18
0.12
0.075
0.025
0.05
0.03
0.03
0.02
0.03
0.02
-0.015
-0.35
-0.465
0.18
0.605
0.86
0.58
0.245
0.11
0.0
-0.015
-0.03
-0.04
-0.06
-0.05
-0.055
-0.06
-0.07
-0.07
-0.075
-0.08
-0.095
-0.095
-0.11
-0.12
-0.14
-0.145
-0.16
-0.17
-0.18
-0.17
-0.165
-0.14
-0.105
-0.055
-0.01
0.03
0.045
0.05
0.05
0.045
0.025
0.025
0.02
0.015
0.015
0.015
0.01
0.01
0.005
0.005
0.005
0.0
0.0
0.005
0.0
0.0
0.0
0.0
0.0
0.0
0.005
0.0
0.0
0.0
0.0
0.0
0.005
0.0
0.0
0.0
0.0
0.0
0.0
0.0
0.0
0.0
0.0
0.0
0.005
0.0
0.005
0.0
0.03
0.045
0.07
0.13
0.16
0.1
0.045
0.01
0.03
0.005
0.005
-0.005
0.0
-0.005
0.01
-0.305
-0.415
0.245
0.53
0.78
0.535
0.22
0.065
-0.025
-0.03
-0.045
-0.05
-0.06
-0.06
-0.075
-0.065
-0.08
-0.08
-0.085
-0.09
-0.105
-0.11
-0.12
-0.14
-0.155
-0.17
-0.19
-0.2
-0.21
-0.21
-0.195
-0.175
-0.135
-0.085
-0.025
0.01
0.035
0.045
0.045
0.03
0.025
0.02
0.015
0.01
0.005
0.005
0.005
0.0
0.0
0.005
0.01
0.005
0.01
0.005
0.015
0.01
0.015
0.015
0.02
0.015
0.015
0.015
0.02
0.015
0.02
0.015
0.02
0.015
0.015
0.01
0.02
0.015
0.02
0.01
0.015
0.01
0.02
0.01
0.02
0.01
0.025
0.015
0.025
0.015
0.045
0.04
0.08
0.135
0.175
0.115
0.085
0.02
0.05
0.03
0.035
0.015
0.025
0.0
0.075
-0.2
-0.47
0.0
0.405
0.95
0.7
0.335
0.14
0.01
0.0
-0.03
-0.025
-0.05
-0.045
-0.065
-0.05
-0.065
-0.065
-0.08
-0.08
-0.1
-0.105
-0.13
-0.14
-0.165
-0.185
-0.205
-0.215
-0.23
-0.235
-0.235
-0.215
-0.18
-0.13
-0.08
-0.03
0.0
0.015
0.015
0.015
0.0
0.0
-0.005
-0.005
-0.015
-0.01
-0.015
-0.02
-0.02
-0.015
-0.02
-0.02
-0.02
-0.015
-0.015
-0.005
-0.01
-0.005
-0.005
-0.005
0.0
-0.005
0.0
0.0
0.0
0.0
0.0
0.0
0.0
0.005
0.005
0.0
0.0
0.005
0.01
0.005
0.015
0.01
0.01
0.01
0.01
0.015
0.01
0.01
0.015
0.02
0.045
0.06
0.095
0.15
0.16
0.105
0.04
0.03
0.045
0.03
0.025
0.02
0.03
0.045
-0.005
-0.4
-0.515
0.235
0.75
0.905
0.595
0.24
0.09
0.01
0.0
-0.02
-0.03
-0.045
-0.045
-0.055
-0.055
-0.065
-0.07
-0.08
-0.085
-0.1
-0.115
-0.125
-0.145
-0.165
-0.175
-0.195
-0.205
-0.215
-0.21
-0.205
-0.18
-0.15
-0.095
-0.045
0.0
0.025
0.035
0.04
0.03
0.02
0.015
0.01
0.005
0.005
0.0
0.0
-0.005
-0.005
-0.005
-0.005
-0.01
-0.015
-0.015
-0.005
-0.005
0.0
0.0
0.0
0.0
0.0
0.0
0.0
0.0
0.0
0.005
0.0
0.0
0.0
0.005
0.0
0.0
0.0
0.005
0.005
0.0
0.005
0.005
0.005
0.01
0.01
0.01
0.01
0.025
0.03
0.06
0.105
0.145
0.145
0.11
0.035
0.03
0.03
0.025
0.015
0.015
0.01
0.04
-0.08
-0.47
-0.425
0.235
0.87
0.785
0.48
0.19
0.05
-0.02
-0.035
-0.04
-0.055
-0.055
-0.065
-0.065
-0.075
-0.07
-0.085
-0.095
-0.105
-0.105
-0.125
-0.13
-0.15
-0.155
-0.17
-0.19
-0.19
-0.19
-0.19
-0.17
-0.15
-0.11
-0.065
-0.02
0.01
0.025
0.035
0.035
0.025
0.02
0.015
0.005
0.0
0.0
0.0
0.0
-0.005
0.0
-0.005
0.0
-0.005
0.0
0.005
0.005
0.005
0.0
0.005
0.01
0.005
0.01
0.005
0.01
0.005
0.005
0.005
0.01
0.005
0.005
0.0
0.01
0.005
0.01
0.0
0.005
0.0
0.005
0.0
0.035
0.035
0.07
0.13
0.17
0.125
0.085
0.015
0.035
0.02
0.02
0.005
0.015
0.0
0.06
-0.19
-0.43
0.04
0.38
0.915
0.66
0.34
0.145
0.02
0.005
-0.015
-0.02
-0.04
-0.03
-0.05
-0.035
-0.05
-0.045
-0.065
-0.06
-0.075
-0.08
-0.1
-0.11
-0.135
-0.14
-0.165
-0.175
-0.185
-0.185
-0.18
-0.16
-0.13
-0.08
-0.035
0.005
0.035
0.045
0.05
0.04
0.035
0.03
0.025
0.02
0.01
0.01
0.005
0.0
0.0
0.0
0.0
0.0
0.005
0.0
0.005
0.005
0.01
0.01
0.015
0.015
0.015
0.015
0.015
0.02
0.02
0.02
0.02
0.02
0.02
0.02
0.015
0.02
0.015
0.015
0.015
0.015
0.015
0.02
0.02
0.02
0.02
0.045
0.065
0.095
0.16
0.17
0.115
0.05
0.035
0.05
0.035
0.035
0.025
0.035
0.045
0.02
-0.355
-0.475
0.24
0.715
0.865
0.575
0.24
0.1
0.015
0.0
-0.015
-0.02
-0.03
-0.035
-0.045
-0.045
-0.05
-0.055
-0.065
-0.07
-0.09
-0.1
-0.115
-0.13
-0.155
-0.17
-0.19
-0.2
-0.21
-0.21
-0.205
-0.18
-0.14
-0.095
-0.04
0.005
0.03
0.04
0.04
0.04
0.025
0.025
0.02
0.015
0.015
0.01
0.005
0.005
0.005
0.0
0.0
0.0
0.0
0.0
0.005
0.005
0.005
0.01
0.015
0.015
0.01
0.015
0.01
0.015
0.015
0.015
0.01
0.01
0.01
0.005
0.01
0.015
0.01
0.01
0.01
0.02
0.01
0.02
0.015
0.015
0.02
0.02
0.015
0.045
0.055
0.085
0.155
0.175
0.12
0.065
0.035
0.055
0.04
0.04
0.02
0.03
0.015
0.055
-0.285
-0.53
0.06
0.52
0.985
0.685
0.295
0.12
0.02
0.005
-0.02
-0.02
-0.035
-0.04
-0.045
-0.05
-0.06
-0.06
-0.08
-0.08
-0.105
-0.11
-0.12
-0.13
-0.155
-0.165
-0.18
-0.19
-0.2
-0.195
-0.19
-0.17
-0.145
-0.1
-0.05
-0.005
0.025
0.04
0.04
0.035
0.02
0.005
0.0
0.0
0.005
0.0
0.0
-0.015
-0.005
-0.005
-0.005
-0.005
-0.005
-0.005
0.005
0.0
0.0
0.005
0.005
0.005
0.0
0.005
0.015
0.0
0.01
0.0
0.0
0.005
0.01
0.005
0.005
0.0
0.005
0.01
0.0
0.005
0.01
0.01
0.005
0.005
0.01
0.01
0.01
0.035
0.035
0.06
0.13
0.165
0.135
0.105
0.02
0.04
0.03
0.02
0.015
0.015
0.005
0.055
-0.105
-0.45
-0.28
0.26
0.885
0.705
0.41
0.18
0.04
0.0
-0.025
-0.025
-0.045
-0.04
-0.05
-0.04
-0.055
-0.06
-0.075
-0.075
-0.085
-0.09
-0.1
-0.105
-0.125
-0.135
-0.155
-0.165
-0.18
-0.175
-0.175
-0.16
-0.13
-0.095
-0.05
-0.01
0.025
0.04
0.045
0.04
0.03
0.02
0.015
0.01
0.005
0.005
0.0
0.0
0.0
-0.005
0.0
0.0
0.0
0.0
0.0
0.0
0.0
0.0
0.0
0.0
0.0
0.0
0.0
0.0
0.0
0.0
0.0
0.0
0.0
0.0
0.0
0.0
0.0
0.005
0.005
0.005
0.005
0.01
0.005
0.015
0.01
0.015
0.01
0.015
0.015
0.025
0.03
0.05
0.075
0.115
0.165
0.175
0.125
0.055
0.045
0.06
0.035
0.035
0.03
0.04
0.045
0.04
-0.305
-0.43
0.245
0.65
0.8
0.555
0.245
0.105
0.02
0.01
-0.005
-0.01
-0.02
-0.02
-0.025
-0.025
-0.04
-0.04
-0.05
-0.055
-0.07
-0.085
-0.095
-0.115
-0.13
-0.15
-0.17
-0.185
-0.195
-0.19
-0.19
-0.165
-0.13
-0.08
-0.035
0.005
0.035
0.04
0.045
0.035
0.03
0.02
0.015
0.01
0.01
0.0
0.005
0.0
0.0
0.0
0.0
0.005
0.005
0.005
0.01
0.01
0.015
0.01
0.015
0.02
0.015
0.015
0.01
0.015
0.015
0.005
0.005
0.01
0.01
0.01
0.005
0.0
0.005
0.005
0.005
0.005
0.005
0.0
0.005
0.0
0.005
0.01
0.01
0.01
0.01
0.015
0.01
0.01
0.015
0.02
0.02
0.02
0.03
0.05
0.07
0.125
0.165
0.155
0.115
0.04
0.045
0.06
0.04
0.035
0.03
0.03
0.065
-0.01
-0.395
-0.45
0.24
0.8
0.805
0.52
0.215
0.08
0.01
-0.005
-0.015
-0.02
-0.03
-0.035
-0.04
-0.045
-0.045
-0.055
-0.06
-0.07
-0.085
-0.1
-0.115
-0.125
-0.145
-0.165
-0.18
-0.195
-0.205
-0.2
-0.2
-0.18
-0.135
-0.09
-0.04
0.005
0.035
0.04
0.05
0.045
0.035
0.03
0.02
0.02
0.02
0.015
0.005
0.005
0.005
0.0
0.0
0.0
0.0
0.0
0.005
0.005
0.005
0.01
0.015
0.015
0.02
0.015
0.02
0.015
0.015
0.015
0.015
0.015
0.015
0.015
0.01
0.015
0.015
0.015
0.015
0.015
0.015
0.015
0.015
0.015
0.015
0.025
0.015
0.02
0.02
0.02
0.02
0.025
0.02
0.03
0.02
0.045
0.05
0.075
0.135
0.17
0.14
0.105
0.035
0.045
0.04
0.04
0.03
0.03
0.025
0.08
-0.09
-0.46
-0.31
0.29
0.955
0.775
0.44
0.185
0.055
0.01
-0.015
-0.02
-0.04
-0.04
-0.05
-0.045
-0.055
-0.06
-0.075
-0.075
-0.09
-0.1
-0.115
-0.13
-0.15
-0.16
-0.185
-0.2
-0.21
-0.21
-0.215
-0.2
-0.17
-0.13
-0.085
-0.035
0.005
0.03
0.03
0.04
0.035
0.02
0.01
0.01
0.0
0.0
0.0
-0.005
0.0
-0.005
-0.005
0.0
-0.005
0.0
0.0
0.0
0.0
0.0
0.005
0.005
0.005
0.005
0.005
0.005
0.005
0.01
0.005
0.0
0.005
0.005
0.0
0.0
0.005
0.005
0.01
0.005
0.0
0.005
0.015
0.005
0.005
0.015
0.01
0.01
0.01
0.015
0.015
0.025
0.04
0.065
0.115
0.155
0.15
0.115
0.035
0.035
0.035
0.03
0.02
0.025
0.015
0.05
-0.08
-0.45
-0.38
0.255
0.855
0.775
0.475
0.205
0.06
0.0
-0.02
-0.035
-0.045
-0.045
-0.05
-0.05
-0.06
-0.055
-0.065
-0.07
-0.08
-0.085
-0.1
-0.11
-0.125
-0.14
-0.16
-0.17
-0.185
-0.19
-0.19
-0.17
-0.15
-0.11
-0.065
-0.01
0.025
0.045
0.055
0.055
0.045
0.04
0.035
0.025
0.02
0.015
0.015
0.01
0.005
0.005
0.0
0.0
0.0
0.0
0.0
0.0
0.0
0.0
0.0
0.0
0.0
0.0
0.0
0.0
0.0
0.0
0.0
0.005
0.0
0.005
0.0
0.0
0.0
0.005
0.0
0.005
0.0
0.005
0.005
0.005
0.0
0.01
0.005
0.01
0.005
0.04
0.04
0.075
0.135
0.17
0.115
0.08
0.02
0.04
0.025
0.025
0.005
0.02
-0.005
0.045
-0.25
-0.47
0.115
0.46
0.885
0.62
0.285
0.11
0.0
-0.005
-0.035
-0.035
-0.055
-0.045
-0.06
-0.05
-0.07
-0.06
-0.075
-0.075
-0.095
-0.095
-0.12
-0.13
-0.155
-0.17
-0.19
-0.2
-0.22
-0.21
-0.21
-0.19
-0.155
-0.105
-0.055
-0.005
0.025
0.04
0.045
0.04
0.03
0.025
0.02
0.01
0.005
0.0
0.0
0.0
-0.005
-0.005
-0.005
-0.01
-0.01
-0.005
-0.005
-0.005
0.0
0.0
0.0
0.005
0.0
0.005
0.0
0.005
0.005
0.005
0.0
0.005
0.0
0.0
0.0
0.0
0.0
0.0
0.0
0.005
0.0
0.0
0.0
0.0
0.0
0.005
0.0
0.005
0.0
0.025
0.03
0.07
0.115
0.16
0.135
0.105
0.025
0.04
0.04
0.035
0.02
0.025
0.015
0.085
-0.09
-0.435
-0.27
0.29
0.91
0.745
0.435
0.18
0.045
0.01
-0.01
-0.015
-0.035
-0.04
-0.05
-0.045
-0.055
-0.055
-0.065
-0.065
-0.085
-0.09
-0.11
-0.12
-0.14
-0.155
-0.18
-0.195
-0.215
-0.22
-0.22
-0.21
-0.185
-0.145
-0.095
-0.035
0.0
0.025
0.035
0.04
0.03
0.02
0.015
0.01
0.005
0.005
0.0
0.0
0.0
0.0
0.0
0.0
0.0
0.0
0.0
0.005
0.005
0.005
0.01
0.01
0.01
0.01
0.01
0.01
0.01
0.015
0.02
0.02
0.015
0.015
0.015
0.02
0.02
0.02
0.02
0.02
0.015
0.02
0.015
0.02
0.015
0.02
0.02
0.025
0.025
0.025
0.025
0.04
0.045
0.075
0.115
0.175
0.16
0.115
0.04
0.045
0.05
0.04
0.035
0.035
0.03
0.08
-0.065
-0.455
-0.415
0.225
0.9
0.81
0.48
0.2
0.065
0.005
-0.015
-0.025
-0.04
-0.04
-0.05
-0.05
-0.055
-0.065
-0.07
-0.08
-0.095
-0.1
-0.125
-0.14
-0.15
-0.165
-0.19
-0.2
-0.215
-0.22
-0.225
-0.21
-0.19
-0.155
-0.095
-0.05
-0.01
0.01
0.02
0.025
0.015
0.01
0.0
-0.005
-0.005
-0.005
-0.01
-0.015
-0.015
-0.015
-0.015
-0.01
-0.015
-0.01
-0.01
-0.01
-0.005
-0.005
-0.01
0.0
0.0
0.0
0.0
-0.005
-0.005
0.0
0.0
0.0
0.0
0.0
-0.005
0.0
-0.005
0.0
0.005
0.005
0.005
0.01
0.005
0.02
0.01
0.04
0.04
0.07
0.13
0.175
0.12
0.085
0.02
0.045
0.03
0.04
0.015
0.025
0.0
0.04
-0.255
-0.555
-0.09
0.37
0.92
0.65
0.28
0.13
0.0
-0.01
-0.045
-0.05
-0.07
-0.07
-0.08
-0.075
-0.09
-0.09
-0.105
-0.11
-0.125
-0.13
-0.15
-0.15
-0.18
-0.19
-0.21
-0.23
-0.245
-0.245
-0.245
-0.23
-0.205
-0.155
-0.1
-0.04
0.0
0.015
0.02
0.015
0.005
0.0
-0.01
-0.01
-0.015
-0.02
-0.025
-0.025
-0.03
-0.03
-0.03
-0.025
-0.03
-0.03
-0.03
-0.035
-0.03
-0.03
-0.03
-0.03
-0.03
-0.025
-0.03
-0.025
-0.025
-0.025
-0.03
-0.02
-0.025
-0.02
-0.025
-0.015
-0.02
-0.015
-0.02
0.005
0.005
0.045
0.095
0.13
0.1
0.065
0.0
0.01
0.0
0.005
-0.01
0.0
-0.015
0.07
-0.125
-0.45
-0.195
0.255
0.84
0.665
0.37
0.135
0.005
-0.015
-0.045
-0.04
-0.065
-0.06
-0.075
-0.07
-0.075
-0.07
-0.085
-0.085
-0.105
-0.11
-0.13
-0.14
-0.165
-0.185
-0.21
-0.225
-0.24
-0.24
-0.245
-0.225
-0.2
-0.145
-0.095
-0.035
0.0
0.015
0.02
0.015
0.005
0.0
-0.005
-0.005
-0.01
-0.01
-0.015
-0.015
-0.015
-0.015
-0.02
-0.015
-0.015
-0.01
-0.01
-0.01
-0.01
-0.005
-0.005
0.0
0.0
0.0
-0.005
0.0
0.0
0.0
-0.005
0.0
-0.005
0.0
-0.005
-0.005
-0.01
0.0
-0.005
0.0
0.0
0.025
0.035
0.075
0.135
0.15
0.09
0.035
0.005
0.03
0.015
0.015
0.005
0.01
0.005
0.03
-0.345
-0.54
0.18
0.62
0.83
0.56
0.215
0.075
-0.01
-0.015
-0.035
-0.04
-0.055
-0.06
-0.07
-0.065
-0.08
-0.075
-0.085
-0.09
-0.105
-0.11
-0.13
-0.14
-0.165
-0.195
-0.215
-0.23
-0.235
-0.235
-0.23
-0.21
-0.17
-0.12
-0.06
-0.005
0.015
0.03
0.035
0.03
0.02
0.015
0.005
0.005
0.0
0.0
0.0
0.0
0.0
0.0
-0.005
-0.005
0.0
0.0
0.0
0.0
0.005
0.005
0.01
0.01
0.01
0.01
0.015
0.015
0.015
0.005
0.01
0.015
0.015
0.01
0.01
0.01
0.015
0.01
0.015
0.02
0.02
0.02
0.045
0.065
0.1
0.16
0.18
0.12
0.055
0.03
0.055
0.04
0.035
0.025
0.04
0.04
0.025
-0.37
-0.555
0.14
0.665
0.925
0.62
0.255
0.11
0.01
0.0
-0.02
-0.025
-0.045
-0.035
-0.045
-0.05
-0.06
-0.065
-0.075
-0.085
-0.095
-0.1
-0.12
-0.14
-0.15
-0.165
-0.18
-0.19
-0.205
-0.2
-0.19
-0.17
-0.135
-0.09
-0.04
0.0
0.02
0.03
0.04
0.025
0.02
0.005
0.01
0.005
0.0
0.0
-0.005
0.0
-0.005
-0.005
0.0
0.0
0.0
-0.01
0.005
0.0
-0.005
0.0
0.01
0.005
0.0
0.005
0.005
0.0
0.005
0.005
0.005
0.0
0.005
0.0
0.005
0.0
0.005
0.01
0.005
0.01
0.01
0.015
0.01
0.01
0.005
0.03
0.035
0.06
0.115
0.16
0.14
0.1
0.03
0.035
0.03
0.025
0.015
0.015
0.015
0.055
-0.08
-0.465
-0.43
0.175
0.81
0.725
0.43
0.185
0.055
-0.005
-0.03
-0.035
-0.055
-0.055
-0.06
-0.06
-0.065
-0.07
-0.08
-0.085
-0.095
-0.1
-0.12
-0.125
-0.135
-0.15
-0.17
-0.18
-0.2
-0.205
-0.205
-0.19
-0.165
-0.125
-0.075
-0.025
0.015
0.035
0.045
0.045
0.04
0.03
0.025
0.02
0.015
0.005
0.005
0.005
0.0
0.0
0.0
0.0
0.0
0.0
0.0
0.0
0.0
0.0
0.005
0.0
0.005
0.005
0.005
0.005
0.005
0.01
0.01
0.005
0.005
0.0
0.005
0.0
0.0
0.005
0.005
0.005
0.0
0.005
0.0
0.0
0.0
0.005
0.0
0.005
0.005
0.01
0.005
0.015
0.015
0.045
0.06
0.105
0.16
0.175
0.12
0.055
0.035
0.055
0.04
0.035
0.025
0.035
0.04
0.045
-0.305
-0.48
0.185
0.585
0.75
0.53
0.235
0.085
0.005
0.0
-0.02
-0.02
-0.035
-0.04
-0.05
-0.05
-0.055
-0.06
-0.065
-0.08
-0.095
-0.1
-0.12
-0.135
-0.155
-0.17
-0.195
-0.205
-0.215
-0.215
-0.21
-0.19
-0.155
-0.105
-0.055
-0.01
0.02
0.025
0.03
0.03
0.02
0.01
0.005
0.0
0.0
-0.005
-0.005
-0.005
-0.01
-0.01
-0.01
-0.01
-0.01
-0.005
-0.005
0.0
0.0
0.0
0.0
0.0
0.0
0.0
0.0
0.0
0.0
0.0
0.0
-0.005
-0.005
-0.005
-0.005
-0.005
-0.005
-0.005
0.0
0.0
0.0
-0.005
0.0
-0.005
0.0
-0.005
0.0
0.0
0.005
0.0
0.005
0.0
0.01
0.005
0.01
0.005
0.015
0.005
0.015
0.005
0.04
0.05
0.085
0.145
0.175
0.105
0.06
0.025
0.055
0.03
0.04
0.02
0.03
0.01
0.075
-0.24
-0.5
0.07
0.45
0.895
0.64
0.29
0.13
0.015
0.01
-0.01
-0.015
-0.035
-0.03
-0.045
-0.035
-0.05
-0.05
-0.065
-0.06
-0.08
-0.075
-0.1
-0.105
-0.135
-0.145
-0.17
-0.18
-0.2
-0.195
-0.2
-0.185
-0.16
-0.11
-0.06
0.0
0.03
0.055
0.055
0.06
0.045
0.04
0.03
0.03
0.025
0.02
0.02
0.015
0.01
0.015
0.01
0.02
0.015
0.015
0.015
0.015
0.015
0.025
0.02
0.025
0.025
0.03
0.025
0.025
0.02
0.02
0.02
0.02
0.02
0.02
0.02
0.02
0.015
0.015
0.02
0.02
0.015
0.01
0.01
0.015
0.015
0.015
0.01
0.015
0.01
0.025
0.015
0.025
0.03
0.025
0.025
0.03
0.03
0.045
0.075
0.12
0.16
0.16
0.115
0.04
0.04
0.05
0.035
0.025
0.03
0.035
0.06
-0.045
-0.455
-0.5
0.175
0.84
0.83
0.51
0.21
0.075
0.005
-0.015
-0.025
-0.035
-0.045
-0.055
-0.045
-0.06
-0.07
-0.075
-0.085
-0.095
-0.105
-0.115
-0.13
-0.145
-0.16
-0.17
-0.19
-0.2
-0.205
-0.205
-0.195
-0.18
-0.14
-0.09
-0.04
0.0
0.035
0.04
0.04
0.04
0.02
0.02
0.005
0.01
0.005
0.0
0.0
-0.005
-0.005
0.0
-0.005
0.0
0.0
0.0
0.0
0.0
0.005
0.01
0.005
0.01
0.01
0.01
0.01
0.01
0.0
0.015
0.01
0.02
0.015
0.02
0.01
0.015
0.015
0.02
0.01
0.015
0.02
0.025
0.02
0.015
0.015
0.025
0.015
0.025
0.02
0.035
0.04
0.065
0.13
0.165
0.14
0.13
0.035
0.05
0.04
0.04
0.02
0.03
0.01
0.06
-0.125
-0.495
-0.305
0.22
0.835
0.67
0.35
0.17
0.03
-0.01
-0.035
-0.035
-0.05
-0.045
-0.055
-0.06
-0.07
-0.07
-0.09
-0.09
-0.105
-0.11
-0.13
-0.14
-0.165
-0.185
-0.21
-0.23
-0.25
-0.265
-0.275
-0.26
-0.235
-0.19
-0.13
-0.065
-0.02
0.005
0.01
0.015
0.005
0.0
-0.01
-0.01
-0.015
-0.02
-0.02
-0.03
-0.025
-0.035
-0.035
-0.035
-0.035
-0.035
-0.035
-0.04
-0.035
-0.035
-0.035
-0.04
-0.04
-0.035
-0.03
-0.035
-0.035
-0.03
-0.035
-0.04
-0.03
-0.035
-0.035
-0.045
-0.04
-0.04
-0.035
-0.04
-0.04
-0.04
-0.035
-0.04
-0.035
-0.035
-0.03
-0.035
0.0
0.015
0.045
0.105
0.125
0.07
0.01
-0.015
0.0
-0.01
-0.02
-0.025
-0.02
-0.015
0.0
-0.345
-0.515
0.18
0.545
0.695
0.47
0.185
0.035
-0.04
-0.045
-0.065
-0.07
-0.08
-0.085
-0.095
-0.09
-0.1
-0.105
-0.115
-0.12
-0.135
-0.145
-0.165
-0.18
-0.205
-0.225
-0.25
-0.265
-0.28
-0.285
-0.28
-0.255
-0.215
-0.16
-0.1
-0.045
-0.01
0.0
0.0
0.0
-0.01
-0.02
-0.025
-0.03
-0.035
-0.04
-0.04
-0.05
-0.045
-0.05
-0.05
-0.05
-0.05
-0.05
-0.04
-0.045
-0.04
-0.035
-0.03
-0.03
-0.03
-0.03
-0.03
-0.03
-0.03
-0.025
-0.025
-0.03
-0.03
-0.03
-0.03
-0.03
-0.03
-0.03
-0.03
-0.025
-0.025
-0.025
-0.025
-0.015
-0.015
-0.015
-0.015
-0.01
-0.005
0.015
0.025
0.055
0.12
0.135
0.085
0.025
0.0
0.015
0.0
0.0
-0.01
0.0
-0.005
0.005
-0.35
-0.555
0.16
0.56
0.825
0.545
0.215
0.065
-0.025
-0.03
-0.055
-0.055
-0.07
-0.075
-0.085
-0.08
-0.09
-0.09
-0.105
-0.11
-0.125
-0.135
-0.155
-0.17
-0.19
-0.205
-0.235
-0.25
-0.27
-0.27
-0.27
-0.25
-0.215
-0.16
-0.1
-0.05
-0.015
-0.005
0.0
0.0
-0.01
-0.02
-0.02
-0.03
-0.035
-0.035
-0.035
-0.035
-0.04
-0.04
-0.035
-0.035
-0.035
-0.035
-0.03
-0.03
-0.03
-0.03
-0.025
-0.03
-0.025
-0.03
-0.02
-0.03
-0.02
-0.025
-0.02
-0.03
-0.025
-0.03
-0.02
-0.025
-0.02
-0.03
-0.02
-0.025
-0.015
-0.02
-0.01
-0.02
-0.01
-0.015
-0.005
-0.015
0.01
0.01
0.04
0.1
0.14
0.09
0.06
-0.005
0.025
0.01
0.015
-0.005
0.005
-0.015
0.055
-0.235
-0.55
-0.1
0.38
0.985
0.71
0.315
0.125
0.0
-0.005
-0.04
-0.03
-0.065
-0.05
-0.07
-0.055
-0.08
-0.07
-0.095
-0.085
-0.11
-0.115
-0.14
-0.14
-0.165
-0.18
-0.205
-0.215
-0.23
-0.225
-0.23
-0.215
-0.19
-0.145
-0.095
-0.035
-0.005
0.015
0.02
0.02
0.01
0.01
0.0
0.0
-0.01
-0.005
-0.015
-0.015
-0.02
-0.015
-0.01
-0.01
-0.015
-0.015
-0.01
-0.005
-0.005
0.0
0.0
0.0
0.005
0.0
0.0
0.01
0.0
0.01
0.015
0.01
0.0
0.01
0.005
0.01
0.005
0.015
0.015
0.015
0.02
0.015
0.025
0.02
0.025
0.03
0.06
0.115
0.145
0.145
0.115
0.045
0.035
0.045
0.03
0.025
0.015
0.015
0.05
-0.075
-0.47
-0.46
0.2
0.825
0.79
0.465
0.19
0.06
-0.015
-0.02
-0.04
-0.055
-0.06
-0.075
-0.075
-0.08
-0.085
-0.1
-0.105
-0.11
-0.125
-0.14
-0.15
-0.175
-0.185
-0.2
-0.22
-0.24
-0.255
-0.255
-0.245
-0.225
-0.18
-0.13
-0.07
-0.03
-0.005
0.005
0.01
0.005
-0.005
-0.015
-0.015
-0.015
-0.02
-0.02
-0.025
-0.03
-0.03
-0.03
-0.02
-0.02
-0.025
-0.02
-0.025
-0.02
-0.03
-0.005
-0.005
-0.005
-0.01
0.0
-0.01
0.0
-0.005
0.0
-0.005
0.0
-0.005
0.0
-0.015
0.0
0.015
0.01
0.0
0.035
0.035
0.07
0.125
0.165
0.115
0.085
0.015
0.035
0.02
0.025
0.005
0.01
0.0
0.075
-0.175
-0.465
-0.025
0.36
0.89
0.655
0.335
0.135
0.01
0.0
-0.03
-0.03
-0.05
-0.04
-0.055
-0.05
-0.065
-0.06
-0.085
-0.075
-0.095
-0.1
-0.125
-0.13
-0.155
-0.175
-0.2
-0.215
-0.23
-0.235
-0.235
-0.215
-0.185
-0.135
-0.08
-0.025
0.005
0.025
0.025
0.02
0.015
0.005
0.0
0.0
-0.005
-0.01
-0.01
-0.01
-0.015
-0.01
-0.01
-0.015
-0.01
-0.01
-0.005
-0.01
-0.005
0.0
0.0
0.0
0.0
0.0
0.0
0.0
0.005
0.005
0.005
0.0
0.01
0.01
0.015
0.01
0.015
0.015
0.02
0.015
0.035
0.045
0.08
0.125
0.155
0.13
0.1
0.03
0.04
0.045
0.04
0.025
0.03
0.03
0.09
-0.06
-0.42
-0.28
0.29
0.91
0.76
0.44
0.17
0.05
0.015
-0.01
-0.01
-0.03
-0.03
-0.045
-0.045
-0.055
-0.055
-0.06
-0.065
-0.08
-0.085
-0.11
-0.12
-0.14
-0.155
-0.185
-0.195
-0.21
-0.215
-0.22
-0.205
-0.18
-0.13
-0.08
-0.02
0.015
0.04
0.05
0.05
0.045
0.03
0.025
0.02
0.015
0.015
0.01
0.005
0.005
0.0
0.0
0.005
0.0
0.005
0.005
0.01
0.01
0.015
0.01
0.02
0.02
0.02
0.025
0.02
0.02
0.025
0.015
0.02
0.02
0.02
0.02
0.025
0.025
0.025
0.025
0.025
0.02
0.03
0.025
0.03
0.025
0.03
0.03
0.055
0.065
0.1
0.155
0.175
0.125
0.07
0.035
0.06
0.04
0.025
0.025
0.035
0.02
0.01
-0.365
-0.57
0.085
0.59
0.945
0.625
0.26
0.11
0.005
-0.005
-0.02
-0.025
-0.05
-0.045
-0.055
-0.04
-0.06
-0.065
-0.075
-0.08
-0.1
-0.095
-0.12
-0.13
-0.145
-0.165
-0.18
-0.18
-0.2
-0.2
-0.19
-0.17
-0.135
-0.095
-0.045
0.0
0.02
0.035
0.04
0.03
0.025
0.02
0.005
0.0
0.0
0.0
0.0
0.0
0.0
0.0
0.005
0.0
0.005
0.0
0.01
0.01
0.01
0.02
0.005
0.01
0.02
0.025
0.02
0.02
0.03
0.015
0.02
0.025
0.03
0.02
0.025
0.025
0.03
0.025
0.035
0.035
0.025
0.035
0.065
0.075
0.11
0.16
0.2
0.15
0.09
0.035
0.075
0.05
0.055
0.04
0.045
0.025
0.045
-0.26
-0.52
0.035
0.47
0.855
0.575
0.26
0.13
0.015
0.0
-0.02
-0.015
-0.045
-0.035
-0.04
-0.045
-0.055
-0.05
-0.06
-0.075
-0.095
-0.1
-0.125
-0.135
-0.155
-0.17
-0.19
-0.21
-0.225
-0.24
-0.235
-0.22
-0.18
-0.125
-0.07
-0.01
0.025
0.04
0.04
0.035
0.025
0.015
0.005
0.005
0.0
0.0
-0.005
-0.005
-0.01
-0.01
-0.01
-0.01
-0.01
-0.005
-0.005
0.0
0.0
0.0
0.0
0.0
0.0
0.005
0.0
0.0
0.0
0.005
0.005
0.01
0.005
0.015
0.005
0.02
0.01
0.015
0.01
0.025
0.015
0.025
0.015
0.055
0.06
0.09
0.15
0.185
0.12
0.075
0.03
0.055
0.035
0.04
0.015
0.03
0.01
0.1
-0.2
-0.455
0.125
0.4
0.81
0.585
0.29
0.12
0.01
0.01
-0.01
-0.005
-0.03
-0.025
-0.04
-0.03
-0.05
-0.04
-0.06
-0.055
-0.08
-0.085
-0.11
-0.115
-0.145
-0.16
-0.19
-0.195
-0.215
-0.215
-0.215
-0.19
-0.16
-0.105
-0.05
0.0
0.03
0.045
0.045
0.045
0.03
0.02
0.015
0.01
0.01
0.005
0.005
0.0
0.0
0.0
0.0
0.0
0.0
0.0
0.005
0.005
0.01
0.005
0.005
0.005
0.005
0.005
0.01
0.005
0.01
0.01
0.005
0.005
0.01
0.005
0.01
0.005
0.005
0.01
0.005
0.01
0.01
0.01
0.015
0.015
0.015
0.02
0.02
0.03
0.045
0.07
0.12
0.155
0.135
0.11
0.04
0.035
0.055
0.03
0.03
0.025
0.03
0.07
0.0
-0.375
-0.41
0.245
0.775
0.76
0.485
0.2
0.065
0.01
0.0
-0.01
-0.02
-0.025
-0.03
-0.03
-0.035
-0.04
-0.045
-0.055
-0.065
-0.08
-0.09
-0.105
-0.12
-0.14
-0.16
-0.175
-0.195
-0.205
-0.2
-0.195
-0.17
-0.135
-0.08
-0.03
0.015
0.04
0.045
0.05
0.04
0.03
0.02
0.02
0.01
0.005
0.0
0.0
0.0
0.0
0.005
0.0
0.0
0.005
0.005
0.01
0.01
0.015
0.01
0.015
0.02
0.015
0.02
0.01
0.01
0.015
0.01
0.015
0.01
0.01
0.005
0.01
0.015
0.01
0.01
0.005
0.01
0.01
0.005
0.01
0.015
0.01
0.015
0.02
0.015
0.02
0.015
0.015
0.015
0.035
0.045
0.06
0.125
0.165
0.15
0.115
0.045
0.045
0.045
0.04
0.03
0.025
0.035
0.06
-0.05
-0.465
-0.515
0.14
0.75
0.805
0.505
0.215
0.075
0.0
-0.015
-0.02
-0.03
-0.04
-0.045
-0.05
-0.055
-0.055
-0.07
-0.08
-0.09
-0.095
-0.115
-0.12
-0.145
-0.15
-0.17
-0.19
-0.215
-0.22
-0.22
-0.205
-0.185
-0.15
-0.105
-0.05
0.005
0.03
0.045
0.035
0.04
0.025
0.02
0.015
0.0
0.0
0.005
0.0
-0.005
-0.005
0.0
0.0
-0.005
-0.005
0.0
0.0
0.0
0.01
0.0
0.005
0.015
0.005
0.005
0.005
0.01
0.015
0.01
0.015
0.01
0.02
0.015
0.02
0.015
0.02
0.02
0.02
0.015
0.025
0.025
0.025
0.025
0.035
0.025
0.045
0.06
0.085
0.13
0.17
0.165
0.14
0.06
0.055
0.06
0.045
0.035
0.045
0.04
0.075
-0.065
-0.455
-0.38
0.175
0.76
0.655
0.385
0.185
0.05
0.0
-0.015
-0.02
-0.04
-0.04
-0.045
-0.045
-0.055
-0.065
-0.075
-0.075
-0.09
-0.105
-0.12
-0.135
-0.16
-0.18
-0.21
-0.235
-0.26
-0.275
-0.29
-0.285
-0.255
-0.2
-0.135
-0.07
-0.015
0.015
0.025
0.03
0.02
0.015
0.005
0.0
0.0
0.0
-0.01
-0.01
-0.01
-0.01
-0.005
-0.01
-0.01
-0.005
-0.01
-0.005
-0.005
-0.005
-0.01
-0.005
0.0
-0.005
0.0
0.0
0.0
0.0
0.0
0.0
0.0
0.0
0.0
0.005
0.0
0.005
0.005
0.01
0.01
0.005
0.01
0.01
0.01
0.01
0.025
0.045
0.075
0.11
0.165
0.165
0.12
0.045
0.035
0.05
0.035
0.025
0.025
0.03
0.06
0.015
-0.33
-0.405
0.22
0.665
0.665
0.46
0.195
0.06
0.0
-0.005
-0.02
-0.025
-0.03
-0.04
-0.045
-0.045
-0.05
-0.055
-0.065
-0.075
-0.09
-0.11
-0.13
-0.15
-0.175
-0.195
-0.215
-0.24
-0.25
-0.255
-0.245
-0.22
-0.175
-0.115
-0.055
-0.005
0.015
0.02
0.02
0.01
0.005
0.0
-0.01
-0.01
-0.015
-0.02
-0.02
-0.02
-0.02
-0.025
-0.025
-0.02
-0.02
-0.02
-0.02
-0.015
-0.015
-0.015
-0.015
-0.01
-0.01
-0.01
-0.015
-0.015
-0.02
-0.015
-0.015
-0.015
-0.02
-0.015
-0.025
-0.02
-0.02
-0.015
-0.02
-0.01
-0.025
-0.015
-0.02
-0.01
-0.02
-0.01
-0.02
0.015
0.015
0.05
0.105
0.145
0.09
0.05
0.0
0.03
0.01
0.015
0.0
0.01
-0.01
0.07
-0.215
-0.5
0.015
0.37
0.885
0.635
0.305
0.12
0.0
0.0
-0.03
-0.025
-0.045
-0.03
-0.05
-0.035
-0.055
-0.045
-0.065
-0.06
-0.085
-0.085
-0.11
-0.115
-0.14
-0.155
-0.19
-0.2
-0.22
-0.215
-0.22
-0.205
-0.17
-0.12
-0.07
-0.01
0.015
0.035
0.045
0.05
0.035
0.025
0.015
0.015
0.01
0.01
0.0
0.0
0.0
0.0
0.0
0.0
0.0
0.0
0.0
0.0
0.0
0.005
0.01
0.01
0.005
0.005
0.005
0.0
0.005
0.01
0.005
0.0
0.0
0.0
0.0
0.005
0.0
0.0
0.005
0.005
0.0
0.005
0.0
0.005
0.01
0.005
0.0
0.01
0.005
0.015
0.025
0.035
0.055
0.105
0.155
0.15
0.1
0.035
0.025
0.035
0.015
0.01
0.005
0.015
0.025
-0.06
-0.46
-0.545
0.115
0.67
0.82
0.505
0.2
0.065
-0.025
-0.04
-0.055
-0.06
-0.075
-0.075
-0.075
-0.08
-0.09
-0.09
-0.105
-0.115
-0.12
-0.13
-0.14
-0.16
-0.175
-0.195
-0.215
-0.23
-0.235
-0.235
-0.24
-0.22
-0.175
-0.13
-0.07
-0.02
0.0
0.01
0.01
0.01
0.005
0.01
0.0
-0.015
-0.02
-0.02
-0.02
-0.015
-0.015
-0.03
-0.025
-0.02
-0.015
-0.02
-0.01
-0.01
-0.01
-0.01
-0.005
-0.005
-0.005
-0.01
-0.005
-0.005
-0.005
-0.005
0.0
-0.005
-0.005
0.0
0.0
0.0
-0.005
-0.005
0.0
-0.005
-0.005
0.0
0.0
0.0
0.0
0.0
0.0
0.0
0.0
0.0
0.0
0.01
0.005
0.01
0.0
0.01
0.0
0.01
0.0
0.035
0.04
0.07
0.135
0.17
0.11
0.07
0.02
0.04
0.03
0.03
0.015
0.025
0.01
0.1
-0.125
-0.45
-0.13
0.265
0.875
0.665
0.375
0.17
0.045
0.025
0.005
0.01
-0.01
0.0
-0.015
-0.005
-0.015
-0.01
-0.02
-0.02
-0.035
-0.035
-0.05
-0.055
-0.085
-0.105
-0.14
-0.145
-0.17
-0.175
-0.175
-0.16
-0.14
-0.09
-0.04
0.015
0.055
0.085
0.09
0.095
0.085
0.075
0.06
0.055
0.045
0.045
0.04
0.04
0.04
0.035
0.03
0.035
0.035
0.035
0.03
0.035
0.03
0.035
0.03
0.035
0.03
0.035
0.03
0.03
0.03
0.035
0.035
0.025
0.03
0.03
0.025
0.025
0.025
0.025
0.03
0.03
0.03
0.025
0.03
0.03
0.03
0.04
0.04
0.04
0.035
0.04
0.04
0.035
0.04
0.04
0.035
0.05
0.06
0.085
0.12
0.17
0.175
0.13
0.06
0.035
0.06
0.04
0.03
0.025
0.035
0.045
-0.045
-0.445
-0.515
0.115
0.675
0.78
0.485
0.205
0.07
-0.01
-0.025
-0.05
-0.055
-0.055
-0.055
-0.065
-0.08
-0.085
-0.095
-0.1
-0.12
-0.125
-0.14
-0.145
-0.165
-0.19
-0.21
-0.23
-0.245
-0.255
-0.265
-0.26
-0.24
-0.2
-0.15
-0.085
-0.03
0.0
0.01
0.015
0.01
-0.005
-0.005
-0.015
-0.02
-0.03
-0.03
-0.03
-0.03
-0.03
-0.03
-0.035
-0.035
-0.035
-0.035
-0.03
-0.03
-0.03
-0.03
-0.03
-0.03
-0.03
-0.025
-0.03
-0.035
-0.03
-0.035
-0.03
-0.025
-0.025
-0.025
-0.03
-0.025
-0.03
-0.025
-0.035
-0.03
-0.03
-0.025
-0.025
-0.02
-0.03
-0.02
-0.03
-0.02
-0.02
-0.015
-0.025
-0.01
-0.015
-0.005
-0.01
0.005
0.015
0.045
0.105
0.145
0.1
0.06
0.0
0.01
0.01
0.005
-0.01
0.0
-0.015
0.065
-0.12
-0.45
-0.235
0.195
0.78
0.615
0.365
0.14
0.005
-0.015
-0.045
-0.04
-0.06
-0.05
-0.06
-0.055
-0.075
-0.065
-0.09
-0.085
-0.105
-0.11
-0.13
-0.135
-0.17
-0.185
-0.21
-0.225
-0.25
-0.26
-0.265
-0.245
-0.225
-0.175
-0.115
-0.055
-0.005
0.015
0.02
0.025
0.015
0.01
0.005
0.0
0.0
-0.005
-0.005
0.0
-0.005
-0.005
-0.01
-0.01
-0.005
-0.005
-0.005
-0.005
0.0
-0.005
-0.005
-0.005
-0.005
0.0
0.0
0.0
0.0
0.0
0.0
-0.005
0.0
0.0
-0.005
0.0
0.0
0.0
0.0
0.0
0.0
0.0
0.01
0.0
0.0
0.0
0.0
0.0
0.0
0.005
0.01
0.01
0.01
0.015
0.015
0.02
0.015
0.01
0.02
0.02
0.025
0.025
0.055
0.065
0.105
0.165
0.185
0.12
0.06
0.05
0.065
0.045
0.04
0.03
0.055
0.03
0.01
-0.355
-0.53
0.105
0.535
0.86
0.59
0.26
0.115
0.0
0.0
-0.03
-0.035
-0.045
-0.04
-0.045
-0.04
-0.045
-0.055
-0.075
-0.07
-0.09
-0.095
-0.105
-0.115
-0.13
-0.15
-0.165
-0.18
-0.195
-0.195
-0.185
-0.165
-0.135
-0.08
-0.025
0.03
0.055
0.07
0.07
0.075
0.055
0.045
0.03
0.025
0.025
0.02
0.02
0.02
0.01
0.015
0.0
0.005
0.015
0.005
0.005
0.005
0.005
0.005
0.01
0.005
0.015
0.015
0.015
0.015
0.01
0.02
0.01
0.01
0.01
0.01
0.01
0.0
0.0
0.0
0.01
0.005
0.005
0.005
0.0
0.005
0.0
0.005
0.01
0.01
0.01
0.005
0.005
0.005
0.005
0.005
0.005
0.005
0.005
0.01
0.01
0.01
0.015
0.02
0.015
0.03
0.04
0.07
0.125
0.17
0.145
0.1
0.035
0.035
0.045
0.03
0.025
0.025
0.035
0.07
-0.01
-0.37
-0.355
0.285
0.79
0.72
0.505
0.22
0.075
0.01
-0.005
-0.015
-0.03
-0.035
-0.04
-0.04
-0.045
-0.05
-0.045
-0.025
-0.06
-0.065
-0.09
-0.095
-0.11
-0.135
-0.16
-0.18
-0.195
-0.21
-0.205
-0.195
-0.175
-0.125
-0.065
-0.01
0.025
0.05
0.07
0.065
0.06
0.05
0.04
0.03
0.02
0.02
0.02
0.02
0.01
0.005
0.0
0.0
0.005
0.005
0.005
0.01
0.02
0.02
0.03
0.025
0.02
0.02
0.02
0.025
0.02
0.02
0.025
0.025
0.015
0.015
0.005
0.01
0.015
0.01
0.01
0.005
0.0
0.0
0.005
-0.005
0.0
0.01
0.005
0.015
0.0
0.0
0.01
0.0
-0.005
0.0
0.0
0.005
0.0
0.0
0.0
0.0
0.0
0.0
0.01
0.005
0.0
0.005
0.0
0.0
0.01
0.01
0.005
0.01
0.01
0.025
0.03
0.055
0.06
0.115
0.155
0.17
0.11
0.055
0.025
0.075
0.05
0.025
0.01
0.04
-0.015
0.03
-0.285
-0.45
0.065
0.385
0.835
0.57
0.275
0.13
0.01
-0.01
-0.005
-0.01
-0.04
-0.03
-0.05
-0.05
-0.055
-0.06
-0.075
-0.075
-0.08
-0.085
-0.1
-0.105
-0.125
-0.13
-0.12
-0.19
-0.195
-0.19
-0.18
-0.165
-0.13
-0.075
-0.025
0.025
0.055
0.07
0.065
0.055
0.045
0.04
0.035
0.03
0.025
0.015
0.03
0.04
0.015
0.02
0.02
0.0
0.01
0.005
0.01
0.01
0.025
0.01
0.01
0.0
0.01
0.0
0.015
0.025
0.065
0.045
0.0
0.0
0.16
0.225
-0.135
-0.075
-0.01
-0.005
0.0
0.0
0.01
0.0
0.015
0.0
0.005
0.005
0.01
0.005
0.01
0.005
0.01
0.005
0.015
0.015
0.015
0.005
0.01
0.005
0.015
0.01
0.01
0.01
0.015
0.015
0.02
0.01
0.01
0.01
0.005
0.0
0.01
0.005
0.01
0.01
0.015
0.015
0.045
0.06
0.08
0.155
0.195
0.135
0.095
0.045
0.055
0.055
0.045
0.035
0.035
0.04
0.085
0.025
-0.28
-0.235
0.3
0.72
0.665
0.495
0.22
0.08
0.025
0.005
0.0
-0.01
-0.01
-0.015
-0.01
-0.015
-0.02
-0.03
-0.025
-0.04
-0.045
-0.06
-0.07
-0.09
-0.105
-0.125
-0.145
-0.165
-0.175
-0.18
-0.17
-0.15
-0.105
-0.055
0.0
0.04
0.07
0.085
0.08
0.07
0.055
0.045
0.04
0.04
0.025
0.02
0.01
0.005
0.005
0.0
0.0
0.005
0.01
0.0
0.0
0.0
0.01
0.01
0.005
0.01
0.015
0.015
0.015
0.02
0.01
0.01
0.015
0.005
0.015
0.01
0.01
0.01
0.0
0.01
0.0
0.0
0.0
0.005
0.005
0.0
0.0
0.0
0.0
0.0
0.0
0.0
0.0
0.0
0.0
0.0
0.0
0.0
0.005
0.0
0.005
0.005
0.0
0.005
0.01
0.01
0.01
0.005
0.02
0.01
0.01
0.03
0.04
0.06
0.125
0.165
0.15
0.105
0.04
0.035
0.045
0.03
0.025
0.03
0.03
0.04
-0.035
-0.395
-0.4
0.17
0.62
0.745
0.495
0.22
0.08
0.0
-0.025
-0.04
-0.04
-0.055
-0.055
-0.055
-0.06
-0.07
-0.08
-0.08
-0.08
-0.095
-0.105
-0.105
-0.13
-0.145
-0.16
-0.175
-0.2
-0.205
-0.215
-0.215
-0.185
-0.16
-0.1
-0.055
0.005
0.025
0.04
0.055
0.04
0.03
0.025
0.02
0.01
0.01
0.005
0.01
0.005
-0.005
0.0
0.0
-0.015
-0.01
-0.005
0.0
-0.005
-0.005
-0.005
0.0
0.0
-0.01
-0.01
-0.005
0.0
-0.015
-0.01
-0.01
-0.015
-0.01
-0.015
-0.015
-0.015
-0.015
-0.015
-0.015
-0.015
-0.02
-0.02
-0.015
-0.015
-0.01
-0.015
-0.005
-0.01
-0.01
-0.01
-0.005
-0.005
0.0
-0.005
0.0
-0.005
0.0
-0.005
0.0
0.0
0.02
0.04
0.085
0.145
0.165
0.1
0.035
0.01
0.035
0.01
0.01
0.0
0.01
0.0
0.025
-0.285
-0.405
0.205
0.45
0.715
0.535
0.25
0.095
0.0
-0.005
-0.025
-0.02
-0.04
-0.035
-0.045
-0.035
-0.045
-0.04
-0.055
-0.055
-0.065
-0.075
-0.09
-0.1
-0.125
-0.135
-0.165
-0.18
-0.2
-0.205
-0.2
-0.18
-0.15
-0.1
-0.04
0.01
0.04
0.055
0.06
0.06
0.045
0.04
0.035
0.025
0.02
0.025
0.02
0.015
0.015
0.01
0.01
0.005
0.005
0.005
0.005
0.005
0.005
0.005
0.01
0.01
0.01
0.015
0.015
0.01
0.01
0.01
0.015
0.01
0.01
0.01
0.015
0.01
0.01
0.015
0.01
0.005
0.005
0.005
0.005
0.01
0.005
0.015
0.01
0.01
0.01
0.015
0.02
0.015
0.015
0.02
0.02
0.02
0.02
0.03
0.025
0.03
0.025
0.035
0.03
0.035
0.035
0.045
0.04
0.04
0.03
0.04
0.035
0.07
0.075
0.11
0.165
0.2
0.135
0.07
0.045
0.07
0.05
0.05
0.025
0.04
0.015
0.105
-0.175
-0.46
-0.025
0.275
0.82
0.59
0.305
0.135
0.015
0.01
-0.02
-0.005
-0.03
-0.02
-0.035
-0.035
-0.05
-0.04
-0.06
-0.065
-0.075
-0.075
-0.115
-0.115
-0.14
-0.14
-0.165
-0.185
-0.205
-0.205
-0.21
-0.19
-0.17
-0.115
-0.075
-0.02
0.02
0.04
0.05
0.055
0.05
0.04
0.015
0.015
0.02
0.015
0.01
0.015
0.01
0.005
0.005
0.0
0.01
0.01
0.0
0.0
0.0
0.0
0.01
0.01
0.01
0.01
0.01
0.01
0.005
0.015
0.015
0.005
0.015
0.015
0.005
0.005
0.01
0.0
0.0
0.01
0.005
0.0
0.01
0.005
0.005
0.0
0.005
0.025
0.005
0.01
0.03
0.025
0.015
0.0
0.025
0.005
0.015
0.025
0.025
0.01
0.045
0.05
0.085
0.13
0.185
0.16
0.125
0.04
0.055
0.045
0.04
0.02
0.025
0.02
0.045
-0.065
-0.365
-0.245
0.165
0.655
0.625
0.385
0.18
0.065
-0.005
-0.025
-0.015
-0.045
-0.04
-0.04
-0.035
-0.065
-0.045
-0.05
-0.065
-0.085
-0.085
-0.085
-0.105
-0.13
-0.135
-0.15
-0.18
-0.205
-0.21
-0.205
-0.23
-0.195
-0.145
-0.09
-0.05
0.005
0.035
0.045
0.04
0.035
0.025
0.02
0.015
0.01
0.01
0.005
0.01
0.0
0.01
0.0
0.005
0.0
0.0
0.0
0.0
0.005
0.005
0.0
0.0
0.005
0.005
0.0
0.005
0.005
0.01
0.01
0.015
0.01
0.01
0.01
0.01
0.01
0.02
0.015
0.015
0.015
0.025
0.02
0.025
0.015
0.02
0.015
0.025
0.025
0.03
0.03
0.065
0.085
0.125
0.18
0.215
0.15
0.08
0.045
0.065
0.04
0.045
0.03
0.04
0.03
0.105
-0.175
-0.265
0.25
0.385
0.61
0.51
0.265
0.11
0.015
0.015
0.0
0.0
-0.015
-0.015
-0.025
-0.015
-0.025
-0.02
-0.035
-0.035
-0.05
-0.055
-0.08
-0.09
-0.12
-0.135
-0.165
-0.18
-0.195
-0.2
-0.2
-0.18
-0.14
-0.09
-0.04
0.015
0.045
0.06
0.065
0.06
0.045
0.04
0.035
0.03
0.025
0.025
0.02
0.015
0.015
0.015
0.01
0.01
0.01
0.01
0.01
0.015
0.015
0.02
0.02
0.025
0.025
0.03
0.03
0.03
0.025
0.03
0.025
0.025
0.03
0.025
0.03
0.025
0.025
0.025
0.03
0.025
0.025
0.02
0.03
0.02
0.03
0.02
0.035
0.03
0.035
0.025
0.06
0.065
0.1
0.16
0.19
0.14
0.09
0.045
0.065
0.055
0.055
0.035
0.045
0.025
0.125
-0.085
-0.415
-0.13
0.26
0.84
0.615
0.375
0.165
0.045
0.025
0.0
0.005
-0.01
-0.005
-0.025
-0.015
-0.03
-0.025
-0.04
-0.04
-0.06
-0.065
-0.085
-0.095
-0.125
-0.14
-0.17
-0.185
-0.205
-0.215
-0.225
-0.21
-0.19
-0.135
-0.075
-0.015
0.025
0.06
0.065
0.065
0.07
0.05
0.05
0.035
0.03
0.02
0.02
0.015
0.015
0.01
0.005
0.01
0.005
0.0
0.005
0.0
0.005
0.01
0.0
0.005
0.015
0.01
0.01
0.01
0.005
0.01
0.015
0.005
0.005
0.0
0.005
0.0
0.0
0.0
0.0
0.0
0.0
-0.005
0.0
-0.005
-0.005
-0.005
0.0
0.0
-0.005
0.0
0.0
0.0
-0.005
0.0
0.01
0.0
0.0
0.005
0.005
0.025
0.035
0.1
0.135
0.135
0.095
0.02
0.015
0.03
0.01
0.01
0.0
0.02
0.02
-0.035
-0.415
-0.495
0.125
0.575
0.8
0.52
0.225
0.08
-0.01
-0.025
-0.04
-0.05
-0.05
-0.05
-0.065
-0.07
-0.065
-0.06
-0.095
-0.09
-0.1
-0.105
-0.125
-0.125
-0.145
-0.155
-0.175
-0.19
-0.185
-0.2
-0.185
-0.17
-0.14
-0.105
-0.035
0.01
0.04
0.045
0.05
0.045
0.04
0.025
0.025
0.01
0.02
0.015
0.0
0.0
0.005
0.015
-0.01
0.0
0.0
0.0
0.0
0.0
-0.005
0.005
0.0
0.0
0.0
0.0
0.0
0.0
0.015
-0.01
0.0
0.0
0.0
-0.005
0.0
-0.005
0.02
-0.01
0.005
0.0
0.005
0.005
0.01
0.0
0.025
0.05
0.085
0.135
0.18
0.11
0.065
0.015
0.035
-0.005
0.01
-0.005
0.005
-0.025
0.005
-0.215
-0.325
0.1
0.235
0.685
0.47
0.225
0.095
-0.02
-0.035
-0.06
-0.05
-0.07
-0.06
-0.075
-0.06
-0.08
-0.065
-0.08
-0.075
-0.085
-0.08
-0.1
-0.1
-0.12
-0.125
-0.145
-0.16
-0.175
-0.175
-0.175
-0.155
-0.13
-0.075
-0.025
0.02
0.045
0.065
0.06
0.06
0.045
0.035
0.03
0.03
0.025
0.025
0.025
0.02
0.01
0.015
0.015
0.01
0.01
0.005
0.005
0.0
0.0
0.005
0.0
0.0
0.0
0.01
0.005
0.01
0.005
0.01
0.005
0.015
0.005
0.015
0.005
0.015
0.01
0.02
0.01
0.025
0.015
0.065
0.065
0.1
0.155
0.18
0.13
0.08
0.025
0.04
0.02
0.025
0.0
0.02
-0.005
0.1
-0.16
-0.33
0.245
0.37
0.71
0.56
0.305
0.12
0.0
0.005
-0.02
-0.015
-0.035
-0.025
-0.05
-0.035
-0.055
-0.04
-0.06
-0.055
-0.075
-0.075
-0.09
-0.1
-0.13
-0.14
-0.165
-0.18
-0.195
-0.2
-0.2
-0.185
-0.16
-0.1
-0.05
0.0
0.03
0.05
0.045
0.045
0.03
0.02
0.015
0.01
0.005
0.005
0.005
0.005
0.0
0.0
0.0
0.0
0.0
0.005
0.005
0.01
0.005
0.01
0.015
0.015
0.015
0.015
0.015
0.015
0.015
0.015
0.015
0.01
0.01
0.015
0.01
0.02
0.01
0.02
0.01
0.02
0.025
0.04
0.065
0.115
0.15
0.15
0.105
0.035
0.025
0.045
0.025
0.025
0.02
0.03
0.045
0.035
-0.34
-0.465
0.235
0.655
0.765
0.535
0.22
0.085
0.005
0.0
-0.015
-0.02
-0.03
-0.03
-0.04
-0.04
-0.045
-0.045
-0.06
-0.065
-0.085
-0.09
-0.11
-0.125
-0.15
-0.17
-0.19
-0.215
-0.225
-0.23
-0.225
-0.205
-0.16
-0.11
-0.05
0.0
0.025
0.045
0.045
0.045
0.03
0.025
0.015
0.015
0.01
0.005
0.0
0.0
0.0
0.0
0.0
0.005
0.0
0.0
0.0
0.01
0.01
0.02
0.01
0.01
0.01
0.015
0.015
0.01
0.005
0.01
0.005
0.01
0.005
0.01
0.0
0.01
0.0
0.005
0.005
0.01
0.0
0.03
0.04
0.075
0.125
0.155
0.09
0.045
0.005
0.03
0.005
0.015
0.0
0.005
-0.015
0.045
-0.23
-0.56
-0.135
0.3
0.905
0.67
0.3
0.125
-0.01
-0.02
-0.05
-0.06
-0.075
-0.065
-0.075
-0.075
-0.095
-0.08
-0.1
-0.1
-0.12
-0.125
-0.14
-0.14
-0.165
-0.175
-0.2
-0.195
-0.21
-0.21
-0.205
-0.195
-0.165
-0.11
-0.065
-0.015
0.01
0.02
0.02
0.025
0.01
0.005
0.0
0.0
-0.01
-0.015
-0.015
-0.01
-0.01
-0.02
-0.015
-0.02
-0.015
-0.015
-0.02
0.0
-0.005
-0.015
-0.005
0.0
-0.005
-0.005
-0.005
0.005
0.0
-0.005
0.0
0.0
0.0
0.0
0.02
0.025
0.05
0.12
0.145
0.13
0.11
0.01
0.01
0.015
0.01
-0.015
-0.005
0.0
0.01
-0.07
-0.355
-0.245
0.185
0.655
0.645
0.395
0.18
0.04
-0.04
-0.04
-0.05
-0.065
-0.06
-0.075
-0.075
-0.09
-0.08
-0.09
-0.095
-0.105
-0.11
-0.115
-0.125
-0.145
-0.15
-0.165
-0.185
-0.195
-0.195
-0.21
-0.195
-0.16
-0.12
-0.07
-0.025
0.015
0.025
0.03
0.025
0.015
0.005
0.0
-0.005
0.0
0.0
-0.005
-0.01
-0.01
-0.01
-0.01
-0.015
-0.01
-0.01
-0.005
-0.01
-0.005
-0.005
0.0
0.0
0.0
0.0
0.0
0.0
0.0
-0.005
0.005
0.0
0.035
0.035
0.075
0.13
0.16
0.135
0.1
0.02
0.02
0.01
0.005
-0.01
0.0
-0.005
0.05
-0.05
-0.285
-0.05
0.26
0.635
0.595
0.385
0.16
0.02
-0.01
-0.04
-0.04
-0.055
-0.045
-0.06
-0.05
-0.06
-0.055
-0.07
-0.065
-0.085
-0.085
-0.095
-0.1
-0.125
-0.145
-0.16
-0.17
-0.185
-0.185
-0.185
-0.17
-0.14
-0.095
-0.045
0.005
0.03
0.05
0.045
0.04
0.025
0.015
0.005
0.005
0.0
0.0
0.0
0.0
0.0
0.0
0.0
0.0
0.0
0.0
0.0
0.0
0.0
0.005
0.005
0.01
0.0
0.01
0.005
0.01
0.005
0.015
0.01
0.015
0.015
0.045
0.055
0.085
0.14
0.155
0.13
0.095
0.025
0.025
0.025
0.015
0.0
0.01
0.005
0.06
-0.01
-0.355
-0.3
0.24
0.71
0.69
0.435
0.175
0.04
0.0
-0.02
-0.03
-0.04
-0.04
-0.05
-0.05
-0.055
-0.055
-0.065
-0.07
-0.08
-0.095
-0.105
-0.12
-0.14
-0.16
-0.18
-0.2
-0.22
-0.23
-0.23
-0.215
-0.19
-0.145
-0.09
-0.035
0.0
0.03
0.03
0.025
0.01
0.01
0.0
0.0
0.0
-0.005
-0.01
-0.01
-0.015
-0.015
-0.015
-0.01
-0.005
-0.005
-0.005
0.0
0.0
0.0
0.0
0.005
0.005
0.01
0.01
0.015
0.01
0.01
0.01
0.015
0.01
0.015
0.035
0.045
0.075
0.145
0.15
0.125
0.085
0.025
0.03
0.035
0.02
0.015
0.01
0.01
0.045
-0.015
-0.41
-0.475
0.215
0.76
0.77
0.5
0.185
0.055
0.0
-0.02
-0.03
-0.04
-0.05
-0.055
-0.055
-0.055
-0.06
-0.07
-0.075
-0.085
-0.1
-0.11
-0.13
-0.145
-0.17
-0.19
-0.21
-0.225
-0.23
-0.23
-0.225
-0.2
-0.155
-0.1
-0.045
0.0
0.015
0.03
0.025
0.02
0.01
0.01
0.005
0.0
0.0
-0.005
-0.01
-0.005
-0.01
-0.005
-0.005
-0.005
-0.005
-0.005
0.0
0.0
0.0
0.0
0.005
0.0
0.0
0.0
0.0
0.005
-0.005
0.0
-0.005
-0.005
0.0
0.02
0.015
0.05
0.115
0.135
0.095
0.065
0.005
0.02
0.005
0.005
0.0
-0.005
0.0
0.04
-0.085
-0.485
-0.46
0.205
0.85
0.78
0.435
0.165
0.035
-0.025
-0.055
-0.055
-0.07
-0.075
-0.085
-0.075
-0.08
-0.1
-0.1
-0.105
-0.11
-0.125
-0.14
-0.145
-0.16
-0.18
-0.2
-0.2
-0.21
-0.215
-0.215
-0.195
-0.165
-0.125
-0.085
-0.03
0.0
0.015
0.01
0.015
0.0
-0.005
-0.02
-0.015
-0.015
-0.015
-0.02
-0.02
-0.02
-0.01
-0.015
-0.01
-0.015
-0.02
-0.02
-0.005
-0.005
-0.005
-0.01
0.0
0.0
0.0
-0.01
0.0
0.0
0.005
0.005
0.025
0.03
0.055
0.125
0.15
0.125
0.1
0.015
0.01
0.005
0.0
-0.01
-0.005
-0.01
0.02
-0.07
-0.38
-0.255
0.22
0.725
0.665
0.39
0.165
0.03
-0.02
-0.055
-0.06
-0.07
-0.06
-0.085
-0.07
-0.085
-0.08
-0.095
-0.095
-0.115
-0.115
-0.12
-0.14
-0.15
-0.16
-0.185
-0.19
-0.195
-0.2
-0.19
-0.175
-0.145
-0.105
-0.05
0.0
0.015
0.03
0.03
0.02
0.01
0.005
-0.005
0.0
0.0
-0.01
-0.01
-0.005
-0.01
-0.005
-0.005
-0.01
-0.01
-0.005
-0.005
0.0
0.0
0.005
0.0
0.0
0.0
0.005
0.0
0.01
0.0
0.01
0.015
0.05
0.065
0.11
0.145
0.165
0.12
0.05
0.015
0.035
0.005
0.01
0.0
0.005
0.0
0.05
-0.225
-0.31
0.265
0.445
0.71
0.535
0.235
0.085
-0.01
-0.02
-0.04
-0.04
-0.055
-0.05
-0.065
-0.05
-0.065
-0.06
-0.075
-0.08
-0.09
-0.095
-0.11
-0.12
-0.14
-0.155
-0.175
-0.185
-0.195
-0.195
-0.18
-0.155
-0.115
-0.06
-0.015
0.02
0.035
0.04
0.03
0.025
0.01
0.01
0.0
0.0
0.0
0.0
0.0
0.0
0.0
0.0
0.0
0.0
-0.005
0.0
0.0
0.005
0.005
0.015
0.005
0.02
0.015
0.02
0.01
0.02
0.01
0.02
0.02
0.06
0.06
0.095
0.15
0.17
0.115
0.055
0.015
0.04
0.015
0.02
0.005
0.02
0.0
0.095
-0.145
-0.43
-0.005
0.31
0.82
0.64
0.315
0.125
0.01
0.0
-0.025
-0.025
-0.045
-0.04
-0.06
-0.055
-0.065
-0.055
-0.075
-0.075
-0.1
-0.1
-0.12
-0.135
-0.155
-0.17
-0.195
-0.205
-0.215
-0.22
-0.22
-0.2
-0.165
-0.11
-0.06
-0.005
0.01
0.025
0.02
0.01
0.005
0.0
-0.005
-0.005
-0.01
-0.015
-0.015
-0.015
-0.015
-0.015
-0.015
-0.015
-0.01
-0.005
-0.005
0.0
0.0
0.0
0.005
0.005
0.005
0.005
0.01
0.005
0.01
0.01
0.015
0.015
0.04
0.045
0.07
0.135
0.155
0.12
0.08
0.025
0.035
0.03
0.025
0.01
0.02
0.02
0.07
-0.04
-0.44
-0.41
0.23
0.845
0.765
0.46
0.17
0.045
0.0
-0.02
-0.025
-0.045
-0.045
-0.05
-0.055
-0.06
-0.06
-0.07
-0.075
-0.09
-0.1
-0.115
-0.125
-0.145
-0.165
-0.18
-0.2
-0.21
-0.21
-0.21
-0.195
-0.17
-0.125
-0.07
-0.02
0.01
0.03
0.03
0.025
0.015
0.01
0.005
0.005
0.0
0.0
0.0
-0.005
-0.005
-0.005
-0.005
0.0
0.0
0.0
0.005
0.0
0.005
0.0
0.01
0.005
0.015
0.005
0.015
0.005
0.015
0.005
0.015
0.005
0.015
0.01
0.045
0.045
0.085
0.14
0.15
0.095
0.035
0.01
0.035
0.01
0.01
0.0
0.005
-0.01
0.04
-0.28
-0.57
-0.025
0.445
0.945
0.665
0.27
0.11
-0.01
-0.025
-0.045
-0.055
-0.075
-0.07
-0.08
-0.075
-0.085
-0.085
-0.1
-0.1
-0.12
-0.13
-0.14
-0.15
-0.17
-0.17
-0.19
-0.19
-0.195
-0.2
-0.185
-0.16
-0.13
-0.085
-0.04
0.0
0.015
0.03
0.03
0.02
-0.015
0.0
-0.01
-0.01
-0.02
-0.015
-0.02
-0.01
-0.01
-0.01
-0.01
-0.015
0.0
0.0
-0.01
0.0
0.0
0.005
0.01
0.005
0.005
0.0
0.0
0.02
0.005
0.025
0.045
0.065
0.125
0.145
0.135
0.115
0.02
0.025
0.01
0.0
-0.01
0.0
-0.01
0.03
-0.045
-0.365
-0.255
0.19
0.7
0.65
0.385
0.16
0.025
-0.02
-0.045
-0.05
-0.055
-0.06
-0.075
-0.065
-0.065
-0.065
-0.085
-0.08
-0.1
-0.095
-0.105
-0.115
-0.13
-0.14
-0.16
-0.16
-0.175
-0.18
-0.17
-0.145
-0.12
-0.075
-0.025
0.015
0.035
0.04
0.04
0.025
0.015
0.015
0.005
0.0
0.0
0.0
0.0
-0.005
0.0
0.0
-0.005
0.0
0.0
0.0
-0.005
0.0
0.0
0.01
0.005
0.005
0.0
0.01
0.005
0.01
0.005
0.055
0.05
0.08
0.14
0.17
0.13
0.085
0.015
0.035
0.01
0.015
0.0
0.005
-0.01
0.07
-0.125
-0.335
0.1
0.29
0.745
0.575
0.29
0.125
0.0
-0.005
-0.035
-0.03
-0.055
-0.045
-0.06
-0.045
-0.06
-0.055
-0.075
-0.07
-0.09
-0.085
-0.105
-0.105
-0.135
-0.13
-0.155
-0.16
-0.155
-0.15
-0.145
-0.125
-0.095
-0.04
0.0
0.03
0.04
0.035
0.025
0.015
0.0
0.0
-0.01
-0.005
-0.01
-0.015
-0.02
-0.015
-0.015
-0.01
-0.015
-0.01
-0.005
0.0
-0.005
0.0
0.0
0.01
0.0
0.005
0.0
0.015
0.005
0.045
0.04
0.075
0.13
0.16
0.125
0.1
0.015
0.03
0.01
0.01
-0.005
0.005
0.0
0.07
-0.07
-0.36
-0.105
0.185
0.73
0.615
0.35
0.145
0.01
0.0
-0.03
-0.03
-0.045
-0.045
-0.06
-0.05
-0.065
-0.065
-0.085
-0.09
-0.095
-0.09
-0.12
-0.125
-0.15
-0.15
-0.185
-0.185
-0.19
-0.18
-0.175
-0.155
-0.12
-0.075
-0.03
0.0
0.015
0.03
0.0
0.0
0.0
-0.005
-0.01
-0.005
-0.01
-0.02
-0.02
-0.025
-0.025
-0.015
-0.03
-0.015
0.0
-0.015
-0.01
-0.005
0.0
0.01
0.0
0.0
0.0
0.01
0.035
0.06
0.11
0.145
0.155
0.13
0.03
0.01
0.01
0.0
-0.01
0.0
0.0
0.03
-0.005
-0.315
-0.3
0.12
0.535
0.62
0.385
0.155
0.025
-0.025
-0.035
-0.045
-0.055
-0.065
-0.07
-0.07
-0.08
-0.075
-0.085
-0.085
-0.095
-0.11
-0.115
-0.125
-0.14
-0.15
-0.155
-0.165
-0.165
-0.17
-0.16
-0.145
-0.105
-0.075
-0.02
0.01
0.03
0.035
0.025
0.02
0.0
0.005
-0.005
-0.005
-0.005
0.0
-0.01
0.0
0.0
0.0
-0.02
0.005
0.005
0.005
0.005
0.02
0.015
0.015
0.02
0.03
0.025
0.05
0.065
0.11
0.17
0.205
0.155
0.095
0.04
0.06
0.02
0.025
0.005
0.015
0.0
0.07
-0.165
-0.33
0.125
0.285
0.685
0.51
0.245
0.1
0.0
0.0
-0.03
-0.03
-0.05
-0.04
-0.055
-0.045
-0.06
-0.06
-0.075
-0.075
-0.09
-0.09
-0.11
-0.115
-0.13
-0.14
-0.15
-0.16
-0.16
-0.15
-0.14
-0.11
-0.075
-0.035
0.005
0.035
0.035
0.04
0.03
0.02
0.01
0.005
0.0
0.0
0.0
0.0
0.0
0.0
0.0
-0.005
0.0
0.0
0.0
0.01
0.015
0.01
0.02
0.015
0.02
0.03
0.06
0.08
0.12
0.16
0.165
0.13
0.04
0.03
0.04
0.02
0.015
0.01
0.015
0.025
0.04
-0.3
-0.405
0.19
0.56
0.685
0.485
0.195
0.06
-0.005
-0.015
-0.035
-0.04
-0.055
-0.055
-0.065
-0.065
-0.065
-0.075
-0.085
-0.09
-0.105
-0.12
-0.135
-0.155
-0.17
-0.18
-0.2
-0.215
-0.21
-0.205
-0.185
-0.145
-0.11
-0.05
-0.01
0.01
0.02
0.02
0.005
0.0
-0.005
-0.005
-0.01
-0.015
-0.01
-0.015
-0.015
-0.015
-0.01
-0.015
-0.015
-0.005
0.0
0.0
0.005
0.005
0.01
0.005
0.04
0.045
0.07
0.13
0.16
0.135
0.105
0.025
0.035
0.02
0.02
0.005
0.015
0.005
0.06
-0.05
-0.41
-0.3
0.175
0.73
0.655
0.395
0.165
0.03
0.0
-0.025
-0.035
-0.055
-0.055
-0.065
-0.065
-0.07
-0.065
-0.08
-0.085
-0.105
-0.11
-0.12
-0.13
-0.15
-0.16
-0.185
-0.19
-0.205
-0.195
-0.19
-0.17
-0.135
-0.075
-0.03
0.005
0.02
0.025
0.025
0.015
0.005
0.0
0.0
0.0
-0.005
0.0
-0.005
-0.005
-0.01
0.0
-0.005
0.0
0.0
0.005
0.0
0.01
0.005
0.02
0.015
0.055
0.055
0.09
0.15
0.18
0.12
0.07
0.025
0.05
0.025
0.03
0.01
0.02
0.0
0.095
-0.165
-0.46
0.04
0.315
0.785
0.595
0.275
0.115
0.005
0.0
-0.025
-0.02
-0.04
-0.03
-0.055
-0.045
-0.06
-0.055
-0.07
-0.075
-0.09
-0.095
-0.12
-0.13
-0.16
-0.165
-0.19
-0.19
-0.205
-0.195
-0.19
-0.16
-0.125
-0.07
-0.02
0.01
0.025
0.025
0.015
0.01
0.005
0.0
0.0
-0.005
-0.005
-0.005
-0.01
-0.01
-0.005
0.0
0.0
0.0
0.0
0.01
0.01
0.02
0.015
0.025
0.025
0.055
0.055
0.085
0.145
0.16
0.125
0.085
0.02
0.04
0.035
0.03
0.015
0.03
0.02
0.085
-0.035
-0.43
-0.33
0.205
0.83
0.705
0.39
0.155
0.035
0.005
-0.02
-0.025
-0.045
-0.04
-0.055
-0.055
-0.065
-0.065
-0.08
-0.08
-0.1
-0.11
-0.125
-0.135
-0.16
-0.17
-0.19
-0.2
-0.215
-0.21
-0.2
-0.185
-0.15
-0.095
-0.045
0.0
0.01
0.015
0.01
0.01
0.005
0.0
0.0
0.0
-0.005
-0.005
-0.01
-0.01
-0.01
-0.01
-0.005
-0.005
0.0
0.01
0.015
0.01
0.015
0.02
0.02
0.025
0.025
0.02
0.025
0.02
0.025
0.045
0.055
0.075
0.145
0.16
0.135
0.085
0.03
0.04
0.04
0.025
0.03
0.025
0.035
0.045
0.045
-0.35
-0.545
0.175
0.695
0.84
0.565
0.22
0.09
0.01
0.005
-0.02
-0.02
-0.035
-0.035
-0.045
-0.045
-0.055
-0.06
-0.075
-0.08
-0.095
-0.105
-0.12
-0.13
-0.15
-0.165
-0.18
-0.185
-0.195
-0.19
-0.18
-0.15
-0.11
-0.055
-0.01
0.02
0.025
0.025
0.02
0.015
0.005
0.005
0.0
0.0
0.0
0.0
0.0
0.0
0.0
0.0
0.01
0.01
0.015
0.015
0.02
0.02
0.025
0.02
0.02
0.02
0.025
0.02
0.025
0.025
0.025
0.02
0.025
0.02
0.03
0.02
0.03
0.03
0.03
0.035
0.06
0.065
0.1
0.155
0.165
0.11
0.06
0.03
0.045
0.025
0.03
0.025
0.025
0.01
0.085
-0.105
-0.49
-0.32
0.26
0.965
0.73
0.37
0.16
0.03
0.005
-0.015
-0.025
-0.045
-0.04
-0.055
-0.055
-0.065
-0.065
-0.075
-0.075
-0.1
-0.105
-0.13
-0.125
-0.14
-0.165
-0.17
-0.175
-0.18
-0.18
-0.18
-0.16
-0.13
-0.08
-0.045
0.0
0.02
0.025
0.025
0.02
0.005
0.0
-0.01
-0.01
-0.01
-0.015
-0.015
-0.01
-0.005
-0.01
-0.005
-0.01
0.0
0.0
0.0
0.0
0.0
0.005
0.0
0.0
0.005
0.015
0.0
0.01
0.01
0.015
0.015
0.015
0.01
0.015
0.01
0.02
0.02
0.015
0.015
0.01
0.02
0.045
0.055
0.07
0.14
0.17
0.125
0.085
0.02
0.055
0.035
0.03
0.015
0.03
0.0
0.065
-0.115
-0.48
-0.31
0.21
0.885
0.67
0.335
0.155
0.025
0.0
-0.03
-0.035
-0.04
-0.045
-0.05
-0.065
-0.065
-0.07
-0.095
-0.085
-0.1
-0.11
-0.125
-0.135
-0.155
-0.16
-0.18
-0.185
-0.205
-0.2
-0.195
-0.175
-0.135
-0.095
-0.035
0.0
0.025
0.035
0.025
0.015
0.01
0.0
-0.005
-0.005
-0.015
-0.02
-0.02
-0.02
-0.025
-0.025
-0.025
-0.015
-0.015
-0.02
-0.015
-0.015
-0.015
-0.015
-0.015
-0.01
-0.005
-0.005
-0.01
-0.005
-0.005
-0.01
-0.005
0.0
-0.005
-0.005
-0.005
0.0
0.0
0.0
0.0
0.0
0.0
0.005
0.015
0.035
0.06
0.1
0.145
0.145
0.11
0.035
0.03
0.035
0.02
0.01
0.01
0.015
0.035
-0.005
-0.335
-0.375
0.225
0.66
0.69
0.46
0.185
0.045
-0.01
-0.025
-0.035
-0.05
-0.05
-0.055
-0.06
-0.06
-0.065
-0.07
-0.08
-0.085
-0.09
-0.105
-0.115
-0.13
-0.15
-0.165
-0.18
-0.185
-0.185
-0.185
-0.17
-0.135
-0.09
-0.04
0.0
0.03
0.04
0.035
0.035
0.02
0.01
0.0
0.0
0.0
0.0
-0.01
-0.01
-0.01
-0.01
-0.01
-0.005
0.0
0.0
0.0
0.0
0.005
0.005
0.005
0.005
0.005
0.005
0.005
0.01
0.005
0.01
0.005
0.0
0.0
0.005
0.0
0.005
0.0
0.005
0.0
0.0
0.0
0.01
0.005
0.005
0.0
0.01
0.0
0.01
0.0
0.01
0.0
0.01
0.01
0.05
0.06
0.085
0.145
0.17
0.115
0.06
0.025
0.045
0.02
0.03
0.01
0.03
0.01
0.055
-0.27
-0.485
0.14
0.485
0.78
0.56
0.235
0.09
0.0
0.0
-0.02
-0.025
-0.035
-0.035
-0.055
-0.045
-0.06
-0.06
-0.07
-0.07
-0.09
-0.095
-0.115
-0.125
-0.145
-0.16
-0.18
-0.19
-0.2
-0.2
-0.19
-0.16
-0.125
-0.07
-0.02
0.02
0.035
0.04
0.035
0.025
0.015
0.01
0.0
0.0
-0.005
-0.01
-0.01
-0.005
-0.01
-0.01
-0.005
-0.005
-0.005
-0.005
0.0
0.0
0.0
0.0
0.0
0.0
0.0
0.0
0.0
0.005
0.005
0.0
0.0
0.0
0.0
0.0
0.0
0.0
0.0
0.0
0.0
0.0
0.005
0.0
0.005
0.0
0.01
0.0
0.01
0.005
0.01
0.01
0.01
0.01
0.035
0.04
0.07
0.125
0.16
0.115
0.08
0.015
0.04
0.03
0.03
0.01
0.02
0.005
0.07
-0.195
-0.495
-0.08
0.36
0.925
0.675
0.32
0.13
0.015
0.0
-0.025
-0.025
-0.045
-0.045
-0.055
-0.05
-0.065
-0.06
-0.08
-0.08
-0.1
-0.105
-0.125
-0.135
-0.155
-0.17
-0.19
-0.205
-0.215
-0.21
-0.215
-0.19
-0.15
-0.1
-0.045
0.0
0.025
0.035
0.045
0.03
0.02
0.01
0.005
0.0
0.0
-0.005
0.0
-0.005
-0.005
-0.01
-0.005
-0.005
0.0
0.0
0.0
0.0
0.0
0.005
0.01
0.005
0.01
0.005
0.01
0.005
0.005
0.005
0.005
0.005
0.005
0.005
0.005
0.005
0.005
0.01
0.01
0.01
0.01
0.01
0.01
0.015
0.005
0.015
0.01
0.015
0.01
0.02
0.015
0.045
0.055
0.075
0.15
0.17
0.125
0.065
0.035
0.055
0.035
0.035
0.025
0.03
0.025
0.02
-0.355
-0.54
0.165
0.62
0.905
0.63
0.255
0.105
0.015
0.005
-0.01
-0.015
-0.035
-0.035
-0.04
-0.045
-0.055
-0.06
-0.07
-0.075
-0.09
-0.095
-0.115
-0.13
-0.155
-0.17
-0.185
-0.19
-0.205
-0.205
-0.195
-0.165
-0.125
-0.07
-0.015
0.02
0.035
0.05
0.05
0.035
0.03
0.02
0.015
0.005
0.0
0.0
0.0
0.0
0.0
0.0
0.0
0.0
0.0
0.0
0.005
0.005
0.01
0.005
0.005
0.01
0.01
0.01
0.015
0.01
0.015
0.015
0.015
0.015
0.015
0.02
0.02
0.015
0.015
0.025
0.015
0.015
0.02
0.015
0.02
0.02
0.015
0.025
0.02
0.03
0.065
0.085
0.145
0.16
0.115
0.055
0.025
0.04
0.03
0.025
0.02
0.03
0.035
-0.055
-0.47
-0.55
0.185
0.79
0.85
0.52
0.215
0.07
-0.01
-0.02
-0.045
-0.05
-0.055
-0.065
-0.065
-0.07
-0.08
-0.085
-0.1
-0.11
-0.12
-0.125
-0.145
-0.155
-0.175
-0.185
-0.2
-0.21
-0.2
-0.205
-0.185
-0.16
-0.115
-0.075
-0.01
0.01
0.03
0.03
0.025
0.005
0.005
0.005
0.0
-0.005
-0.005
-0.01
-0.01
-0.015
-0.025
-0.015
-0.02
-0.015
-0.015
-0.02
-0.01
-0.01
-0.01
-0.01
-0.02
0.0
-0.005
-0.015
-0.005
0.0
0.0
-0.01
-0.01
0.005
-0.01
-0.005
0.0
0.0
-0.005
0.005
-0.005
0.015
0.03
0.045
0.1
0.135
0.145
0.115
0.025
0.015
0.01
0.005
0.0
0.0
-0.015
0.035
-0.1
-0.41
-0.21
0.225
0.77
0.635
0.36
0.155
0.005
-0.02
-0.035
-0.05
-0.07
-0.06
-0.07
-0.075
-0.06
-0.085
-0.1
-0.09
-0.105
-0.105
-0.135
-0.13
-0.15
-0.155
-0.175
-0.18
-0.19
-0.185
-0.19
-0.17
-0.13
-0.075
-0.025
0.005
0.025
0.03
0.03
0.015
0.01
0.005
0.0
0.0
0.0
-0.005
-0.005
-0.01
-0.005
-0.01
-0.01
-0.01
-0.01
-0.005
-0.01
-0.005
0.0
0.0
0.0
0.0
0.005
0.0
0.005
0.005
0.005
0.005
0.01
0.005
0.015
0.01
0.015
0.05
0.07
0.095
0.155
0.17
0.135
0.055
0.03
0.03
0.02
0.01
0.01
0.005
0.04
0.0
-0.28
-0.18
0.325
0.64
0.67
0.455
0.18
0.035
-0.01
-0.035
-0.045
-0.055
-0.065
-0.07
-0.075
-0.08
-0.075
-0.085
-0.085
-0.095
-0.105
-0.115
-0.125
-0.15
-0.17
-0.185
-0.2
-0.21
-0.215
-0.205
-0.185
-0.15
-0.1
-0.045
0.0
0.01
0.02
0.015
0.01
0.0
0.0
-0.01
-0.015
-0.02
-0.025
-0.03
-0.025
-0.03
-0.03
-0.035
-0.025
-0.03
-0.025
-0.025
-0.02
-0.025
-0.02
-0.025
-0.015
-0.02
-0.01
-0.02
-0.01
-0.02
-0.015
-0.02
-0.01
-0.015
-0.01
-0.01
0.025
0.025
0.06
0.12
0.14
0.085
0.025
-0.005
0.015
-0.005
0.0
-0.015
-0.005
-0.015
0.035
-0.305
-0.465
0.19
0.51
0.76
0.54
0.2
0.06
-0.03
-0.03
-0.055
-0.055
-0.07
-0.07
-0.08
-0.075
-0.09
-0.09
-0.105
-0.105
-0.12
-0.125
-0.15
-0.16
-0.185
-0.195
-0.215
-0.22
-0.235
-0.23
-0.215
-0.185
-0.14
-0.08
-0.035
0.0
0.01
0.015
0.005
0.005
-0.005
-0.005
-0.01
-0.01
-0.015
-0.015
-0.02
-0.025
-0.025
-0.025
-0.025
-0.02
-0.02
-0.02
-0.01
-0.005
-0.005
0.0
0.0
0.0
0.005
0.005
0.01
0.005
0.01
0.01
0.015
0.01
0.015
0.015
0.02
0.02
0.055
0.06
0.09
0.15
0.165
0.11
0.05
0.03
0.055
0.03
0.035
0.025
0.035
0.01
0.075
-0.25
-0.495
0.115
0.495
0.905
0.645
0.275
0.11
0.01
0.005
-0.02
-0.02
-0.04
-0.035
-0.05
-0.045
-0.06
-0.06
-0.075
-0.075
-0.095
-0.1
-0.12
-0.135
-0.155
-0.175
-0.19
-0.205
-0.22
-0.21
-0.2
-0.17
-0.14
-0.08
-0.025
0.01
0.025
0.035
0.035
0.025
0.015
0.015
0.015
0.005
0.0
0.0
0.0
0.0
0.0
0.0
0.0
0.0
0.005
0.01
0.01
0.005
0.015
0.015
0.015
0.01
0.01
0.015
0.015
0.015
0.015
0.02
0.015
0.025
0.02
0.025
0.02
0.015
0.025
0.02
0.035
0.045
0.075
0.115
0.155
0.13
0.1
0.02
0.03
0.035
0.02
0.015
0.01
0.015
0.045
-0.03
-0.45
-0.545
0.18
0.83
0.825
0.49
0.18
0.04
-0.005
-0.025
-0.035
-0.05
-0.07
-0.07
-0.075
-0.075
-0.085
-0.09
-0.105
-0.115
-0.125
-0.135
-0.155
-0.17
-0.185
-0.195
-0.205
-0.215
-0.215
-0.205
-0.195
-0.165
-0.12
-0.075
-0.025
0.005
0.02
0.01
0.015
0.005
0.0
0.0
-0.015
-0.015
-0.015
-0.015
-0.015
-0.01
-0.015
-0.02
-0.015
-0.01
0.0
-0.005
0.0
-0.005
-0.005
0.0
0.0
0.0
0.005
0.0
0.0
0.005
0.005
0.0
0.0
0.005
0.0
0.01
0.0
0.015
0.005
0.035
0.05
0.08
0.135
0.165
0.12
0.07
0.015
0.04
0.02
0.015
0.0
0.015
-0.01
0.03
-0.25
-0.46
0.06
0.41
0.825
0.55
0.245
0.09
-0.005
-0.015
-0.045
-0.04
-0.065
-0.05
-0.06
-0.065
-0.07
-0.08
-0.095
-0.09
-0.115
-0.11
-0.125
-0.13
-0.155
-0.155
-0.19
-0.19
-0.195
-0.19
-0.18
-0.145
-0.115
-0.06
-0.015
0.005
0.02
0.03
0.02
0.01
0.005
0.0
-0.005
0.0
0.0
-0.005
-0.005
-0.01
-0.01
-0.01
-0.005
-0.005
0.0
0.0
0.0
0.0
0.005
0.0
0.015
0.0
0.01
0.01
0.015
0.01
0.02
0.015
0.02
0.01
0.025
0.01
0.02
0.02
0.05
0.055
0.085
0.145
0.165
0.14
0.115
0.03
0.045
0.025
0.03
0.005
0.02
0.0
0.08
-0.085
-0.305
0.05
0.33
0.805
0.63
0.35
0.14
0.01
-0.005
-0.035
-0.03
-0.055
-0.05
-0.065
-0.06
-0.07
-0.065
-0.075
-0.075
-0.095
-0.1
-0.12
-0.12
-0.145
-0.155
-0.18
-0.19
-0.2
-0.195
-0.19
-0.17
-0.135
-0.08
-0.04
0.005
0.01
0.02
0.01
0.0
-0.005
-0.005
-0.015
-0.015
-0.02
-0.025
-0.02
-0.025
-0.02
-0.02
-0.02
-0.025
-0.015
-0.02
-0.015
-0.015
-0.01
-0.005
0.0
0.0
0.0
0.0
0.0
0.0
0.0
0.0
0.0
0.0
0.0
0.0
0.0
0.0
0.005
0.0
0.0
0.0
0.005
0.0
0.025
0.035
0.065
0.12
0.145
0.115
0.085
0.01
0.03
0.025
0.015
0.005
0.015
0.005
0.065
-0.065
-0.37
-0.18
0.305
0.85
0.695
0.415
0.155
0.03
0.005
-0.015
-0.02
-0.035
-0.035
-0.05
-0.045
-0.05
-0.055
-0.06
-0.07
-0.075
-0.09
-0.105
-0.115
-0.135
-0.155
-0.17
-0.185
-0.195
-0.195
-0.19
-0.175
-0.145
-0.1
-0.05
-0.01
0.015
0.025
0.03
0.015
0.01
0.0
0.0
-0.01
-0.005
-0.015
-0.015
-0.02
-0.02
-0.025
-0.015
-0.02
-0.015
-0.015
-0.01
-0.01
-0.005
-0.005
-0.005
-0.005
-0.01
-0.015
-0.005
-0.01
-0.005
-0.005
-0.01
-0.005
-0.01
-0.015
-0.01
-0.01
-0.01
-0.005
-0.01
-0.005
-0.005
0.0
0.0
0.015
0.035
0.065
0.12
0.125
0.08
0.01
0.0
0.015
0.0
0.0
-0.005
0.0
0.0
-0.01
-0.38
-0.48
0.225
0.665
0.815
0.53
0.19
0.05
-0.02
-0.035
-0.055
-0.06
-0.07
-0.075
-0.085
-0.085
-0.09
-0.095
-0.11
-0.115
-0.13
-0.14
-0.155
-0.17
-0.19
-0.205
-0.22
-0.23
-0.245
-0.24
-0.23
-0.2
-0.165
-0.105
-0.055
-0.02
0.0
0.0
0.0
-0.01
-0.015
-0.025
-0.025
-0.03
-0.035
-0.035
-0.035
-0.04
-0.04
-0.04
-0.035
-0.035
-0.035
-0.03
-0.035
-0.03
-0.03
-0.025
-0.03
-0.02
-0.02
-0.02
-0.02
-0.01
-0.015
-0.015
-0.015
-0.01
-0.015
-0.01
-0.02
-0.005
-0.015
-0.01
-0.015
-0.005
-0.005
0.02
0.03
0.055
0.115
0.14
0.085
0.035
0.0
0.025
0.005
0.005
-0.005
0.005
0.0
0.025
-0.32
-0.57
0.12
0.54
0.905
0.63
0.24
0.09
-0.01
-0.015
-0.04
-0.04
-0.06
-0.06
-0.075
-0.065
-0.08
-0.075
-0.095
-0.095
-0.11
-0.115
-0.14
-0.15
-0.175
-0.19
-0.21
-0.215
-0.225
-0.22
-0.215
-0.19
-0.15
-0.095
-0.045
0.0
0.015
0.02
0.015
0.01
0.0
0.0
-0.005
-0.01
-0.02
-0.015
-0.02
-0.025
-0.025
-0.02
-0.02
-0.02
-0.015
-0.01
-0.01
-0.01
-0.01
-0.01
-0.01
-0.01
-0.01
-0.005
-0.005
0.0
-0.005
-0.005
-0.005
-0.005
-0.005
-0.005
-0.01
0.0
0.0
0.0
0.0
0.03
0.015
0.055
0.105
0.14
0.105
0.08
0.015
0.03
0.015
0.015
0.005
0.005
0.0
0.045
-0.155
-0.525
-0.3
0.29
0.995
0.745
0.37
0.15
0.01
-0.02
-0.05
-0.045
-0.07
-0.065
-0.075
-0.08
-0.095
-0.09
-0.1
-0.105
-0.13
-0.13
-0.15
-0.155
-0.17
-0.18
-0.2
-0.215
-0.215
-0.22
-0.215
-0.18
-0.15
-0.11
-0.055
-0.005
0.005
0.015
0.025
0.02
0.0
-0.005
0.0
-0.005
-0.015
-0.01
-0.025
-0.015
-0.01
-0.015
-0.015
-0.01
-0.005
-0.005
-0.005
0.0
0.0
0.0
0.005
0.0
0.005
0.01
0.01
0.005
0.01
0.0
0.01
0.005
0.0
0.01
0.02
0.055
0.04
0.085
0.145
0.155
0.125
0.055
0.015
0.035
0.01
0.015
0.005
0.015
0.005
0.005
-0.32
-0.41
0.175
0.595
0.75
0.475
0.195
0.06
-0.015
-0.035
-0.05
-0.06
-0.06
-0.065
-0.08
-0.075
-0.085
-0.095
-0.1
-0.11
-0.125
-0.13
-0.15
-0.15
-0.175
-0.185
-0.2
-0.205
-0.215
-0.205
-0.195
-0.16
-0.11
-0.055
-0.005
0.015
0.035
0.03
0.025
0.015
0.01
0.01
0.005
0.0
-0.005
-0.005
-0.01
-0.005
-0.005
-0.01
-0.01
-0.01
-0.01
-0.005
-0.005
0.0
-0.005
0.0
0.0
0.0
0.0
0.0
0.0
0.005
0.0
0.01
0.0
0.01
0.0
0.045
0.045
0.085
0.14
0.165
0.125
0.095
0.02
0.035
0.02
0.02
0.0
0.015
0.0
0.085
-0.125
-0.35
0.1
0.345
0.82
0.625
0.33
0.125
0.0
0.0
-0.03
-0.03
-0.055
-0.04
-0.065
-0.06
-0.07
-0.065
-0.085
-0.075
-0.1
-0.1
-0.12
-0.13
-0.15
-0.16
-0.185
-0.19
-0.21
-0.2
-0.195
-0.17
-0.13
-0.07
-0.02
0.015
0.035
0.035
0.03
0.02
0.01
0.0
0.0
0.0
-0.005
-0.01
-0.01
-0.015
-0.01
-0.01
-0.015
-0.01
-0.01
-0.005
-0.005
-0.005
0.0
0.0
0.005
0.0
0.005
0.0
0.005
0.005
0.01
0.005
0.015
0.01
0.015
0.01
0.04
0.045
0.08
0.135
0.16
0.13
0.1
0.025
0.035
0.035
0.03
0.015
0.015
0.01
0.085
-0.065
-0.405
-0.195
0.285
0.845
0.705
0.395
0.145
0.025
0.0
-0.025
-0.03
-0.045
-0.045
-0.055
-0.055
-0.06
-0.06
-0.075
-0.08
-0.095
-0.105
-0.12
-0.135
-0.15
-0.17
-0.185
-0.2
-0.21
-0.21
-0.205
-0.19
-0.15
-0.095
-0.045
0.0
0.025
0.035
0.03
0.025
0.02
0.01
0.0
0.0
0.0
0.0
-0.005
-0.005
-0.005
0.0
-0.005
0.0
0.0
0.0
0.0
0.0
0.005
0.01
0.01
0.01
0.01
0.01
0.015
0.01
0.015
0.01
0.015
0.01
0.015
0.01
0.02
0.02
0.05
0.065
0.09
0.15
0.16
0.11
0.04
0.02
0.045
0.025
0.025
0.02
0.025
0.015
0.045
-0.31
-0.5
0.18
0.595
0.88
0.615
0.245
0.095
0.005
-0.005
-0.025
-0.03
-0.04
-0.04
-0.055
-0.045
-0.06
-0.06
-0.075
-0.08
-0.1
-0.105
-0.125
-0.14
-0.16
-0.17
-0.195
-0.2
-0.21
-0.205
-0.2
-0.17
-0.13
-0.075
-0.025
0.01
0.03
0.03
0.025
0.015
0.01
0.005
0.005
0.0
0.0
-0.005
-0.005
-0.01
-0.01
-0.005
-0.005
-0.005
0.0
0.0
0.0
0.005
0.0
0.01
0.01
0.005
0.005
0.005
0.005
0.01
0.005
0.01
0.015
0.005
0.01
0.005
0.015
0.01
0.035
0.04
0.065
0.12
0.16
0.125
0.095
0.025
0.04
0.03
0.025
0.01
0.02
0.01
0.06
-0.08
-0.485
-0.405
0.245
0.95
0.79
0.43
0.16
0.035
-0.005
-0.035
-0.035
-0.055
-0.055
-0.065
-0.065
-0.075
-0.075
-0.095
-0.095
-0.11
-0.115
-0.13
-0.14
-0.16
-0.165
-0.19
-0.2
-0.2
-0.195
-0.185
-0.165
-0.13
-0.095
-0.035
0.01
0.02
0.03
0.035
0.025
0.01
0.01
0.0
0.005
0.0
0.0
0.0
-0.005
-0.005
0.0
-0.005
-0.005
-0.01
0.0
0.0
0.005
0.005
0.005
0.0
0.015
0.01
0.005
0.01
0.015
0.005
0.015
0.005
0.01
0.01
0.015
0.01
0.015
0.015
0.045
0.05
0.08
0.14
0.165
0.11
0.05
0.005
0.035
0.01
0.015
0.0
0.01
0.0
0.035
-0.275
-0.49
0.06
0.455
0.865
0.585
0.24
0.105
-0.01
-0.02
-0.035
-0.045
-0.06
-0.065
-0.07
-0.07
-0.09
-0.085
-0.1
-0.1
-0.115
-0.115
-0.135
-0.145
-0.165
-0.17
-0.19
-0.19
-0.205
-0.195
-0.18
-0.15
-0.105
-0.05
-0.005
0.025
0.045
0.055
0.045
0.03
0.025
0.02
0.015
0.015
0.01
0.005
0.0
0.0
0.005
0.0
0.0
0.0
0.0
0.0
0.005
0.0
0.005
0.005
0.01
0.01
0.015
0.01
0.01
0.005
0.01
0.01
0.015
0.005
0.01
0.005
0.015
0.005
0.015
0.005
0.02
0.005
0.015
0.01
0.05
0.055
0.085
0.135
0.165
0.12
0.09
0.025
0.045
0.035
0.035
0.01
0.02
0.005
0.09
-0.1
-0.365
-0.015
0.315
0.84
0.62
0.35
0.155
0.025
0.01
-0.02
-0.02
-0.035
-0.035
-0.055
-0.045
-0.06
-0.055
-0.075
-0.07
-0.09
-0.095
-0.115
-0.125
-0.15
-0.16
-0.185
-0.19
-0.205
-0.2
-0.2
-0.175
-0.125
-0.075
-0.035
0.005
0.03
0.035
0.03
0.025
0.01
0.005
0.0
0.0
0.0
0.0
0.0
0.0
0.0
0.0
0.0
0.0
0.0
0.005
0.01
0.005
0.01
0.015
0.01
0.01
0.015
0.015
0.02
0.015
0.02
0.015
0.015
0.015
0.02
0.02
0.025
0.02
0.03
0.02
0.035
0.025
0.03
0.025
0.035
0.035
0.06
0.08
0.115
0.16
0.175
0.125
0.055
0.035
0.06
0.035
0.04
0.03
0.04
0.035
0.04
-0.315
-0.43
0.26
0.66
0.845
0.585
0.235
0.095
0.015
0.005
-0.015
-0.01
-0.025
-0.025
-0.035
-0.035
-0.045
-0.05
-0.055
-0.06
-0.075
-0.085
-0.105
-0.12
-0.145
-0.16
-0.18
-0.19
-0.195
-0.19
-0.18
-0.145
-0.1
-0.05
0.0
0.035
0.045
0.055
0.055
0.045
0.035
0.03
0.03
0.03
0.025
0.015
0.01
0.015
0.015
0.015
0.015
0.015
0.025
0.025
0.03
0.035
0.035
0.04
0.04
0.045
0.05
0.05
0.045
0.05
0.05
0.045
0.05
0.05
0.045
0.045
0.05
0.05
0.055
0.055
0.055
0.055
0.05
0.06
0.055
0.05
0.05
0.07
0.08
0.1
0.14
0.19
0.16
0.13
0.055
0.07
0.065
0.07
0.05
0.055
0.04
0.09
-0.065
-0.455
-0.35
0.27
0.965
0.805
0.44
0.2
0.065
0.015
-0.005
-0.015
-0.03
-0.035
-0.055
-0.045
-0.06
-0.06
-0.075
-0.085
-0.095
-0.105
-0.125
-0.135
-0.155
-0.165
-0.185
-0.2
-0.21
-0.205
-0.19
-0.17
-0.145
-0.105
-0.05
0.0
0.025
0.03
0.035
0.035
0.02
0.01
0.01
0.01
0.0
-0.005
0.0
-0.005
-0.005
-0.005
-0.005
0.0
0.0
-0.005
-0.005
0.0
0.005
0.005
0.0
0.01
0.01
0.01
0.015
0.015
0.015
0.015
0.015
0.015
0.01
0.015
0.015
0.01
0.015
0.01
0.02
0.01
0.025
0.035
0.06
0.095
0.145
0.155
0.12
0.045
0.02
0.04
0.025
0.02
0.02
0.02
0.035
-0.025
-0.4
-0.485
0.18
0.735
0.79
0.49
0.2
0.065
0.0
-0.025
-0.03
-0.045
-0.05
-0.06
-0.06
-0.065
-0.075
-0.08
-0.09
-0.1
-0.11
-0.125
-0.14
-0.15
-0.165
-0.185
-0.205
-0.21
-0.21
-0.205
-0.185
-0.15
-0.095
-0.045
0.0
0.025
0.04
0.045
0.04
0.03
0.025
0.02
0.015
0.015
0.01
0.01
0.005
0.005
0.005
0.0
0.0
0.0
0.005
0.0
0.0
0.0
0.005
0.005
0.01
0.005
0.015
0.01
0.015
0.01
0.01
0.01
0.015
0.005
0.015
0.005
0.015
0.01
0.02
0.015
0.05
0.055
0.09
0.14
0.165
0.13
0.1
0.025
0.045
0.035
0.035
0.015
0.03
0.01
0.09
-0.105
-0.38
-0.005
0.34
0.86
0.68
0.37
0.145
0.025
0.015
-0.015
-0.01
-0.03
-0.025
-0.04
-0.035
-0.045
-0.045
-0.06
-0.06
-0.075
-0.08
-0.105
-0.11
-0.14
-0.15
-0.18
-0.19
-0.205
-0.205
-0.2
-0.175
-0.135
-0.07
-0.015
0.025
0.04
0.05
0.045
0.04
0.025
0.025
0.015
0.01
0.005
0.0
0.0
0.0
0.0
0.0
0.0
0.0
0.005
0.005
0.01
0.015
0.015
0.015
0.02
0.02
0.025
0.02
0.025
0.025
0.03
0.03
0.03
0.03
0.035
0.03
0.04
0.035
0.04
0.035
0.06
0.07
0.1
0.155
0.185
0.15
0.125
0.05
0.065
0.06
0.055
0.045
0.05
0.04
0.095
-0.06
-0.41
-0.21
0.32
0.91
0.76
0.425
0.175
0.055
0.02
0.0
-0.005
-0.02
-0.025
-0.035
-0.03
-0.045
-0.045
-0.06
-0.06
-0.085
-0.09
-0.11
-0.12
-0.14
-0.16
-0.185
-0.185
-0.2
-0.2
-0.2
-0.175
-0.145
-0.085
-0.035
0.01
0.04
0.045
0.045
0.035
0.025
0.015
0.01
0.015
0.01
0.015
0.01
0.0
0.005
0.0
0.005
0.005
0.0
0.015
0.02
0.01
0.02
0.025
0.03
0.03
0.025
0.035
0.035
0.03
0.03
0.03
0.03
0.035
0.03
0.035
0.045
0.055
0.06
0.12
0.125
0.125
0.125
0.165
0.13
0.075
0.045
0.07
0.175
0.16
0.14
0.145
-0.055
-0.065
-0.365
-0.575
0.085
0.64
0.955
0.63
0.26
0.12
0.025
0.0
-0.015
-0.025
-0.04
-0.04
-0.045
-0.05
-0.065
-0.075
-0.08
-0.09
-0.115
-0.115
-0.135
-0.15
-0.175
-0.185
-0.22
-0.22
-0.225
-0.225
-0.21
-0.175
-0.135
-0.075
-0.015
0.015
0.03
0.03
0.04
0.025
0.01
0.005
0.005
0.0
0.0
0.005
-0.005
-0.005
-0.005
-0.01
-0.01
-0.005
0.0
-0.005
0.0
0.0
0.0
0.0
0.01
0.0
0.005
0.0
0.02
0.005
0.01
0.005
0.015
0.005
0.01
0.01
0.045
0.05
0.08
0.14
0.175
0.12
0.065
0.01
0.045
0.015
0.03
0.01
0.02
0.0
0.06
-0.23
-0.51
0.01
0.43
0.865
0.595
0.26
0.115
0.005
-0.005
-0.03
-0.035
-0.05
-0.05
-0.065
-0.055
-0.075
-0.075
-0.09
-0.1
-0.115
-0.12
-0.14
-0.155
-0.18
-0.195
-0.22
-0.225
-0.235
-0.23
-0.22
-0.185
-0.14
-0.08
-0.03
0.005
0.02
0.025
0.02
0.015
0.005
0.0
-0.005
-0.01
-0.005
-0.01
-0.015
-0.02
-0.02
-0.02
-0.02
-0.025
-0.015
-0.015
-0.01
-0.015
-0.005
-0.01
-0.005
-0.01
0.0
-0.01
0.0
-0.005
0.0
-0.01
-0.005
-0.015
0.0
-0.01
0.0
-0.005
0.03
0.03
0.06
0.12
0.145
0.1
0.06
0.0
0.015
0.005
0.015
-0.01
0.0
-0.01
0.08
-0.13
-0.425
-0.06
0.29
0.835
0.64
0.32
0.11
-0.005
-0.015
-0.045
-0.04
-0.06
-0.05
-0.07
-0.065
-0.08
-0.075
-0.095
-0.09
-0.11
-0.11
-0.14
-0.145
-0.175
-0.19
-0.215
-0.225
-0.245
-0.24
-0.24
-0.205
-0.165
-0.105
-0.055
-0.005
0.01
0.02
0.015
0.01
0.0
-0.005
-0.015
-0.015
-0.02
-0.02
-0.025
-0.02
-0.02
-0.025
-0.02
-0.025
-0.02
-0.02
-0.015
-0.02
-0.015
-0.01
-0.01
-0.01
-0.005
-0.01
0.0
-0.005
-0.005
-0.005
0.0
-0.005
0.0
0.0
0.0
0.0
0.005
0.0
0.025
0.03
0.06
0.115
0.14
0.1
0.07
0.0
0.02
0.02
0.015
0.005
0.005
0.0
0.07
-0.07
-0.42
-0.25
0.255
0.845
0.71
0.395
0.14
0.02
-0.005
-0.03
-0.035
-0.055
-0.05
-0.065
-0.06
-0.075
-0.07
-0.085
-0.085
-0.1
-0.105
-0.13
-0.135
-0.16
-0.175
-0.195
-0.205
-0.22
-0.22
-0.225
-0.2
-0.165
-0.105
-0.055
-0.005
0.015
0.03
0.025
0.02
0.005
0.0
0.0
-0.005
-0.005
-0.01
-0.01
-0.015
-0.015
-0.015
-0.01
-0.005
-0.005
-0.005
0.0
0.0
0.0
0.0
0.005
0.005
0.01
0.005
0.005
0.01
0.01
0.01
0.005
0.01
0.01
0.015
0.02
0.02
0.02
0.02
0.02
0.015
0.02
0.02
0.04
0.05
0.075
0.13
0.165
0.13
0.1
0.035
0.05
0.05
0.045
0.035
0.04
0.04
0.085
-0.025
-0.415
-0.38
0.26
0.885
0.795
0.475
0.19
0.065
0.02
0.0
-0.01
-0.025
-0.03
-0.035
-0.04
-0.04
-0.045
-0.055
-0.065
-0.075
-0.09
-0.105
-0.12
-0.14
-0.16
-0.175
-0.195
-0.205
-0.205
-0.205
-0.185
-0.16
-0.11
-0.055
-0.01
0.015
0.035
0.04
0.03
0.025
0.01
0.01
0.0
0.0
-0.005
-0.005
-0.005
-0.005
-0.01
0.0
-0.005
0.0
0.0
0.005
0.005
0.0
0.0
0.01
0.015
0.005
0.01
0.01
0.015
0.015
0.02
0.01
0.02
0.02
0.015
0.02
0.03
0.02
0.03
0.03
0.04
0.035
0.05
0.06
0.095
0.15
0.18
0.135
0.09
0.035
0.065
0.04
0.05
0.03
0.04
0.025
0.065
-0.195
-0.525
-0.115
0.405
1.03
0.73
0.325
0.155
0.025
0.01
-0.015
-0.02
-0.035
-0.035
-0.045
-0.04
-0.06
-0.055
-0.075
-0.075
-0.09
-0.095
-0.115
-0.115
-0.145
-0.15
-0.17
-0.18
-0.185
-0.175
-0.17
-0.14
-0.105
-0.055
-0.005
0.03
0.05
0.055
0.055
0.045
0.035
0.03
0.025
0.015
0.015
0.01
0.015
0.01
0.005
0.01
0.005
0.005
0.01
0.015
0.01
0.01
0.015
0.01
0.01
0.01
0.02
0.005
0.015
0.015
0.015
0.01
0.02
0.005
0.02
0.01
0.015
0.015
0.045
0.05
0.08
0.145
0.17
0.135
0.09
0.015
0.04
0.02
0.025
0.0
0.02
0.0
0.06
-0.195
-0.41
0.035
0.345
0.84
0.58
0.26
0.105
-0.005
-0.015
-0.045
-0.045
-0.07
-0.06
-0.075
-0.075
-0.095
-0.085
-0.105
-0.11
-0.13
-0.13
-0.15
-0.155
-0.19
-0.19
-0.21
-0.21
-0.22
-0.21
-0.205
-0.17
-0.13
-0.075
-0.035
0.0
0.01
0.015
0.01
0.0
