signal
0.04
0.045
0.05
0.055
0.05
0.05
0.05
0.05
0.055
0.055
0.055
0.08
0.065
0.055
0.02
-0.005
-0.005
-0.01
-0.02
-0.045
-0.035
-0.025
-0.01
0.05
0.08
0.08
0.085
0.1
0.105
0.09
0.085
0.08
0.085
-0.145
-0.695
-1.29
-0.695
0.505
0.785
0.495
0.25
0.11
0.065
0.04
0.025
0.01
-0.005
-0.015
-0.015
-0.03
-0.045
-0.065
-0.075
-0.09
-0.11
-0.135
-0.165
-0.21
-0.245
-0.295
-0.34
-0.39
-0.43
-0.46
-0.455
-0.43
-0.37
-0.29
-0.195
-0.12
-0.06
-0.02
0.005
0.025
0.025
0.035
0.045
0.05
0.05
0.05
0.055
0.065
0.055
0.055
0.06
0.05
0.055
0.055
0.055
0.055
0.065
0.065
0.08
0.06
0.065
0.065
0.065
0.07
0.065
0.07
0.075
0.065
0.08
0.075
0.08
0.08
0.075
0.08
0.08
0.08
0.065
0.07
0.055
0.025
0.015
0.025
0.025
-0.01
0.0
-0.005
-0.01
0.005
0.055
0.08
0.085
0.09
0.09
0.08
0.085
0.08
0.08
0.04
-0.235
-0.83
-1.345
-0.475
0.685
0.685
0.41
0.185
0.085
0.04
0.025
0.01
0.005
-0.005
-0.005
-0.015
-0.025
-0.035
-0.04
-0.06
-0.065
-0.09
-0.115
-0.15
-0.18
-0.225
-0.28
-0.325
-0.365
-0.39
-0.405
-0.425
-0.39
-0.34
-0.25
-0.175
-0.095
-0.055
-0.005
0.005
0.025
0.03
0.035
0.04
0.045
0.045
0.055
0.055
0.065
0.05
0.055
0.05
0.06
0.055
0.065
0.065
0.06
0.05
0.06
0.055
0.055
0.055
0.07
0.06
0.07
0.055
0.065
0.065
0.07
0.065
0.07
0.08
0.08
0.055
0.065
0.075
0.075
0.035
0.025
0.01
0.005
-0.01
0.01
-0.005
0.01
0.005
0.015
0.065
0.1
0.1
0.105
0.115
0.105
0.08
0.08
0.09
0.015
-0.4
-1.0
-1.055
0.035
0.795
0.61
0.4
0.185
0.085
0.045
0.025
0.035
0.015
0.0
-0.005
-0.005
-0.015
-0.01
-0.015
-0.045
-0.065
-0.095
-0.115
-0.14
-0.17
-0.215
-0.265
-0.285
-0.33
-0.355
-0.365
-0.35
-0.335
-0.275
-0.215
-0.125
-0.05
0.0
0.03
0.045
0.055
0.065
0.055
0.06
0.075
0.095
0.09
0.07
0.06
0.075
0.08
0.085
0.07
0.075
0.065
0.07
0.08
0.08
0.07
0.08
0.08
0.09
0.085
0.08
0.08
0.08
0.085
0.055
0.015
0.04
0.04
0.02
-0.025
-0.03
-0.025
0.005
0.015
0.065
0.11
0.12
0.1
0.095
0.105
0.115
0.11
0.125
0.155
-0.015
-0.56
-1.125
-0.48
0.61
0.745
0.605
0.385
0.17
0.09
0.065
0.055
0.06
0.05
0.05
0.015
0.005
-0.01
-0.01
-0.005
-0.045
-0.065
-0.1
-0.105
-0.11
-0.17
-0.21
-0.24
-0.26
-0.3
-0.315
-0.315
-0.295
-0.25
-0.185
-0.12
-0.06
-0.025
0.015
0.035
0.065
0.065
0.06
0.05
0.055
0.055
0.06
0.055
0.055
0.045
0.055
0.045
0.055
0.055
0.055
0.05
0.05
0.055
0.06
0.055
0.045
0.015
-0.025
-0.06
-0.095
-0.23
-0.51
-0.995
-1.545
-1.985
-2.28
-2.54
-2.745
-2.89
-2.955
-2.64
-1.79
-0.795
-0.02
0.345
0.445
0.51
0.565
0.61
0.655
0.7
0.77
0.835
0.925
1.025
1.135
1.24
1.345
1.45
1.555
1.625
1.655
1.65
1.625
1.535
1.42
1.235
1.04
0.845
0.65
0.475
0.345
0.25
0.195
0.155
0.135
0.12
0.115
0.12
0.11
0.095
0.095
0.08
0.07
0.07
0.065
0.055
0.065
0.055
0.055
0.055
0.055
0.05
0.045
0.05
0.05
0.04
0.035
0.035
0.045
0.045
0.045
0.05
0.045
0.05
0.045
0.055
0.05
0.04
0.05
0.045
0.045
0.04
0.04
0.035
0.04
0.05
0.04
0.035
0.045
0.05
0.045
0.03
0.0
-0.025
-0.02
-0.03
-0.045
-0.055
-0.06
-0.06
-0.03
0.01
0.045
0.07
0.08
0.08
0.08
0.07
0.07
0.075
0.045
-0.245
-0.85
-1.38
-0.51
0.63
0.69
0.455
0.215
0.11
0.06
0.035
0.015
0.0
-0.005
-0.015
-0.02
-0.02
-0.025
-0.04
-0.045
-0.07
-0.095
-0.11
-0.13
-0.18
-0.225
-0.255
-0.295
-0.335
-0.37
-0.39
-0.395
-0.4
-0.365
-0.31
-0.23
-0.15
-0.085
-0.03
-0.005
0.025
0.04
0.045
0.055
0.045
0.055
0.06
0.06
0.06
0.05
0.06
0.055
0.045
0.045
0.05
0.055
0.055
0.055
0.055
0.065
0.06
0.075
0.075
0.075
0.07
0.075
0.09
0.08
0.08
0.09
0.09
0.06
0.04
0.035
0.035
0.035
0.005
-0.015
-0.005
0.005
0.035
0.09
0.11
0.115
0.12
0.13
0.125
0.115
0.105
0.12
0.065
-0.295
-0.91
-1.19
-0.14
0.815
0.665
0.42
0.195
0.115
0.08
0.055
0.05
0.03
0.015
0.025
0.015
-0.005
-0.015
-0.03
-0.04
-0.055
-0.08
-0.105
-0.135
-0.17
-0.21
-0.25
-0.285
-0.315
-0.335
-0.345
-0.34
-0.305
-0.25
-0.18
-0.11
-0.05
0.0
0.035
0.055
0.08
0.08
0.085
0.085
0.08
0.09
0.09
0.09
0.085
0.09
0.095
0.08
0.075
0.08
0.075
0.075
0.09
0.095
0.09
0.085
0.095
0.09
0.09
0.085
0.085
0.09
0.1
0.12
0.115
0.09
0.06
0.065
0.065
0.045
0.03
0.005
0.005
0.015
0.02
0.065
0.105
0.13
0.15
0.145
0.135
0.135
0.135
0.115
0.13
-0.025
-0.51
-1.085
-0.685
0.455
0.825
0.59
0.375
0.19
0.115
0.08
0.07
0.05
0.045
0.03
0.025
0.025
0.01
-0.02
-0.025
-0.03
-0.045
-0.055
-0.095
-0.125
-0.145
-0.19
-0.23
-0.27
-0.295
-0.315
-0.325
-0.305
-0.265
-0.215
-0.125
-0.06
-0.015
0.05
0.07
0.08
0.095
0.09
0.105
0.11
0.095
0.08
0.1
0.11
0.105
0.09
0.065
0.08
0.085
0.1
0.095
0.095
0.1
0.08
0.08
0.115
0.11
0.095
0.1
0.115
0.105
0.1
0.105
0.11
0.12
0.085
0.065
0.055
0.055
0.03
-0.005
-0.005
0.03
0.04
0.085
0.115
0.11
0.12
0.12
0.145
0.14
0.125
0.115
0.17
0.075
-0.39
-0.995
-0.655
0.385
0.76
0.635
0.445
0.24
0.145
0.09
0.08
0.06
0.05
0.035
0.035
0.05
0.03
0.01
0.005
-0.005
-0.025
-0.045
-0.06
-0.07
-0.105
-0.155
-0.165
-0.17
-0.205
-0.24
-0.23
-0.21
-0.19
-0.155
-0.095
-0.03
0.03
0.055
0.07
0.1
0.105
0.1
0.1
0.115
0.115
0.125
0.125
0.14
0.13
0.11
0.13
0.135
0.125
0.135
0.145
0.135
0.13
0.15
0.13
0.12
0.155
0.165
0.13
0.13
0.135
0.135
0.14
0.1
0.08
0.095
0.08
0.025
0.015
0.035
0.07
0.1
0.13
0.135
0.17
0.185
0.18
0.175
0.155
0.155
0.18
0.175
-0.09
-0.67
-1.15
-0.295
0.72
0.76
0.615
0.385
0.215
0.145
0.115
0.11
0.08
0.08
0.085
0.065
0.05
0.055
0.045
0.035
0.025
0.015
-0.03
-0.07
-0.085
-0.12
-0.14
-0.17
-0.19
-0.215
-0.23
-0.245
-0.225
-0.165
-0.105
-0.035
0.03
0.06
0.085
0.1
0.115
0.12
0.125
0.135
0.135
0.12
0.115
0.12
0.115
0.11
0.115
0.115
0.095
0.09
0.1
0.11
0.12
0.115
0.115
0.115
0.115
0.095
0.095
0.11
0.115
0.105
0.07
0.06
0.065
0.045
0.02
0.005
0.03
0.035
0.07
0.115
0.13
0.14
0.145
0.15
0.14
0.135
0.13
0.13
0.075
-0.245
-0.845
-1.295
-0.33
0.765
0.745
0.505
0.26
0.155
0.11
0.08
0.06
0.06
0.05
0.04
0.04
0.02
0.01
0.015
0.005
-0.02
-0.055
-0.085
-0.115
-0.155
-0.18
-0.235
-0.28
-0.315
-0.35
-0.375
-0.355
-0.31
-0.24
-0.16
-0.08
-0.01
0.025
0.06
0.085
0.085
0.095
0.105
0.12
0.12
0.115
0.11
0.12
0.115
0.11
0.1
0.11
0.105
0.095
0.1
0.095
0.105
0.115
0.11
0.115
0.115
0.125
0.125
0.11
0.125
0.12
0.115
0.125
0.12
0.11
0.075
0.07
0.065
0.055
0.035
0.025
0.035
0.03
0.065
0.12
0.13
0.14
0.15
0.155
0.145
0.145
0.145
0.14
0.105
-0.165
-0.745
-1.285
-0.47
0.69
0.77
0.5
0.26
0.15
0.1
0.085
0.065
0.06
0.055
0.04
0.03
0.035
0.02
0.01
-0.015
-0.035
-0.055
-0.075
-0.115
-0.155
-0.19
-0.24
-0.29
-0.33
-0.37
-0.385
-0.385
-0.355
-0.29
-0.215
-0.13
-0.065
-0.01
0.025
0.055
0.07
0.08
0.085
0.08
0.085
0.08
0.09
0.09
0.095
0.085
0.095
0.09
0.075
0.08
0.08
0.08
0.08
0.075
0.08
0.075
0.085
0.085
0.08
0.08
0.085
0.085
0.08
0.08
0.08
0.085
0.09
0.095
0.085
0.085
0.085
0.08
0.07
0.07
0.05
0.015
0.02
0.035
0.02
0.0
-0.015
0.005
0.02
0.045
0.085
0.1
0.105
0.1
0.1
0.095
0.095
0.095
0.115
0.02
-0.39
-1.02
-1.15
-0.04
0.8
0.595
0.36
0.16
0.09
0.06
0.03
0.02
0.01
0.0
-0.005
-0.02
-0.02
-0.025
-0.045
-0.065
-0.075
-0.095
-0.12
-0.15
-0.195
-0.235
-0.29
-0.325
-0.345
-0.375
-0.395
-0.395
-0.365
-0.3
-0.22
-0.155
-0.08
-0.03
0.005
0.02
0.035
0.05
0.055
0.055
0.055
0.055
0.055
0.055
0.055
0.05
0.055
0.06
0.065
0.055
0.055
0.05
0.06
0.055
0.055
0.055
0.06
0.055
0.065
0.06
0.065
0.065
0.07
0.07
0.065
0.075
0.08
0.045
0.02
0.01
0.01
0.005
-0.005
-0.02
-0.015
-0.005
0.025
0.07
0.1
0.115
0.115
0.11
0.11
0.11
0.1
0.11
0.095
-0.15
-0.72
-1.245
-0.445
0.67
0.73
0.475
0.24
0.125
0.08
0.05
0.04
0.03
0.015
0.015
0.005
-0.01
-0.01
-0.035
-0.045
-0.055
-0.08
-0.11
-0.135
-0.175
-0.21
-0.24
-0.29
-0.32
-0.34
-0.365
-0.365
-0.335
-0.28
-0.215
-0.145
-0.08
-0.03
0.01
0.035
0.045
0.055
0.055
0.075
0.065
0.055
0.065
0.065
0.07
0.06
0.05
0.055
0.07
0.045
0.045
0.055
0.055
0.07
0.055
0.055
0.065
0.07
0.055
0.06
0.055
0.055
0.07
0.07
0.06
0.08
0.06
0.055
0.065
0.06
0.07
0.07
0.06
0.04
0.005
0.02
0.035
0.02
0.01
-0.01
-0.025
-0.03
-0.005
0.055
0.075
0.08
0.075
0.09
0.08
0.065
0.06
0.075
0.08
-0.16
-0.715
-1.235
-0.435
0.62
0.665
0.465
0.265
0.115
0.045
0.02
0.01
-0.005
-0.015
-0.02
-0.035
-0.025
-0.035
-0.06
-0.06
-0.08
-0.095
-0.11
-0.145
-0.19
-0.21
-0.24
-0.28
-0.29
-0.315
-0.36
-0.375
-0.345
-0.305
-0.245
-0.185
-0.125
-0.075
-0.035
-0.025
0.0
0.035
0.035
0.02
0.02
0.03
0.035
0.03
0.015
0.015
0.03
0.035
0.025
-0.005
0.015
0.04
0.055
0.04
0.04
0.04
0.045
0.06
0.04
0.05
0.06
0.04
0.025
0.015
-0.005
-0.005
-0.01
-0.045
-0.06
-0.045
-0.035
-0.005
0.045
0.075
0.085
0.085
0.09
0.085
0.07
0.065
0.08
0.14
-0.03
-0.58
-1.155
-0.505
0.505
0.675
0.58
0.365
0.145
0.065
0.02
0.02
0.005
0.005
0.005
-0.03
-0.055
-0.055
-0.06
-0.065
-0.08
-0.08
-0.13
-0.155
-0.17
-0.2
-0.23
-0.255
-0.285
-0.315
-0.335
-0.325
-0.31
-0.285
-0.23
-0.165
-0.105
-0.055
-0.035
-0.025
-0.005
0.005
0.01
0.03
0.015
0.03
0.01
0.01
0.025
0.03
0.01
0.01
0.015
0.035
0.025
0.015
0.02
0.025
0.035
0.03
0.025
0.02
-0.015
-0.05
-0.095
-0.17
-0.365
-0.775
-1.32
-1.795
-2.16
-2.48
-2.71
-2.825
-2.93
-2.905
-2.33
-1.35
-0.43
0.155
0.365
0.44
0.515
0.55
0.58
0.625
0.685
0.75
0.835
0.935
1.03
1.145
1.26
1.38
1.465
1.545
1.61
1.65
1.635
1.59
1.49
1.345
1.17
0.97
0.755
0.56
0.385
0.27
0.195
0.155
0.115
0.1
0.095
0.08
0.08
0.08
0.06
0.055
0.05
0.045
0.03
0.03
0.03
0.025
0.005
0.01
0.01
0.01
0.0
0.01
0.01
0.01
0.005
0.015
0.01
0.01
0.015
0.01
0.005
0.01
0.01
0.01
0.01
0.01
0.015
0.01
0.005
0.01
0.01
0.01
-0.005
0.01
0.015
0.015
0.005
0.005
-0.025
-0.045
-0.055
-0.055
-0.065
-0.08
-0.085
-0.075
-0.07
-0.025
0.025
0.04
0.05
0.06
0.05
0.055
0.05
0.055
0.045
-0.195
-0.76
-1.36
-0.7
0.49
0.705
0.47
0.24
0.105
0.055
0.025
0.005
-0.01
-0.01
-0.01
-0.025
-0.025
-0.045
-0.045
-0.055
-0.075
-0.095
-0.11
-0.145
-0.17
-0.205
-0.245
-0.285
-0.32
-0.365
-0.385
-0.4
-0.4
-0.37
-0.31
-0.24
-0.165
-0.105
-0.045
-0.015
0.015
0.025
0.045
0.04
0.03
0.025
0.045
0.06
0.055
0.055
0.045
0.03
0.03
0.04
0.04
0.045
0.05
0.05
0.04
0.04
0.055
0.055
0.055
0.05
0.07
0.04
0.01
0.015
0.015
-0.025
-0.045
-0.035
-0.005
0.025
0.065
0.105
0.12
0.125
0.125
0.12
0.12
0.125
0.11
0.125
-0.01
-0.49
-1.07
-0.83
0.295
0.825
0.605
0.38
0.18
0.115
0.08
0.06
0.055
0.035
0.025
0.02
0.015
0.005
-0.01
-0.005
-0.025
-0.05
-0.06
-0.08
-0.115
-0.15
-0.2
-0.235
-0.28
-0.315
-0.33
-0.33
-0.305
-0.275
-0.205
-0.12
-0.045
0.0
0.035
0.06
0.08
0.095
0.11
0.115
0.115
0.1
0.105
0.1
0.105
0.115
0.09
0.075
0.085
0.09
0.095
0.085
0.085
0.08
0.095
0.09
0.095
0.095
0.065
0.04
0.055
0.015
-0.03
-0.04
0.005
0.035
0.07
0.105
0.13
0.145
0.145
0.135
0.135
0.125
0.12
0.135
0.08
-0.27
-0.86
-1.095
-0.06
0.825
0.69
0.455
0.225
0.135
0.085
0.065
0.055
0.04
0.04
0.04
0.03
0.015
-0.005
-0.005
-0.015
-0.04
-0.065
-0.09
-0.13
-0.165
-0.21
-0.25
-0.285
-0.31
-0.34
-0.34
-0.325
-0.295
-0.23
-0.16
-0.08
-0.025
0.015
0.055
0.065
0.07
0.08
0.085
0.085
0.09
0.085
0.085
0.095
0.095
0.075
0.06
0.08
0.07
0.065
0.065
0.065
0.08
0.075
0.08
0.085
0.055
0.03
0.025
0.01
-0.035
-0.055
-0.015
0.025
0.055
0.1
0.12
0.13
0.125
0.125
0.115
0.115
0.115
0.125
0.085
-0.22
-0.805
-1.18
-0.23
0.755
0.68
0.445
0.22
0.115
0.055
0.055
0.04
0.025
0.02
0.015
0.015
0.0
-0.015
-0.025
-0.045
-0.05
-0.075
-0.105
-0.125
-0.16
-0.21
-0.25
-0.29
-0.31
-0.34
-0.355
-0.33
-0.285
-0.225
-0.16
-0.11
-0.05
0.005
0.045
0.065
0.07
0.085
0.085
0.085
0.075
0.08
0.08
0.08
0.08
0.08
0.08
0.07
0.065
0.065
0.07
0.07
0.08
0.08
0.085
0.095
0.085
0.08
0.095
0.085
0.08
0.085
0.08
0.095
0.095
0.085
0.05
0.035
0.04
0.01
-0.03
-0.02
0.015
0.045
0.08
0.115
0.125
0.135
0.13
0.125
0.125
0.12
0.115
0.14
0.065
-0.285
-0.885
-1.1
-0.08
0.785
0.655
0.425
0.205
0.12
0.075
0.05
0.035
0.04
0.025
0.015
0.005
-0.005
-0.005
-0.015
-0.03
-0.055
-0.075
-0.095
-0.13
-0.165
-0.205
-0.24
-0.28
-0.31
-0.33
-0.35
-0.345
-0.325
-0.26
-0.195
-0.13
-0.06
-0.015
0.02
0.04
0.05
0.055
0.06
0.06
0.06
0.065
0.065
0.07
0.065
0.065
0.055
0.05
0.05
0.065
0.07
0.08
0.08
0.07
0.08
0.08
0.08
0.085
0.085
0.08
0.085
0.09
0.085
0.095
0.08
0.095
0.095
0.085
0.08
0.07
0.05
0.045
0.055
0.055
0.045
0.035
0.03
0.025
0.035
0.085
0.1
0.1
0.105
0.115
0.125
0.11
0.105
0.1
0.105
-0.06
-0.575
-1.15
-0.585
0.525
0.755
0.535
0.305
0.15
0.1
0.06
0.035
0.03
0.025
0.02
0.015
0.0
-0.005
-0.01
-0.025
-0.04
-0.065
-0.08
-0.105
-0.13
-0.17
-0.19
-0.23
-0.27
-0.295
-0.305
-0.315
-0.295
-0.26
-0.205
-0.135
-0.065
-0.015
0.025
0.055
0.08
0.065
0.065
0.085
0.085
0.1
0.115
0.095
0.095
0.09
0.08
0.07
0.085
0.08
0.07
0.085
0.105
0.095
0.095
0.095
0.09
0.07
0.09
0.11
0.1
0.1
0.095
0.095
0.095
0.08
0.055
0.045
0.025
0.015
0.03
0.025
0.025
0.01
0.01
0.065
0.115
0.13
0.125
0.125
0.125
0.105
0.095
0.105
0.165
0.06
-0.425
-1.045
-0.715
0.305
0.695
0.615
0.4
0.18
0.105
0.05
0.04
0.035
0.045
0.015
0.02
-0.005
-0.02
-0.02
-0.025
-0.05
-0.055
-0.07
-0.1
-0.125
-0.145
-0.205
-0.255
-0.27
-0.275
-0.3
-0.305
-0.31
-0.29
-0.22
-0.17
-0.12
-0.05
-0.01
0.005
0.025
0.06
0.05
0.045
0.035
0.04
0.04
0.05
0.055
0.04
0.02
-0.025
-0.195
-0.51
-1.065
-1.99
-2.99
-3.555
-2.93
-1.585
-0.585
-0.065
0.08
0.215
0.35
0.405
0.375
0.345
0.34
0.345
0.345
0.355
0.425
0.455
0.505
0.58
0.63
0.7
0.79
0.85
0.925
0.955
0.93
0.885
0.77
0.625
0.475
0.345
0.22
0.135
0.1
0.08
0.055
0.045
0.055
0.05
0.045
0.06
0.05
0.03
0.045
0.045
0.05
0.06
0.035
0.03
0.035
0.055
0.055
0.035
0.05
0.035
0.055
0.065
0.035
0.04
0.055
0.05
0.05
0.05
0.045
0.045
0.035
0.035
0.035
0.025
0.015
0.025
0.015
0.0
-0.01
-0.015
-0.02
-0.015
-0.025
-0.035
-0.05
-0.065
-0.065
-0.07
-0.09
-0.075
-0.065
-0.075
-0.1
-0.105
-0.095
-0.1
-0.115
-0.115
-0.1
-0.105
-0.145
-0.165
-0.175
-0.185
-0.2
-0.225
-0.255
-0.24
-0.215
-0.195
-0.145
-0.11
-0.09
-0.1
-0.11
-0.11
-0.11
-0.1
-0.2
-0.63
-1.27
-1.34
-0.265
0.515
0.4
0.215
0.005
-0.085
-0.135
-0.145
-0.155
-0.165
-0.175
-0.17
-0.17
-0.19
-0.2
-0.205
-0.22
-0.24
-0.26
-0.27
-0.295
-0.34
-0.375
-0.4
-0.425
-0.45
-0.47
-0.485
-0.495
-0.48
-0.46
-0.42
-0.365
-0.305
-0.26
-0.22
-0.185
-0.17
-0.165
-0.155
-0.15
-0.145
-0.145
-0.15
-0.145
-0.155
-0.165
-0.165
-0.165
-0.165
-0.14
-0.15
-0.16
-0.155
-0.15
-0.145
-0.14
-0.13
-0.13
-0.12
-0.13
-0.13
-0.125
-0.12
-0.115
-0.13
-0.165
-0.165
-0.165
-0.18
-0.205
-0.21
-0.195
-0.175
-0.145
-0.09
-0.08
-0.07
-0.06
-0.055
-0.07
-0.075
-0.08
-0.06
-0.195
-0.64
-1.255
-1.17
-0.01
0.695
0.43
0.18
-0.005
-0.075
-0.11
-0.115
-0.125
-0.145
-0.145
-0.145
-0.15
-0.165
-0.18
-0.185
-0.195
-0.215
-0.24
-0.28
-0.315
-0.345
-0.38
-0.435
-0.465
-0.49
-0.515
-0.515
-0.51
-0.45
-0.37
-0.295
-0.225
-0.155
-0.12
-0.1
-0.07
-0.05
-0.05
-0.05
-0.035
-0.035
-0.04
-0.04
-0.045
-0.05
-0.045
-0.05
-0.055
-0.055
-0.05
-0.045
-0.05
-0.055
-0.05
-0.035
-0.045
-0.03
-0.025
-0.03
-0.035
-0.035
-0.025
-0.03
-0.035
-0.035
-0.03
-0.03
-0.035
-0.03
-0.035
-0.04
-0.06
-0.09
-0.095
-0.095
-0.105
-0.115
-0.115
-0.11
-0.09
-0.035
-0.015
-0.015
-0.02
-0.015
-0.025
-0.025
-0.015
-0.03
-0.035
-0.225
-0.755
-1.35
-0.87
0.325
0.675
0.395
0.15
0.005
-0.04
-0.055
-0.08
-0.095
-0.095
-0.105
-0.125
-0.12
-0.125
-0.135
-0.155
-0.17
-0.185
-0.205
-0.24
-0.265
-0.31
-0.36
-0.4
-0.43
-0.46
-0.49
-0.505
-0.485
-0.435
-0.365
-0.295
-0.225
-0.165
-0.115
-0.095
-0.075
-0.075
-0.06
-0.055
-0.06
-0.065
-0.05
-0.05
-0.05
-0.04
-0.045
-0.045
-0.055
-0.055
-0.05
-0.04
-0.04
-0.04
-0.035
-0.03
-0.03
-0.04
-0.03
-0.03
-0.03
-0.03
-0.035
-0.035
-0.03
-0.025
-0.02
-0.035
-0.035
-0.07
-0.08
-0.07
-0.065
-0.08
-0.09
-0.095
-0.105
-0.105
-0.06
-0.015
-0.01
-0.005
0.01
-0.005
-0.01
-0.01
-0.005
0.015
-0.095
-0.515
-1.13
-1.08
0.03
0.72
0.455
0.21
0.05
-0.015
-0.03
-0.055
-0.07
-0.08
-0.085
-0.08
-0.095
-0.12
-0.12
-0.145
-0.155
-0.16
-0.185
-0.21
-0.24
-0.275
-0.31
-0.355
-0.4
-0.44
-0.455
-0.475
-0.455
-0.43
-0.375
-0.29
-0.205
-0.145
-0.105
-0.075
-0.055
-0.055
-0.04
-0.04
-0.03
-0.02
-0.015
-0.035
-0.035
-0.02
-0.025
-0.03
-0.035
-0.06
-0.17
-0.415
-0.89
-1.795
-2.855
-3.53
-3.01
-1.6
-0.57
-0.125
0.015
0.13
0.245
0.33
0.35
0.305
0.275
0.28
0.265
0.305
0.33
0.345
0.385
0.44
0.515
0.58
0.635
0.695
0.73
0.75
0.77
0.74
0.645
0.515
0.365
0.23
0.13
0.055
-0.005
-0.045
-0.035
-0.035
-0.03
-0.035
-0.035
-0.03
-0.02
-0.03
-0.03
-0.015
-0.015
-0.03
-0.025
-0.02
-0.005
-0.015
0.0
0.005
0.005
-0.005
0.005
0.005
0.01
0.02
0.025
0.015
0.025
0.025
0.02
0.015
0.015
0.035
0.035
0.03
0.015
0.015
0.025
0.035
0.03
0.01
0.01
0.025
0.025
0.025
0.025
0.015
0.03
0.035
0.025
0.025
0.035
0.03
0.015
0.005
0.015
0.03
0.035
0.01
0.015
0.04
0.055
0.035
0.025
0.015
0.01
0.025
0.035
-0.005
-0.03
-0.025
-0.035
-0.075
-0.1
-0.095
-0.065
-0.065
-0.03
0.01
0.06
0.08
0.045
0.04
0.035
0.05
0.12
-0.045
-0.605
-1.24
-0.705
0.4
0.655
0.545
0.365
0.155
0.085
0.045
0.05
0.02
0.015
0.025
0.01
0.005
0.005
-0.01
-0.005
-0.025
-0.05
-0.065
-0.08
-0.08
-0.075
-0.08
-0.115
-0.135
-0.125
-0.155
-0.16
-0.18
-0.205
-0.21
-0.19
-0.135
-0.105
-0.07
-0.045
-0.03
-0.02
-0.025
-0.005
0.015
0.025
0.01
0.005
0.01
0.01
-0.005
0.005
0.005
0.025
0.015
0.02
0.015
0.025
0.035
0.03
0.05
0.055
0.035
0.025
0.01
0.01
-0.015
-0.045
-0.06
-0.05
-0.035
-0.015
0.03
0.065
0.055
0.065
0.075
0.08
0.08
0.06
0.05
0.105
-0.055
-0.565
-1.17
-0.87
0.25
0.745
0.595
0.38
0.155
0.08
0.02
0.01
-0.005
0.005
-0.02
-0.045
-0.045
-0.025
-0.065
-0.07
-0.085
-0.105
-0.14
-0.14
-0.175
-0.225
-0.265
-0.305
-0.34
-0.345
-0.345
-0.365
-0.345
-0.29
-0.225
-0.145
-0.09
-0.035
0.005
0.025
0.045
0.05
0.055
0.075
0.07
0.08
0.08
0.06
0.065
0.065
0.055
0.05
0.045
0.05
0.055
0.055
0.05
0.045
0.05
0.05
0.045
0.025
-0.005
-0.07
-0.17
-0.29
-0.515
-0.975
-1.515
-1.905
-2.185
-2.415
-2.515
-2.535
-2.585
-2.47
-1.94
-1.095
-0.265
0.245
0.43
0.495
0.535
0.58
0.63
0.675
0.74
0.805
0.895
0.985
1.095
1.215
1.33
1.45
1.545
1.635
1.675
1.68
1.64
1.575
1.445
1.28
1.085
0.885
0.665
0.475
0.33
0.23
0.175
0.155
0.15
0.155
0.145
0.145
0.14
0.14
0.14
0.13
0.115
0.11
0.105
0.1
0.09
0.08
0.065
0.08
0.065
0.055
0.06
0.07
0.065
0.065
0.065
0.06
0.06
0.06
0.065
0.055
0.055
0.065
0.06
0.055
0.055
0.065
0.065
0.06
0.05
0.06
0.055
0.05
0.055
0.03
-0.005
-0.01
-0.01
-0.025
-0.07
-0.055
-0.03
-0.015
0.03
0.08
0.065
0.09
0.085
0.08
0.085
0.075
0.08
0.05
-0.23
-0.815
-1.355
-0.51
0.63
0.685
0.435
0.21
0.11
0.06
0.04
0.025
0.005
0.01
-0.005
-0.015
-0.02
-0.02
-0.035
-0.045
-0.07
-0.095
-0.12
-0.145
-0.185
-0.23
-0.275
-0.325
-0.365
-0.41
-0.435
-0.44
-0.44
-0.39
-0.325
-0.235
-0.155
-0.08
-0.025
0.01
0.025
0.04
0.045
0.04
0.05
0.065
0.06
0.06
0.07
0.055
0.07
0.065
0.06
0.06
0.055
0.055
0.055
0.07
0.06
0.055
0.06
0.07
0.07
0.07
0.065
0.07
0.075
0.05
0.03
0.025
0.035
0.01
-0.01
-0.015
0.01
0.045
0.07
0.105
0.11
0.125
0.12
0.115
0.11
0.105
0.095
0.105
-0.03
-0.51
-1.12
-0.835
0.31
0.8
0.51
0.275
0.135
0.085
0.055
0.045
0.03
0.025
0.02
0.01
0.005
-0.005
-0.025
-0.035
-0.055
-0.065
-0.1
-0.135
-0.165
-0.21
-0.24
-0.285
-0.33
-0.365
-0.39
-0.39
-0.365
-0.305
-0.23
-0.14
-0.075
-0.015
0.025
0.06
0.06
0.065
0.08
0.09
0.115
0.125
0.115
0.1
0.09
0.09
0.095
0.11
0.1
0.09
0.085
0.08
0.075
0.08
0.105
0.105
0.115
0.105
0.095
0.095
0.085
0.11
0.11
0.11
0.11
0.12
0.125
0.11
0.115
0.1
0.085
0.07
0.06
0.065
0.04
0.035
0.055
0.055
0.045
0.095
0.13
0.145
0.14
0.12
0.105
0.11
0.135
0.125
0.135
0.025
-0.45
-1.035
-0.72
0.335
0.755
0.615
0.425
0.2
0.12
0.065
0.055
0.06
0.04
0.035
0.035
0.01
0.02
0.025
-0.005
-0.035
-0.05
-0.05
-0.075
-0.115
-0.16
-0.205
-0.225
-0.275
-0.325
-0.335
-0.345
-0.345
-0.315
-0.245
-0.155
-0.08
-0.035
0.02
0.03
0.07
0.12
0.115
0.095
0.105
0.11
0.105
0.09
0.095
0.095
0.07
0.08
0.08
0.075
0.075
0.06
0.065
0.055
0.065
0.095
0.105
0.065
0.04
0.015
0.035
0.065
0.03
-0.04
-0.055
-0.035
-0.01
0.015
0.055
0.095
0.115
0.11
0.1
0.09
0.1
0.085
0.06
0.14
0.05
-0.47
-1.09
-0.73
0.36
0.76
0.615
0.41
0.21
0.11
0.035
0.04
0.045
0.0
-0.005
-0.025
-0.03
-0.02
-0.03
-0.07
-0.085
-0.1
-0.115
-0.135
-0.17
-0.215
-0.255
-0.32
-0.35
-0.375
-0.395
-0.415
-0.39
-0.34
-0.255
-0.175
-0.11
-0.05
-0.005
0.015
0.035
0.045
0.055
0.055
0.08
0.065
0.055
0.045
0.035
0.035
0.045
0.035
0.035
0.025
0.025
0.025
0.015
0.02
0.03
0.035
0.04
0.035
0.035
0.03
0.015
0.01
-0.02
-0.035
-0.04
-0.06
-0.08
-0.095
-0.1
-0.065
-0.035
0.025
0.04
0.045
0.065
0.06
0.055
0.045
0.04
0.055
-0.01
-0.355
-0.945
-1.305
-0.3
0.705
0.645
0.445
0.19
0.08
0.025
-0.005
-0.015
-0.02
-0.035
-0.05
-0.04
-0.045
-0.055
-0.065
-0.08
-0.095
-0.12
-0.14
-0.18
-0.22
-0.265
-0.31
-0.365
-0.41
-0.44
-0.45
-0.435
-0.39
-0.31
-0.23
-0.155
-0.075
-0.03
0.005
0.025
0.035
0.055
0.07
0.065
0.06
0.075
0.08
0.08
0.08
0.08
0.07
0.065
0.06
0.07
0.07
0.065
0.06
0.055
0.05
0.055
0.055
0.065
0.06
0.055
0.06
0.065
0.06
0.065
0.075
0.065
0.06
0.045
0.02
0.025
0.02
0.0
-0.015
-0.015
-0.01
-0.015
0.015
0.08
0.11
0.11
0.105
0.1
0.095
0.1
0.085
0.09
0.0
-0.395
-1.025
-1.225
-0.075
0.845
0.62
0.365
0.165
0.09
0.05
0.04
0.025
0.015
0.01
-0.005
-0.015
-0.02
-0.025
-0.035
-0.045
-0.065
-0.1
-0.12
-0.155
-0.19
-0.25
-0.305
-0.37
-0.41
-0.44
-0.465
-0.445
-0.39
-0.32
-0.23
-0.135
-0.075
-0.015
0.02
0.035
0.055
0.05
0.065
0.07
0.08
0.08
0.085
0.095
0.085
0.09
0.09
0.1
0.08
0.07
0.08
0.08
0.08
0.08
0.065
0.065
0.07
0.08
0.065
0.065
0.06
0.065
0.07
0.07
0.07
0.075
0.08
0.07
0.075
0.08
0.06
0.03
0.02
0.025
0.03
0.01
0.0
-0.005
-0.01
-0.01
0.02
0.065
0.08
0.08
0.085
0.09
0.08
0.08
0.06
0.07
0.015
-0.29
-0.895
-1.345
-0.325
0.75
0.63
0.36
0.155
0.065
0.035
0.015
0.005
-0.01
-0.025
-0.025
-0.035
-0.04
-0.045
-0.05
-0.065
-0.08
-0.1
-0.13
-0.17
-0.21
-0.26
-0.32
-0.37
-0.42
-0.46
-0.485
-0.49
-0.445
-0.37
-0.28
-0.19
-0.115
-0.065
-0.03
-0.01
0.0
0.015
0.015
0.035
0.045
0.045
0.045
0.055
0.05
0.05
0.055
0.065
0.055
0.055
0.05
0.045
0.035
0.025
0.035
0.035
0.04
0.025
0.025
0.03
0.025
0.03
0.04
0.03
0.025
0.025
0.02
0.025
0.025
0.015
0.02
0.02
0.015
0.0
-0.035
-0.035
-0.025
-0.03
-0.045
-0.045
-0.045
-0.07
-0.045
-0.005
0.035
0.035
0.06
0.05
0.045
0.05
0.04
0.035
0.06
-0.075
-0.545
-1.17
-0.985
0.175
0.78
0.495
0.245
0.085
0.025
-0.01
-0.025
-0.02
-0.035
-0.03
-0.045
-0.06
-0.055
-0.07
-0.075
-0.085
-0.105
-0.125
-0.15
-0.205
-0.245
-0.265
-0.305
-0.355
-0.42
-0.44
-0.465
-0.47
-0.425
-0.345
-0.25
-0.17
-0.08
-0.035
-0.015
-0.005
0.015
0.04
0.045
0.03
0.035
0.035
0.045
0.05
0.065
0.065
0.065
0.04
0.04
0.055
0.05
0.035
0.05
0.055
0.045
0.04
0.035
0.035
0.04
0.04
0.04
0.035
0.06
0.055
0.055
0.055
0.045
0.04
0.05
0.045
0.055
0.055
0.035
0.015
0.01
0.025
-0.005
-0.03
-0.03
-0.02
-0.025
-0.025
0.02
0.08
0.08
0.045
0.05
0.08
0.085
0.065
0.055
0.105
0.08
-0.325
-0.935
-1.005
-0.025
0.73
0.625
0.445
0.205
0.105
0.07
0.04
0.025
-0.01
-0.025
-0.015
-0.005
-0.005
-0.025
-0.05
-0.06
-0.06
-0.08
-0.1
-0.13
-0.165
-0.205
-0.235
-0.265
-0.315
-0.34
-0.345
-0.36
-0.33
-0.29
-0.24
-0.145
-0.08
-0.04
-0.01
0.02
0.015
0.03
0.045
0.06
0.045
0.025
0.05
0.045
0.035
0.045
0.035
0.03
0.025
0.03
0.04
0.045
0.045
0.05
0.05
0.035
0.045
0.045
0.045
0.055
0.07
0.08
0.08
0.04
0.005
0.015
0.0
-0.015
-0.045
-0.07
-0.075
-0.055
-0.015
0.03
0.07
0.085
0.095
0.085
0.08
0.095
0.075
0.07
0.095
0.05
-0.31
-0.915
-1.205
-0.225
0.72
0.665
0.485
0.24
0.095
0.05
0.025
0.01
-0.005
-0.005
-0.015
-0.03
-0.05
-0.05
-0.055
-0.07
-0.07
-0.09
-0.13
-0.155
-0.19
-0.22
-0.275
-0.335
-0.365
-0.37
-0.39
-0.39
-0.35
-0.28
-0.21
-0.145
-0.075
-0.03
0.005
0.025
0.04
0.055
0.055
0.07
0.08
0.08
0.065
0.065
0.065
0.07
0.065
0.065
0.06
0.05
0.055
0.06
0.045
0.065
0.065
0.055
0.035
-0.015
-0.065
-0.145
-0.31
-0.565
-1.02
-1.495
-1.865
-2.13
-2.335
-2.39
-2.455
-2.57
-2.39
-1.795
-0.93
-0.155
0.24
0.355
0.435
0.485
0.515
0.585
0.675
0.75
0.815
0.905
0.995
1.105
1.21
1.325
1.435
1.515
1.57
1.605
1.605
1.545
1.455
1.325
1.15
0.955
0.755
0.57
0.415
0.29
0.215
0.17
0.15
0.135
0.14
0.13
0.13
0.14
0.135
0.13
0.135
0.135
0.13
0.125
0.11
0.115
0.115
0.095
0.095
0.085
0.095
0.09
0.085
0.09
0.09
0.09
0.08
0.08
0.08
0.085
0.085
0.09
0.08
0.08
0.08
0.08
0.075
0.08
0.085
0.085
0.085
0.095
0.085
0.085
0.09
0.08
0.09
0.085
0.08
0.075
0.08
0.08
0.075
0.08
0.08
0.085
0.08
0.08
0.08
0.075
0.08
0.085
0.075
0.035
0.02
0.02
0.005
-0.005
-0.01
-0.025
-0.03
0.0
0.035
0.09
0.095
0.095
0.11
0.115
0.105
0.085
0.09
0.09
-0.145
-0.71
-1.3
-0.61
0.56
0.72
0.465
0.255
0.13
0.095
0.085
0.065
0.055
0.045
0.03
0.02
0.02
0.015
0.005
-0.005
-0.03
-0.045
-0.065
-0.09
-0.12
-0.165
-0.195
-0.25
-0.305
-0.335
-0.355
-0.38
-0.39
-0.365
-0.325
-0.245
-0.175
-0.115
-0.05
-0.01
0.02
0.045
0.055
0.06
0.06
0.07
0.08
0.08
0.08
0.08
0.065
0.07
0.065
0.065
0.07
0.065
0.065
0.065
0.07
0.07
0.07
0.075
0.07
0.07
0.07
0.08
0.085
0.08
0.08
0.085
0.09
0.085
0.09
0.095
0.09
0.095
0.085
0.095
0.06
0.025
0.03
0.045
0.03
0.02
0.015
0.03
0.035
0.055
0.1
0.11
0.12
0.125
0.125
0.12
0.105
0.1
0.125
0.06
-0.285
-0.905
-1.13
-0.095
0.785
0.615
0.375
0.175
0.1
0.065
0.05
0.04
0.03
0.035
0.015
0.005
0.0
-0.015
-0.015
-0.02
-0.03
-0.06
-0.095
-0.115
-0.15
-0.19
-0.23
-0.27
-0.305
-0.325
-0.325
-0.32
-0.3
-0.255
-0.19
-0.12
-0.055
-0.005
0.04
0.065
0.065
0.09
0.085
0.09
0.09
0.095
0.095
0.1
0.115
0.105
0.09
0.08
0.085
0.09
0.07
0.09
0.095
0.1
0.09
0.1
0.1
0.1
0.11
0.125
0.115
0.125
0.11
0.11
0.11
0.08
0.06
0.065
0.07
0.05
0.005
0.01
0.025
0.05
0.09
0.115
0.145
0.145
0.145
0.135
0.14
0.155
0.125
0.155
0.125
-0.225
-0.79
-0.89
0.055
0.785
0.675
0.5
0.27
0.155
0.095
0.095
0.075
0.06
0.04
0.04
0.045
0.03
0.015
0.01
0.005
-0.02
-0.035
-0.06
-0.095
-0.12
-0.155
-0.19
-0.23
-0.265
-0.28
-0.29
-0.285
-0.275
-0.22
-0.165
-0.105
-0.025
0.025
0.07
0.09
0.105
0.115
0.105
0.105
0.115
0.1
0.105
0.105
0.085
0.085
0.11
0.11
0.08
0.095
0.12
0.115
0.125
0.135
0.105
0.105
0.13
0.14
0.115
0.115
0.11
0.08
0.08
0.08
0.055
0.02
0.005
0.005
0.03
0.045
0.08
0.13
0.145
0.145
0.145
0.155
0.145
0.135
0.13
0.175
0.14
-0.265
-0.87
-0.87
0.115
0.775
0.68
0.525
0.275
0.155
0.105
0.08
0.065
0.04
0.045
0.045
0.035
0.03
0.02
0.015
-0.01
-0.02
-0.045
-0.07
-0.095
-0.135
-0.145
-0.18
-0.185
-0.215
-0.235
-0.265
-0.265
-0.24
-0.185
-0.115
-0.065
-0.005
0.03
0.055
0.085
0.09
0.09
0.08
0.085
0.095
0.09
0.085
0.095
0.085
0.08
0.075
0.065
0.075
0.08
0.08
0.095
0.085
0.095
0.1
0.095
0.095
0.095
0.09
0.095
0.085
0.065
0.055
0.05
0.045
0.02
-0.005
-0.01
0.005
0.04
0.09
0.12
0.12
0.135
0.13
0.125
0.12
0.105
0.105
0.13
-0.02
-0.485
-1.1
-0.94
0.23
0.855
0.63
0.405
0.185
0.115
0.08
0.06
0.035
0.035
0.04
0.03
0.02
0.01
0.01
-0.005
-0.025
-0.025
-0.055
-0.095
-0.115
-0.15
-0.195
-0.25
-0.29
-0.33
-0.355
-0.37
-0.35
-0.31
-0.245
-0.16
-0.085
-0.015
0.03
0.06
0.08
0.095
0.105
0.11
0.11
0.11
0.105
0.115
0.125
0.11
0.11
0.11
0.1
0.095
0.1
0.1
0.095
0.105
0.095
0.105
0.11
0.11
0.115
0.115
0.115
0.115
0.115
0.105
0.08
0.065
0.065
0.065
0.045
0.015
0.035
0.05
0.08
0.13
0.15
0.155
0.15
0.155
0.145
0.145
0.135
0.125
0.13
-0.07
-0.6
-1.19
-0.67
0.54
0.87
0.59
0.335
0.185
0.115
0.105
0.085
0.07
0.055
0.05
0.045
0.04
0.03
0.03
0.01
-0.01
-0.035
-0.045
-0.075
-0.12
-0.17
-0.21
-0.26
-0.295
-0.325
-0.36
-0.365
-0.34
-0.285
-0.205
-0.135
-0.045
0.005
0.055
0.085
0.11
0.11
0.105
0.11
0.13
0.125
0.13
0.13
0.13
0.13
0.14
0.13
0.14
0.13
0.13
0.135
0.13
0.14
0.14
0.14
0.135
0.135
0.145
0.135
0.14
0.14
0.135
0.14
0.145
0.135
0.14
0.14
0.15
0.16
0.155
0.135
0.135
0.105
0.085
0.08
0.085
0.05
0.025
0.05
0.07
0.09
0.13
0.155
0.165
0.16
0.155
0.155
0.145
0.145
0.14
0.155
0.075
-0.345
-0.95
-1.06
0.045
0.88
0.65
0.4
0.215
0.145
0.115
0.105
0.1
0.075
0.065
0.045
0.045
0.045
0.035
0.03
0.015
-0.005
-0.025
-0.065
-0.095
-0.125
-0.155
-0.21
-0.235
-0.275
-0.31
-0.325
-0.325
-0.305
-0.24
-0.175
-0.095
-0.025
0.035
0.07
0.09
0.1
0.1
0.105
0.105
0.095
0.105
0.105
0.115
0.12
0.115
0.115
0.12
0.12
0.115
0.12
0.115
0.115
0.12
0.115
0.13
0.13
0.125
0.125
0.13
0.14
0.135
0.135
0.15
0.14
0.135
0.145
0.145
0.13
0.125
0.11
0.09
0.08
0.085
0.08
0.08
0.065
0.06
0.05
0.06
0.11
0.145
0.15
0.155
0.15
0.15
0.135
0.14
0.125
0.15
0.04
-0.425
-1.04
-0.865
0.27
0.855
0.585
0.35
0.175
0.13
0.1
0.08
0.07
0.06
0.055
0.05
0.04
0.035
0.015
0.005
-0.005
-0.025
-0.05
-0.065
-0.1
-0.13
-0.175
-0.205
-0.235
-0.27
-0.3
-0.315
-0.305
-0.27
-0.21
-0.145
-0.07
-0.01
0.03
0.07
0.085
0.09
0.09
0.11
0.11
0.105
0.105
0.11
0.115
0.125
0.12
0.125
0.115
0.115
0.115
0.13
0.12
0.115
0.12
0.125
0.12
0.125
0.125
0.13
0.14
0.14
0.125
0.135
0.135
0.145
0.135
0.135
0.14
0.155
0.14
0.115
0.095
0.095
0.095
0.085
0.07
0.085
0.07
0.07
0.085
0.145
0.165
0.175
0.175
0.17
0.155
0.165
0.165
0.15
0.18
0.11
-0.305
-0.91
-0.765
0.265
0.79
0.655
0.475
0.275
0.185
0.13
0.1
0.09
0.08
0.085
0.075
0.08
0.045
0.06
0.045
0.025
0.005
-0.01
-0.03
-0.05
-0.08
-0.11
-0.155
-0.205
-0.23
-0.235
-0.255
-0.25
-0.24
-0.2
-0.145
-0.055
0.005
0.05
0.085
0.095
0.105
0.115
0.115
0.145
0.13
0.125
0.125
0.14
0.12
0.1
0.115
0.12
0.11
0.125
0.125
0.115
0.125
0.135
0.125
0.135
0.13
0.135
0.145
0.155
0.1
0.095
0.09
0.09
0.04
0.045
0.05
0.055
0.095
0.12
0.165
0.185
0.17
0.19
0.175
0.165
0.175
0.17
0.205
0.225
-0.01
-0.575
-1.065
-0.3
0.7
0.795
0.655
0.425
0.235
0.18
0.15
0.145
0.105
0.105
0.095
0.085
0.09
0.085
0.055
0.045
0.03
0.035
-0.005
-0.015
-0.055
-0.08
-0.12
-0.135
-0.165
-0.175
-0.21
-0.21
-0.165
-0.095
-0.035
0.025
0.085
0.16
0.195
0.225
0.24
0.275
0.265
0.27
0.27
0.275
0.275
0.27
0.27
0.275
0.265
0.28
0.275
0.265
0.265
0.275
0.27
0.275
0.285
0.305
0.295
0.27
0.225
0.185
0.135
0.02
-0.24
-0.685
-1.235
-1.72
-2.08
-2.335
-2.53
-2.63
-2.665
-2.425
-1.7
-0.72
0.085
0.535
0.665
0.745
0.785
0.82
0.86
0.92
0.975
1.045
1.115
1.21
1.315
1.43
1.53
1.65
1.745
1.84
1.895
1.91
1.89
1.84
1.73
1.595
1.405
1.21
0.99
0.79
0.635
0.525
0.44
0.405
0.365
0.365
0.345
0.34
0.34
0.335
0.325
0.33
0.315
0.305
0.295
0.29
0.275
0.275
0.265
0.265
0.255
0.255
0.255
0.255
0.255
0.26
0.25
0.245
0.245
0.24
0.245
0.26
0.265
0.265
0.245
0.245
0.245
0.255
0.245
0.25
0.245
0.255
0.255
0.255
0.245
0.255
0.24
0.205
0.175
0.19
0.175
0.165
0.155
0.135
0.135
0.165
0.21
0.255
0.265
0.275
0.285
0.285
0.275
0.275
0.25
0.27
0.115
-0.375
-1.02
-0.765
0.41
0.965
0.725
0.495
0.325
0.27
0.235
0.22
0.21
0.21
0.185
0.19
0.18
0.17
0.155
0.14
0.12
0.11
0.09
0.065
0.035
-0.015
-0.06
-0.105
-0.14
-0.17
-0.205
-0.23
-0.24
-0.205
-0.16
-0.09
-0.005
0.065
0.11
0.155
0.175
0.19
0.195
0.21
0.215
0.225
0.215
0.215
0.21
0.21
0.215
0.215
0.2
0.205
0.195
0.195
0.2
0.205
0.21
0.21
0.205
0.23
0.22
0.215
0.23
0.23
0.215
0.22
0.225
0.23
0.245
0.24
0.205
0.19
0.18
0.18
0.15
0.13
0.145
0.155
0.175
0.23
0.255
0.26
0.255
0.255
0.255
0.255
0.25
0.235
0.245
0.105
-0.41
-1.015
-0.675
0.47
0.915
0.63
0.4
0.255
0.195
0.185
0.165
0.155
0.135
0.135
0.12
0.12
0.095
0.09
0.08
0.07
0.045
0.04
-0.005
-0.035
-0.07
-0.1
-0.155
-0.185
-0.215
-0.23
-0.24
-0.23
-0.2
-0.125
-0.055
0.015
0.08
0.12
0.145
0.155
0.17
0.18
0.175
0.19
0.18
0.19
0.195
0.195
0.19
0.19
0.18
0.175
0.175
0.175
0.18
0.175
0.175
0.175
0.175
0.19
0.185
0.195
0.185
0.185
0.19
0.19
0.18
0.19
0.19
0.205
0.195
0.195
0.2
0.205
0.18
0.155
0.13
0.145
0.12
0.085
0.09
0.115
0.13
0.165
0.195
0.21
0.21
0.21
0.2
0.2
0.2
0.195
0.195
0.195
-0.005
-0.535
-1.1
-0.505
0.6
0.825
0.565
0.335
0.21
0.17
0.14
0.135
0.125
0.12
0.105
0.09
0.08
0.075
0.065
0.055
0.05
0.025
0.0
-0.015
-0.04
-0.075
-0.11
-0.145
-0.185
-0.205
-0.215
-0.215
-0.22
-0.185
-0.13
-0.07
0.005
0.065
0.085
0.13
0.13
0.135
0.145
0.16
0.165
0.17
0.175
0.165
0.135
0.145
0.155
0.165
0.145
0.15
0.145
0.155
0.155
0.15
0.16
0.165
0.17
0.165
0.165
0.17
0.165
0.17
0.175
0.175
0.16
0.185
0.195
0.175
0.135
0.12
0.125
0.13
0.105
0.105
0.115
0.095
0.105
0.16
0.18
0.215
0.23
0.215
0.195
0.205
0.215
0.19
0.215
0.21
-0.08
-0.645
-0.9
-0.01
0.81
0.765
0.595
0.375
0.245
0.19
0.165
0.15
0.13
0.125
0.13
0.12
0.09
0.095
0.08
0.08
0.045
0.045
0.015
-0.005
-0.03
-0.075
-0.105
-0.12
-0.145
-0.165
-0.185
-0.165
-0.165
-0.13
-0.085
-0.02
0.025
0.09
0.135
0.155
0.165
0.185
0.185
0.18
0.165
0.165
0.165
0.18
0.16
0.175
0.16
0.155
0.16
0.17
0.165
0.18
0.175
0.175
0.19
0.195
0.185
0.18
0.18
0.18
0.15
0.125
0.125
0.135
0.115
0.08
0.055
0.07
0.08
0.105
0.15
0.185
0.185
0.195
0.19
0.2
0.185
0.175
0.17
0.21
0.19
-0.145
-0.765
-1.05
-0.15
0.755
0.73
0.585
0.355
0.22
0.155
0.145
0.12
0.115
0.1
0.095
0.08
0.08
0.07
0.06
0.035
0.03
0.005
-0.015
-0.05
-0.08
-0.115
-0.14
-0.17
-0.195
-0.22
-0.22
-0.225
-0.195
-0.155
-0.095
-0.045
0.01
0.055
0.1
0.115
0.135
0.135
0.14
0.14
0.14
0.135
0.14
0.125
0.125
0.115
0.12
0.115
0.115
0.115
0.13
0.115
0.13
0.125
0.14
0.145
0.13
0.135
0.14
0.14
0.135
0.135
0.14
0.145
0.135
0.11
0.095
0.07
0.08
0.065
0.045
0.035
0.05
0.035
0.07
0.125
0.16
0.16
0.17
0.175
0.175
0.17
0.17
0.15
0.175
0.065
-0.36
-0.985
-0.985
0.115
0.875
0.665
0.42
0.23
0.17
0.125
0.115
0.095
0.1
0.08
0.09
0.075
0.06
0.045
0.03
0.02
0.005
-0.02
-0.05
-0.08
-0.11
-0.165
-0.195
-0.235
-0.275
-0.305
-0.325
-0.315
-0.28
-0.215
-0.13
-0.065
0.015
0.055
0.095
0.115
0.125
0.125
0.13
0.135
0.145
0.145
0.145
0.145
0.145
0.14
0.145
0.14
0.135
0.115
0.12
0.12
0.13
0.13
0.155
0.14
0.14
0.135
0.135
0.135
0.14
0.14
0.135
0.14
0.15
0.14
0.14
0.15
0.145
0.14
0.145
0.13
0.105
0.075
0.09
0.08
0.045
0.045
0.075
0.08
0.105
0.145
0.16
0.16
0.165
0.165
0.165
0.155
0.15
0.135
0.155
0.015
-0.44
-1.04
-0.835
0.28
0.855
0.61
0.375
0.2
0.145
0.105
0.095
0.085
0.075
0.065
0.06
0.06
0.055
0.03
0.025
0.005
-0.005
-0.03
-0.055
-0.085
-0.11
-0.165
-0.2
-0.235
-0.27
-0.29
-0.3
-0.31
-0.27
-0.215
-0.135
-0.075
-0.005
0.045
0.075
0.095
0.105
0.105
0.115
0.11
0.12
0.115
0.12
0.11
0.13
0.125
0.125
0.12
0.115
0.115
0.115
0.12
0.125
0.12
0.13
0.12
0.125
0.125
0.135
0.125
0.13
0.125
0.135
0.13
0.135
0.135
0.145
0.135
0.135
0.125
0.11
0.09
0.085
0.08
0.08
0.065
0.065
0.065
0.065
0.08
0.13
0.145
0.155
0.15
0.155
0.145
0.145
0.135
0.135
0.135
-0.01
-0.515
-1.105
-0.67
0.445
0.795
0.56
0.315
0.155
0.105
0.085
0.07
0.06
0.04
0.035
0.03
0.03
0.005
0.005
-0.005
-0.025
-0.045
-0.06
-0.095
-0.125
-0.15
-0.19
-0.235
-0.265
-0.3
-0.325
-0.335
-0.325
-0.29
-0.235
-0.17
-0.105
-0.045
0.01
0.03
0.045
0.05
0.06
0.06
0.07
0.065
0.08
0.08
0.08
0.08
0.065
0.05
0.055
0.05
0.045
0.055
0.07
0.065
0.065
0.055
0.055
0.055
0.065
0.065
0.065
0.08
0.07
0.07
0.08
0.075
0.07
0.07
0.07
0.055
0.065
0.04
0.025
0.025
0.04
0.025
0.02
-0.005
-0.01
-0.01
0.03
0.06
0.075
0.08
0.085
0.08
0.085
0.09
0.085
0.08
0.1
-0.035
-0.47
-1.055
-0.78
0.3
0.785
0.56
0.335
0.15
0.08
0.04
0.04
0.025
0.01
0.01
0.015
-0.005
-0.01
-0.025
-0.025
-0.05
-0.07
-0.09
-0.095
-0.125
-0.165
-0.21
-0.24
-0.27
-0.29
-0.32
-0.33
-0.325
-0.285
-0.245
-0.18
-0.115
-0.06
-0.025
0.025
0.045
0.055
0.055
0.065
0.06
0.06
0.055
0.06
0.05
0.05
0.045
0.05
0.035
0.035
0.045
0.065
0.05
0.05
0.05
0.05
0.05
0.06
0.06
0.055
0.065
0.08
0.07
0.065
0.05
0.03
0.02
0.025
0.005
-0.025
-0.035
-0.02
-0.02
0.005
0.035
0.08
0.08
0.095
0.105
0.115
0.11
0.095
0.085
0.11
0.135
-0.015
-0.56
-1.145
-0.55
0.475
0.645
0.56
0.375
0.185
0.095
0.08
0.08
0.025
0.01
0.025
0.015
0.005
-0.02
-0.005
-0.025
-0.05
-0.045
-0.045
-0.1
-0.12
-0.145
-0.185
-0.225
-0.235
-0.26
-0.27
-0.285
-0.265
-0.235
-0.2
-0.145
-0.08
-0.045
0.01
0.045
0.06
0.065
0.06
0.065
0.08
0.085
0.07
0.07
0.09
0.075
0.06
0.07
0.095
0.095
0.095
0.08
0.09
0.095
0.1
0.1
0.105
0.1
0.075
0.035
0.02
-0.04
-0.195
-0.52
-1.035
-1.585
-2.085
-2.47
-2.765
-2.96
-3.085
-3.09
-2.58
-1.585
-0.575
0.125
0.445
0.525
0.595
0.645
0.705
0.735
0.76
0.81
0.895
0.955
1.05
1.155
1.265
1.37
1.48
1.56
1.635
1.7
1.715
1.69
1.625
1.52
1.365
1.185
0.985
0.785
0.605
0.445
0.34
0.265
0.225
0.19
0.17
0.155
0.16
0.14
0.135
0.135
0.14
0.14
0.13
0.11
0.12
0.1
0.105
0.09
0.085
0.08
0.09
0.085
0.08
0.065
0.08
0.08
0.07
0.08
0.07
0.06
0.07
0.06
0.065
0.07
0.065
0.065
0.07
0.07
0.065
0.065
0.055
0.055
0.065
0.06
0.065
0.055
0.05
0.045
0.025
-0.005
-0.005
-0.015
-0.03
-0.04
-0.05
-0.05
-0.04
-0.02
0.045
0.065
0.08
0.08
0.09
0.09
0.09
0.07
0.07
0.055
-0.19
-0.775
-1.355
-0.655
0.495
0.675
0.46
0.23
0.115
0.065
0.04
0.03
0.03
0.01
0.0
0.005
-0.005
-0.025
-0.025
-0.04
-0.065
-0.08
-0.1
-0.13
-0.165
-0.205
-0.23
-0.275
-0.31
-0.34
-0.365
-0.39
-0.38
-0.36
-0.31
-0.24
-0.165
-0.095
-0.045
-0.02
0.015
0.025
0.035
0.045
0.05
0.06
0.06
0.085
0.08
0.085
0.085
0.08
0.08
0.085
0.08
0.085
0.08
0.08
0.07
0.08
0.08
0.08
0.08
0.08
0.08
0.08
0.07
0.08
0.08
0.075
0.08
0.08
0.08
0.075
0.06
0.07
0.07
0.055
0.02
0.005
-0.02
-0.025
-0.02
0.01
0.03
0.035
0.055
0.07
0.08
0.06
0.06
0.055
0.05
0.035
0.045
-0.09
-0.525
-1.165
-1.0
0.08
0.575
0.435
0.295
0.13
0.08
0.035
0.02
0.005
0.005
-0.005
-0.02
-0.03
-0.03
-0.045
-0.045
-0.06
-0.08
-0.08
-0.105
-0.13
-0.15
-0.185
-0.215
-0.25
-0.285
-0.31
-0.325
-0.335
-0.345
-0.335
-0.295
-0.24
-0.18
-0.125
-0.08
-0.04
-0.02
-0.005
0.015
0.015
0.015
0.02
0.01
0.01
0.005
0.005
-0.005
-0.01
-0.01
-0.01
-0.02
-0.02
-0.025
-0.025
-0.02
-0.005
-0.01
-0.005
-0.005
-0.005
0.005
0.0
0.005
0.005
0.005
0.01
0.01
0.015
0.01
-0.015
-0.03
-0.04
-0.075
-0.085
-0.05
-0.015
-0.01
0.005
0.025
0.035
0.03
0.025
0.025
0.015
0.01
0.005
0.015
-0.095
-0.465
-1.02
-1.03
-0.035
0.595
0.455
0.295
0.105
0.025
-0.02
-0.035
-0.045
-0.06
-0.065
-0.075
-0.085
-0.095
-0.1
-0.105
-0.125
-0.13
-0.145
-0.165
-0.185
-0.22
-0.255
-0.3
-0.34
-0.37
-0.39
-0.41
-0.41
-0.395
-0.345
-0.285
-0.215
-0.155
-0.105
-0.065
-0.05
-0.03
-0.015
-0.015
-0.005
0.0
0.005
0.005
-0.005
-0.01
-0.015
-0.02
-0.03
-0.03
-0.03
-0.03
-0.025
-0.025
-0.02
-0.015
-0.015
-0.025
-0.01
-0.01
-0.01
-0.015
-0.01
-0.005
-0.005
-0.005
0.0
-0.005
-0.005
-0.005
-0.005
-0.03
-0.045
-0.055
-0.075
-0.08
-0.065
-0.04
-0.015
-0.01
0.0
0.025
0.02
0.025
0.015
0.005
-0.01
-0.01
-0.01
-0.01
-0.185
-0.62
-1.18
-0.705
0.27
0.49
0.39
0.22
0.06
-0.005
-0.03
-0.045
-0.06
-0.07
-0.075
-0.07
-0.085
-0.08
-0.1
-0.105
-0.115
-0.135
-0.145
-0.165
-0.195
-0.22
-0.255
-0.295
-0.325
-0.355
-0.38
-0.395
-0.4
-0.385
-0.345
-0.28
-0.215
-0.15
-0.1
-0.06
-0.025
-0.01
-0.005
-0.01
0.0
-0.01
-0.005
-0.005
-0.005
0.005
-0.005
-0.01
-0.015
-0.02
-0.02
-0.025
-0.01
-0.005
-0.005
0.0
-0.01
0.005
0.015
0.015
0.005
0.01
0.005
0.01
0.01
0.02
0.035
0.025
0.01
-0.01
-0.025
-0.055
-0.07
-0.035
-0.01
0.02
0.01
0.03
0.045
0.04
0.03
0.025
0.035
0.025
0.03
0.015
0.065
-0.005
-0.375
-0.985
-0.96
-0.115
0.39
0.41
0.315
0.14
0.055
-0.005
-0.015
-0.025
-0.045
-0.045
-0.05
-0.05
-0.055
-0.055
-0.065
-0.07
-0.07
-0.09
-0.11
-0.135
-0.17
-0.195
-0.225
-0.27
-0.3
-0.31
-0.325
-0.34
-0.33
-0.295
-0.25
-0.19
-0.14
-0.08
-0.055
-0.03
-0.015
-0.005
-0.01
-0.01
-0.005
-0.015
-0.015
-0.015
-0.02
-0.025
-0.03
-0.03
-0.035
-0.025
-0.02
-0.01
-0.005
0.0
0.005
0.01
0.01
0.015
0.015
0.02
0.02
0.015
0.015
0.015
0.02
0.02
0.02
0.025
0.02
0.02
0.015
-0.005
-0.025
-0.035
-0.065
-0.06
-0.03
-0.005
0.0
0.015
0.03
0.04
0.035
0.03
0.025
0.02
0.015
0.005
0.005
-0.035
-0.285
-0.815
-1.34
-0.56
0.425
0.485
0.36
0.16
0.025
-0.025
-0.055
-0.065
-0.07
-0.075
-0.09
-0.095
-0.1
-0.11
-0.12
-0.135
-0.13
-0.145
-0.17
-0.185
-0.215
-0.24
-0.285
-0.31
-0.35
-0.385
-0.405
-0.42
-0.41
-0.375
-0.325
-0.25
-0.19
-0.14
-0.09
-0.055
-0.04
-0.02
-0.015
0.005
0.005
0.0
0.005
0.0
-0.005
-0.01
-0.01
-0.02
-0.025
-0.025
-0.03
-0.025
-0.03
-0.02
-0.025
-0.015
-0.005
-0.01
-0.005
-0.005
-0.005
-0.005
0.0
-0.005
-0.01
-0.02
-0.025
-0.02
-0.025
-0.02
-0.03
-0.03
-0.035
-0.035
-0.035
-0.04
-0.035
-0.04
-0.04
-0.045
-0.075
-0.095
-0.115
-0.135
-0.135
-0.1
-0.085
-0.075
-0.065
-0.05
-0.04
-0.035
-0.04
-0.05
-0.045
-0.055
-0.06
-0.07
-0.08
-0.24
-0.69
-1.25
-0.795
0.23
0.495
0.36
0.175
0.015
-0.045
-0.065
-0.08
-0.08
-0.095
-0.1
-0.105
-0.105
-0.105
-0.11
-0.12
-0.13
-0.15
-0.155
-0.165
-0.19
-0.22
-0.275
-0.31
-0.345
-0.38
-0.4
-0.4
-0.41
-0.395
-0.345
-0.28
-0.22
-0.165
-0.115
-0.07
-0.05
-0.035
-0.02
-0.01
0.005
0.01
0.015
0.02
0.025
0.02
0.025
0.015
0.01
-0.005
-0.005
-0.005
-0.01
-0.015
-0.01
-0.005
0.01
0.02
0.025
0.025
0.02
0.02
0.02
0.02
0.03
0.015
0.01
0.005
0.015
0.02
0.02
0.015
0.01
0.01
0.015
0.015
0.015
0.01
0.01
0.015
0.015
0.015
0.025
0.03
0.025
0.005
-0.015
-0.06
-0.08
-0.04
-0.005
0.015
0.015
0.035
0.045
0.045
0.045
0.035
0.03
0.025
0.025
0.02
0.025
0.04
-0.13
-0.595
-1.21
-0.8
0.17
0.42
0.4
0.25
0.08
0.015
-0.01
-0.025
-0.03
-0.045
-0.055
-0.06
-0.055
-0.065
-0.06
-0.065
-0.07
-0.08
-0.095
-0.12
-0.145
-0.175
-0.2
-0.23
-0.255
-0.285
-0.31
-0.32
-0.325
-0.325
-0.285
-0.23
-0.18
-0.125
-0.085
-0.045
-0.02
-0.01
0.01
0.01
0.01
0.005
0.005
0.01
0.005
0.0
-0.01
-0.02
-0.02
-0.02
-0.015
-0.015
-0.015
-0.01
-0.01
-0.01
-0.005
-0.005
-0.005
0.005
0.005
0.005
0.005
0.01
0.005
0.005
0.005
-0.005
-0.005
-0.01
-0.01
-0.005
-0.005
-0.01
-0.015
-0.01
-0.01
-0.01
-0.01
-0.01
-0.015
-0.025
-0.025
-0.02
-0.025
-0.025
-0.02
-0.015
-0.025
-0.035
-0.06
-0.075
-0.095
-0.125
-0.1
-0.07
-0.045
-0.035
-0.025
-0.01
-0.01
-0.01
-0.015
-0.025
-0.025
-0.035
-0.04
-0.055
-0.035
-0.14
-0.48
-1.065
-1.18
-0.185
0.52
0.395
0.26
0.08
-0.005
-0.045
-0.055
-0.07
-0.08
-0.08
-0.095
-0.1
-0.105
-0.115
-0.115
-0.125
-0.135
-0.15
-0.17
-0.195
-0.225
-0.26
-0.295
-0.335
-0.375
-0.395
-0.425
-0.435
-0.435
-0.41
-0.355
-0.29
-0.225
-0.17
-0.13
-0.09
-0.07
-0.06
-0.045
-0.045
-0.045
-0.045
-0.04
-0.05
-0.045
-0.04
-0.05
-0.05
-0.055
-0.07
-0.065
-0.065
-0.07
-0.07
-0.065
-0.065
-0.06
-0.055
-0.06
-0.05
-0.045
-0.045
-0.045
-0.04
-0.035
-0.045
-0.035
-0.04
-0.04
-0.05
-0.045
-0.045
-0.045
-0.05
-0.045
-0.045
-0.045
-0.045
-0.04
-0.04
-0.035
-0.04
-0.04
-0.04
-0.04
-0.05
-0.05
-0.04
-0.035
-0.045
-0.075
-0.1
-0.11
-0.145
-0.13
-0.1
-0.075
-0.075
-0.06
-0.05
-0.045
-0.045
-0.045
-0.05
-0.055
-0.055
-0.055
-0.065
-0.075
-0.08
-0.265
-0.735
-1.3
-0.805
0.215
0.45
0.34
0.165
0.015
-0.045
-0.08
-0.08
-0.095
-0.105
-0.115
-0.115
-0.125
-0.13
-0.135
-0.15
-0.16
-0.17
-0.185
-0.21
-0.23
-0.25
-0.305
-0.34
-0.38
-0.415
-0.445
-0.465
-0.465
-0.45
-0.41
-0.35
-0.29
-0.23
-0.185
-0.145
-0.12
-0.095
-0.085
-0.08
-0.075
-0.07
-0.06
-0.06
-0.065
-0.07
-0.07
-0.075
-0.075
-0.08
-0.08
-0.09
-0.09
-0.09
-0.095
-0.125
-0.15
-0.195
-0.26
-0.425
-0.81
-1.39
-2.0
-2.46
-2.82
-3.0
-3.075
-3.205
-3.11
-2.405
-1.355
-0.435
0.085
0.265
0.355
0.44
0.53
0.605
0.635
0.645
0.655
0.665
0.725
0.82
0.93
1.035
1.165
1.29
1.4
1.505
1.565
1.59
1.56
1.475
1.345
1.155
0.95
0.715
0.515
0.335
0.185
0.085
0.015
-0.03
-0.05
-0.07
-0.07
-0.075
-0.08
-0.07
-0.075
-0.07
-0.065
-0.065
-0.07
-0.075
-0.075
-0.07
-0.075
-0.08
-0.08
-0.08
-0.085
-0.09
-0.08
-0.095
-0.085
-0.095
-0.1
-0.095
-0.095
-0.09
-0.08
-0.095
-0.09
-0.095
-0.08
-0.09
-0.09
-0.095
-0.09
-0.095
-0.08
-0.09
-0.095
-0.09
-0.08
-0.085
-0.09
-0.095
-0.09
-0.09
-0.09
-0.09
-0.08
-0.09
-0.095
-0.095
-0.1
-0.1
-0.095
-0.1
-0.1
-0.1
-0.1
-0.1
-0.105
-0.115
-0.105
-0.105
-0.1
-0.105
-0.105
-0.105
-0.105
-0.11
-0.1
-0.11
-0.115
-0.115
-0.105
-0.115
-0.115
-0.115
-0.115
-0.115
-0.115
-0.12
-0.13
-0.13
-0.125
-0.125
-0.13
-0.13
-0.13
-0.13
-0.125
-0.115
-0.115
-0.12
-0.12
-0.125
-0.135
-0.15
-0.17
-0.205
-0.195
-0.165
-0.145
-0.13
-0.125
-0.11
-0.1
-0.1
-0.095
-0.095
-0.095
-0.095
-0.105
-0.08
-0.08
-0.305
-0.875
-1.515
-0.87
0.14
0.295
0.28
0.12
-0.025
-0.065
-0.095
-0.11
-0.12
-0.125
-0.125
-0.135
-0.135
-0.13
-0.13
-0.135
-0.14
-0.145
-0.165
-0.175
-0.185
-0.21
-0.23
-0.24
-0.275
-0.29
-0.31
-0.325
-0.33
-0.345
-0.345
-0.325
-0.285
-0.25
-0.22
-0.185
-0.155
-0.135
-0.115
-0.105
-0.105
-0.105
-0.095
-0.105
-0.1
-0.1
-0.095
-0.105
-0.105
-0.105
-0.105
-0.1
-0.1
-0.095
-0.09
-0.08
-0.08
-0.075
-0.07
-0.07
-0.065
-0.065
-0.06
-0.055
-0.06
-0.055
-0.055
-0.05
-0.055
-0.055
-0.055
-0.06
-0.06
-0.055
-0.06
-0.06
-0.05
-0.065
-0.08
-0.11
-0.145
-0.155
-0.115
-0.08
-0.065
-0.065
-0.04
-0.035
-0.035
-0.035
-0.03
-0.035
-0.035
-0.04
-0.045
-0.045
-0.025
-0.215
-0.745
-1.385
-0.925
0.095
0.375
0.355
0.205
0.025
-0.04
-0.08
-0.095
-0.12
-0.125
-0.135
-0.13
-0.135
-0.135
-0.14
-0.145
-0.165
-0.175
-0.19
-0.195
-0.22
-0.235
-0.275
-0.31
-0.35
-0.37
-0.38
-0.385
-0.39
-0.37
-0.335
-0.285
-0.245
-0.19
-0.145
-0.115
-0.08
-0.07
-0.055
-0.05
-0.045
-0.045
-0.05
-0.045
-0.05
-0.06
-0.07
-0.075
-0.08
-0.09
-0.09
-0.095
-0.095
-0.08
-0.085
-0.07
-0.07
-0.065
-0.07
-0.075
-0.075
-0.07
-0.07
-0.07
-0.065
-0.06
-0.065
-0.065
-0.07
-0.07
-0.07
-0.065
-0.065
-0.07
-0.075
-0.07
-0.065
-0.06
-0.06
-0.065
-0.08
-0.105
-0.115
-0.14
-0.165
-0.145
-0.11
-0.08
-0.08
-0.07
-0.05
-0.05
-0.06
-0.06
-0.055
-0.065
-0.07
-0.075
-0.085
-0.11
-0.365
-0.91
-1.44
-0.66
0.355
0.43
0.31
0.11
-0.03
-0.075
-0.1
-0.115
-0.13
-0.135
-0.145
-0.15
-0.16
-0.16
-0.165
-0.17
-0.19
-0.195
-0.215
-0.23
-0.26
-0.29
-0.33
-0.365
-0.405
-0.43
-0.445
-0.46
-0.47
-0.445
-0.4
-0.34
-0.28
-0.215
-0.165
-0.13
-0.1
-0.09
-0.08
-0.075
-0.055
-0.05
-0.055
-0.055
-0.06
-0.065
-0.07
-0.065
-0.065
-0.065
-0.065
-0.065
-0.065
-0.075
-0.065
-0.065
-0.05
-0.055
-0.06
-0.06
-0.055
-0.045
-0.045
-0.04
-0.04
-0.05
-0.05
-0.05
-0.045
-0.035
-0.04
-0.05
-0.045
-0.04
-0.04
-0.045
-0.045
-0.045
-0.055
-0.05
-0.04
-0.045
-0.045
-0.04
-0.06
-0.075
-0.115
-0.135
-0.125
-0.085
-0.065
-0.06
-0.06
-0.045
-0.035
-0.035
-0.04
-0.04
-0.035
-0.045
-0.045
-0.05
-0.005
-0.12
-0.555
-1.19
-1.065
-0.145
0.355
0.365
0.26
0.07
-0.01
-0.05
-0.07
-0.08
-0.08
-0.09
-0.095
-0.095
-0.115
-0.11
-0.115
-0.115
-0.125
-0.13
-0.15
-0.17
-0.2
-0.235
-0.26
-0.28
-0.305
-0.335
-0.35
-0.36
-0.36
-0.325
-0.27
-0.225
-0.17
-0.13
-0.1
-0.07
-0.055
-0.035
-0.015
-0.015
-0.02
-0.015
-0.025
-0.03
-0.025
-0.03
-0.035
-0.04
-0.04
-0.03
-0.035
-0.035
-0.03
-0.035
-0.04
-0.03
-0.015
-0.015
-0.005
-0.005
-0.02
-0.015
-0.01
-0.005
-0.01
-0.01
-0.005
-0.005
-0.005
-0.005
-0.01
-0.005
-0.01
-0.01
-0.005
-0.01
-0.04
-0.045
-0.08
-0.115
-0.095
-0.055
-0.03
-0.03
-0.015
-0.005
0.005
0.005
0.005
0.005
-0.005
0.005
-0.005
-0.01
0.03
-0.11
-0.575
-1.215
-1.015
-0.06
0.385
0.4
0.28
0.095
0.015
-0.03
-0.05
-0.065
-0.07
-0.09
-0.095
-0.095
-0.08
-0.09
-0.095
-0.1
-0.125
-0.135
-0.155
-0.18
-0.205
-0.235
-0.27
-0.305
-0.335
-0.35
-0.37
-0.375
-0.355
-0.325
-0.285
-0.22
-0.165
-0.12
-0.09
-0.07
-0.05
-0.04
-0.03
-0.025
-0.02
-0.02
-0.025
-0.025
-0.03
-0.04
-0.05
-0.05
-0.055
-0.055
-0.055
-0.055
-0.055
-0.055
-0.045
-0.045
-0.04
-0.03
-0.025
-0.03
-0.025
-0.03
-0.025
-0.02
-0.015
-0.025
-0.025
-0.025
-0.025
-0.02
-0.02
-0.025
-0.02
-0.02
-0.015
-0.015
-0.02
-0.015
-0.015
-0.01
-0.01
-0.025
-0.04
-0.055
-0.065
-0.095
-0.08
-0.05
-0.035
-0.025
-0.005
0.005
0.01
0.005
0.0
0.005
0.01
0.01
0.0
-0.005
-0.015
-0.225
-0.73
-1.33
-0.76
0.295
0.52
0.4
0.2
0.055
-0.005
-0.03
-0.045
-0.055
-0.055
-0.065
-0.065
-0.075
-0.075
-0.075
-0.08
-0.095
-0.11
-0.13
-0.145
-0.17
-0.205
-0.235
-0.28
-0.32
-0.355
-0.385
-0.405
-0.4
-0.38
-0.345
-0.285
-0.215
-0.15
-0.09
-0.055
-0.025
-0.005
0.005
0.015
0.02
0.025
0.025
0.035
0.04
0.035
0.03
0.025
0.02
0.015
0.01
0.005
0.005
0.0
0.005
0.015
0.015
0.015
0.015
0.02
0.025
0.03
0.035
0.035
0.045
0.04
0.04
0.04
0.04
0.04
0.035
0.045
0.035
0.035
0.035
0.04
0.04
0.04
0.035
0.04
0.04
0.035
0.035
0.04
0.04
0.045
0.025
0.015
0.005
-0.03
-0.06
-0.045
-0.01
0.015
0.02
0.025
0.035
0.05
0.035
0.03
0.02
0.02
0.01
0.005
-0.005
0.03
-0.055
-0.4
-0.995
-1.185
-0.315
0.415
0.405
0.315
0.12
0.035
-0.01
-0.015
-0.035
-0.045
-0.06
-0.06
-0.05
-0.055
-0.07
-0.07
-0.08
-0.08
-0.105
-0.11
-0.125
-0.155
-0.18
-0.205
-0.24
-0.28
-0.31
-0.325
-0.345
-0.34
-0.325
-0.275
-0.22
-0.165
-0.11
-0.045
-0.01
0.01
0.005
0.025
0.035
0.04
0.035
0.05
0.045
0.05
0.055
0.05
0.04
0.04
0.035
0.04
0.02
0.03
0.035
0.05
0.055
0.065
0.055
0.055
0.045
0.065
0.075
0.055
0.065
0.07
0.065
0.08
0.065
0.08
0.07
0.065
0.05
0.055
0.055
0.05
0.05
0.06
0.045
0.04
0.025
0.005
-0.03
-0.025
0.0
0.03
0.045
0.04
0.045
0.065
0.065
0.08
0.07
0.07
0.055
0.06
0.06
0.095
0.075
-0.165
-0.73
-1.31
-0.66
0.315
0.44
0.41
0.245
0.11
0.055
0.03
0.01
0.0
-0.01
-0.01
-0.005
-0.005
-0.015
-0.025
-0.015
-0.02
-0.04
-0.05
-0.075
-0.095
-0.13
-0.15
-0.195
-0.225
-0.255
-0.27
-0.29
-0.295
-0.27
-0.235
-0.18
-0.12
-0.07
-0.02
0.005
0.035
0.05
0.06
0.065
0.065
0.065
0.07
0.055
0.055
0.045
0.05
0.04
0.045
0.05
0.05
0.05
0.05
0.035
0.025
-0.01
-0.035
-0.08
-0.2
-0.485
-1.005
-1.645
-2.15
-2.54
-2.88
-3.08
-3.24
-3.29
-2.895
-1.96
-0.865
-0.075
0.325
0.45
0.555
0.63
0.695
0.72
0.735
0.75
0.805
0.87
0.96
1.06
1.185
1.315
1.455
1.585
1.71
1.795
1.855
1.86
1.82
1.71
1.55
1.35
1.125
0.88
0.65
0.44
0.285
0.175
0.115
0.08
0.065
0.05
0.055
0.05
0.05
0.055
0.06
0.055
0.045
0.04
0.045
0.035
0.04
0.03
0.035
0.025
0.03
0.015
0.015
0.01
0.015
0.005
0.015
0.005
0.015
0.005
0.02
0.01
0.015
0.015
0.015
0.01
0.015
0.015
0.015
0.005
0.01
0.005
-0.005
-0.005
-0.005
-0.01
0.0
0.005
0.005
-0.005
-0.005
-0.005
0.0
-0.005
-0.005
-0.01
-0.005
-0.015
0.005
0.0
0.005
0.005
0.005
-0.005
0.005
0.0
0.005
0.0
0.005
-0.005
0.0
-0.005
-0.005
-0.015
0.0
-0.005
0.005
0.005
-0.005
-0.03
-0.035
-0.05
-0.085
-0.085
-0.05
-0.035
-0.015
-0.025
0.005
0.015
0.015
0.0
0.01
0.005
-0.005
-0.01
0.01
-0.12
-0.545
-1.19
-1.14
-0.105
0.52
0.415
0.275
0.09
0.025
-0.015
-0.035
-0.045
-0.055
-0.065
-0.06
-0.07
-0.08
-0.085
-0.09
-0.09
-0.1
-0.115
-0.125
-0.145
-0.17
-0.19
-0.22
-0.26
-0.285
-0.31
-0.335
-0.36
-0.365
-0.365
-0.34
-0.3
-0.245
-0.2
-0.15
-0.11
-0.08
-0.06
-0.045
-0.04
-0.035
-0.04
-0.03
-0.035
-0.04
-0.045
-0.05
-0.05
-0.045
-0.055
-0.055
-0.065
-0.045
-0.04
-0.035
-0.035
-0.03
-0.025
-0.01
-0.01
0.01
0.0
0.005
-0.005
-0.015
-0.015
-0.015
-0.015
-0.015
-0.01
-0.02
-0.015
-0.015
-0.015
-0.01
-0.035
-0.035
-0.06
-0.1
-0.095
-0.055
-0.03
-0.02
-0.015
-0.005
0.015
0.005
0.005
0.015
0.005
-0.005
-0.005
-0.01
0.025
-0.105
-0.58
-1.215
-0.93
0.025
0.395
0.4
0.285
0.1
0.025
-0.015
-0.035
-0.045
-0.06
-0.065
-0.065
-0.07
-0.075
-0.075
-0.075
-0.09
-0.085
-0.095
-0.125
-0.145
-0.18
-0.21
-0.24
-0.265
-0.295
-0.305
-0.315
-0.325
-0.32
-0.285
-0.225
-0.17
-0.115
-0.075
-0.035
-0.005
0.005
0.02
0.025
0.035
0.035
0.045
0.04
0.035
0.03
0.015
0.015
0.015
0.01
0.005
-0.005
0.01
0.005
0.02
0.025
0.035
0.035
0.035
0.04
0.035
0.035
0.04
0.035
0.05
0.05
0.055
0.045
0.025
0.015
-0.005
-0.04
-0.045
-0.005
0.01
0.03
0.035
0.055
0.08
0.075
0.07
0.065
0.075
0.065
0.06
0.055
0.1
-0.005
-0.435
-1.075
-0.985
-0.07
0.45
0.46
0.36
0.165
0.095
0.05
0.03
0.02
0.01
0.0
-0.005
-0.015
-0.02
-0.025
-0.025
-0.02
-0.045
-0.055
-0.07
-0.08
-0.105
-0.14
-0.18
-0.21
-0.245
-0.27
-0.275
-0.29
-0.275
-0.25
-0.19
-0.135
-0.075
-0.035
0.015
0.035
0.045
0.07
0.075
0.085
0.085
0.085
0.08
0.08
0.06
0.055
0.05
0.045
0.035
0.025
0.035
0.03
0.045
0.045
0.05
0.055
0.055
0.075
0.08
0.07
0.07
0.08
0.09
0.09
0.095
0.09
0.07
0.055
0.035
-0.005
-0.015
0.025
0.05
0.065
0.065
0.09
0.105
0.105
0.095
0.095
0.095
0.09
0.085
0.08
0.115
0.03
-0.35
-0.965
-1.085
-0.205
0.49
0.51
0.41
0.22
0.135
0.085
0.065
0.05
0.035
0.02
0.015
0.02
0.015
0.01
0.01
-0.01
-0.015
-0.035
-0.045
-0.08
-0.105
-0.14
-0.175
-0.21
-0.24
-0.265
-0.285
-0.28
-0.28
-0.24
-0.195
-0.145
-0.075
-0.03
0.01
0.035
0.06
0.07
0.085
0.095
0.09
0.095
0.09
0.095
0.09
0.085
0.07
0.055
0.045
0.04
0.045
0.035
0.04
0.05
0.06
0.07
0.08
0.08
0.08
0.085
0.08
0.085
0.09
0.085
0.08
0.085
0.085
0.085
0.085
0.08
0.065
0.055
0.04
0.015
0.005
0.03
0.05
0.07
0.07
0.08
0.095
0.095
0.1
0.095
0.095
0.09
0.075
0.065
0.07
-0.045
-0.435
-1.05
-1.065
0.01
0.67
0.495
0.345
0.155
0.085
0.055
0.04
0.02
0.015
0.01
0.005
-0.015
-0.02
-0.025
-0.035
-0.045
-0.05
-0.065
-0.08
-0.11
-0.145
-0.175
-0.215
-0.26
-0.29
-0.32
-0.345
-0.35
-0.34
-0.295
-0.235
-0.165
-0.095
-0.035
-0.005
0.03
0.04
0.065
0.065
0.085
0.085
0.085
0.08
0.08
0.08
0.08
0.07
0.06
0.055
0.05
0.045
0.05
0.045
0.05
0.05
0.055
0.06
0.065
0.065
0.055
0.06
0.06
0.055
0.06
0.06
0.055
0.06
0.06
0.055
0.065
0.06
0.035
0.025
0.005
-0.02
-0.025
0.01
0.02
0.03
0.045
0.055
0.07
0.065
0.07
0.065
0.06
0.055
0.045
0.035
0.04
-0.11
-0.53
-1.11
-0.87
0.165
0.61
0.47
0.295
0.105
0.045
0.005
0.005
-0.015
-0.025
-0.03
-0.045
-0.05
-0.055
-0.065
-0.06
-0.08
-0.085
-0.095
-0.11
-0.145
-0.18
-0.21
-0.24
-0.285
-0.33
-0.365
-0.375
-0.38
-0.375
-0.33
-0.265
-0.195
-0.13
-0.075
-0.03
0.0
0.005
0.025
0.035
0.045
0.04
0.055
0.05
0.05
0.04
-0.005
-0.08
-0.22
-0.445
-0.83
-1.32
-1.89
-2.5
-2.87
-2.9
-2.8
-2.66
-2.38
-1.725
-0.89
-0.17
0.26
0.41
0.49
0.585
0.685
0.745
0.735
0.745
0.77
0.81
0.87
0.935
1.02
1.105
1.175
1.25
1.305
1.34
1.335
1.295
1.2
1.06
0.88
0.675
0.49
0.325
0.195
0.1
0.045
0.035
0.04
0.045
0.005
-0.025
-0.05
-0.09
-0.24
-0.67
-1.315
-1.975
-2.54
-3.005
-3.32
-3.435
-3.415
-2.95
-1.815
-0.685
0.01
0.345
0.455
0.535
0.575
0.635
0.685
0.745
0.85
0.975
1.115
1.23
1.295
1.365
1.475
1.605
1.715
1.815
1.875
1.905
1.895
1.805
1.665
1.48
1.24
0.995
0.775
0.585
0.425
0.305
0.225
0.175
0.135
0.115
0.105
0.105
0.105
0.105
0.1
0.1
0.08
0.08
0.08
0.07
0.065
0.065
0.07
0.075
0.08
0.075
0.08
0.075
0.08
0.075
0.08
0.085
0.085
0.09
0.095
0.085
0.085
0.095
0.09
0.1
0.1
0.095
0.095
0.1
0.105
0.115
0.115
0.1
0.095
0.11
0.11
0.105
0.105
0.11
0.11
0.11
0.11
0.115
0.12
0.115
0.105
0.1
0.105
0.11
0.11
0.105
0.11
0.105
0.1
0.11
0.11
0.115
0.11
0.115
0.115
0.115
0.11
0.11
0.105
0.105
0.1
0.105
0.105
0.105
0.105
0.11
0.11
0.11
0.11
0.11
0.105
0.11
0.105
0.105
0.105
0.105
0.095
0.095
0.085
0.09
0.085
0.07
0.06
0.075
0.07
0.05
0.065
0.06
0.05
0.075
0.095
0.105
0.095
0.105
0.095
0.06
0.05
0.12
-0.045
-0.54
-1.245
-1.02
0.035
0.525
0.465
0.345
0.18
0.12
0.08
0.06
0.035
0.035
0.03
0.035
0.025
0.025
0.015
0.015
-0.005
-0.01
-0.025
-0.035
-0.05
-0.06
-0.07
-0.08
-0.095
-0.105
-0.12
-0.125
-0.13
-0.125
-0.12
-0.12
-0.105
-0.09
-0.06
-0.035
-0.025
0.005
0.025
0.04
0.04
0.05
0.055
0.045
0.04
0.035
0.01
-0.045
-0.13
-0.26
-0.495
-0.89
-1.375
-1.965
-2.535
-2.685
-2.52
-2.405
-2.345
-2.215
-1.76
-0.96
-0.18
0.285
0.45
0.55
0.655
0.715
0.72
0.71
0.72
0.74
0.785
0.845
0.93
1.025
1.11
1.205
1.275
1.345
1.375
1.365
1.315
1.21
1.075
0.915
0.73
0.55
0.375
0.245
0.135
0.085
0.06
0.06
0.06
0.07
0.085
0.095
0.085
0.08
0.08
0.08
0.085
0.085
0.085
0.085
0.085
0.08
0.08
0.07
0.07
0.065
0.07
0.075
0.065
0.06
0.06
0.065
0.065
0.08
0.075
0.08
0.075
0.08
0.08
0.075
0.085
0.085
0.08
0.08
0.08
0.09
0.08
0.085
0.08
0.08
0.08
0.08
0.08
0.085
0.08
0.075
0.08
0.085
0.09
0.08
0.08
0.07
0.07
0.08
0.08
0.075
0.08
0.075
0.07
0.08
0.075
0.08
0.075
0.07
0.045
0.035
0.005
-0.025
-0.015
0.03
0.055
0.055
0.055
0.065
0.075
0.08
0.075
0.075
0.055
0.055
0.075
-0.1
-0.575
-1.21
-0.865
0.155
0.505
0.445
0.295
0.13
0.085
0.045
0.035
0.02
0.01
-0.005
-0.005
-0.01
-0.015
-0.015
-0.02
-0.025
-0.04
-0.065
-0.08
-0.08
-0.105
-0.115
-0.14
-0.155
-0.185
-0.195
-0.215
-0.22
-0.225
-0.235
-0.215
-0.205
-0.17
-0.125
-0.085
-0.045
-0.015
0.005
0.01
0.015
0.025
0.035
0.03
0.03
0.035
0.025
0.025
0.02
0.025
0.03
0.025
0.03
0.03
0.045
0.055
0.055
0.045
0.035
-0.005
-0.04
-0.025
0.02
0.035
0.055
0.07
0.085
0.09
0.095
0.1
0.09
0.09
0.09
0.08
0.125
0.095
-0.225
-0.8
-1.03
-0.285
0.405
0.46
0.425
0.24
0.12
0.07
0.055
0.04
0.035
0.015
0.005
0.015
0.02
0.015
0.015
0.01
-0.005
-0.025
-0.025
-0.045
-0.09
-0.115
-0.13
-0.15
-0.17
-0.185
-0.19
-0.195
-0.185
-0.14
-0.095
-0.07
-0.025
0.03
0.065
0.08
0.095
0.105
0.095
0.11
0.1
0.095
0.09
0.085
0.08
0.08
0.07
0.055
-0.05
-0.225
-0.555
-1.25
-2.215
-3.3
-3.325
-2.075
-0.88
-0.275
-0.045
0.07
0.215
0.285
0.315
0.345
0.365
0.4
0.415
0.425
0.465
0.505
0.545
0.61
0.69
0.775
0.87
0.97
1.065
1.155
1.21
1.215
1.175
1.075
0.94
0.76
0.59
0.435
0.325
0.245
0.205
0.17
0.155
0.135
0.135
0.14
0.145
0.15
0.155
0.155
0.15
0.14
0.11
0.065
0.015
-0.045
-0.17
-0.465
-1.0
-1.615
-2.075
-2.42
-2.69
-2.82
-2.945
-2.935
-2.57
-1.765
-0.75
0.015
0.38
0.505
0.605
0.7
0.815
0.9
0.93
0.95
0.995
1.05
1.155
1.27
1.405
1.545
1.68
1.81
1.915
1.985
2.005
1.985
1.915
1.795
1.625
1.415
1.185
0.955
0.755
0.59
0.455
0.355
0.275
0.21
0.17
0.145
0.13
0.115
0.1
0.1
0.105
0.1
0.09
0.09
0.09
0.08
0.08
0.08
0.08
0.07
0.075
0.08
0.09
0.09
0.1
0.095
0.095
0.1
0.105
0.1
0.1
0.105
0.1
0.105
0.11
0.105
0.1
0.095
0.1
0.095
0.085
0.09
0.095
0.095
0.09
0.085
0.09
0.085
0.09
0.09
0.09
0.09
0.09
0.09
0.095
0.095
0.095
0.085
0.095
0.085
0.09
0.09
0.085
0.09
0.095
0.09
0.09
0.09
0.09
0.09
0.09
0.09
0.09
0.09
0.09
0.08
0.065
0.045
0.015
0.005
0.035
0.055
0.075
0.08
0.085
0.095
0.1
0.1
0.095
0.095
0.085
0.08
-0.145
-0.665
-1.26
-0.685
0.34
0.525
0.45
0.28
0.15
0.09
0.065
0.055
0.04
0.04
0.035
0.035
0.025
0.015
0.01
0.005
-0.01
-0.02
-0.03
-0.045
-0.055
-0.065
-0.09
-0.105
-0.12
-0.13
-0.135
-0.135
-0.14
-0.14
-0.135
-0.125
-0.105
-0.065
-0.02
0.005
0.025
0.06
0.08
0.085
0.095
0.095
0.085
0.09
0.1
0.09
0.07
0.055
0.055
0.07
0.07
0.07
0.065
0.07
0.08
0.08
0.085
0.08
0.07
0.08
0.065
0.025
0.025
0.055
0.075
0.095
0.1
0.115
0.135
0.135
0.125
0.13
0.13
0.115
0.115
0.16
0.11
-0.265
-0.86
-0.915
-0.125
0.445
0.495
0.42
0.23
0.13
0.085
0.055
0.05
0.05
0.035
0.035
0.03
0.015
0.01
0.015
0.015
0.005
-0.02
-0.04
-0.05
-0.07
-0.105
-0.135
-0.155
-0.17
-0.17
-0.18
-0.195
-0.17
-0.125
-0.075
-0.025
0.02
0.065
0.105
0.13
0.135
0.13
0.14
0.145
0.155
0.145
0.13
0.125
0.115
0.105
0.09
0.095
0.105
0.11
0.115
0.125
0.125
0.125
0.115
0.075
0.05
0.045
0.075
0.095
0.115
0.125
0.155
0.155
0.155
0.175
0.155
0.16
0.155
0.15
0.185
0.095
-0.295
-0.895
-0.81
0.02
0.505
0.54
0.43
0.255
0.185
0.14
0.13
0.115
0.105
0.095
0.085
0.08
0.065
0.055
0.065
0.055
0.055
0.055
0.025
-0.02
-0.05
-0.07
-0.105
-0.135
-0.16
-0.175
-0.185
-0.175
-0.145
-0.105
-0.05
0.01
0.045
0.085
0.125
0.15
0.165
0.18
0.195
0.175
0.19
0.18
0.18
0.165
0.13
0.145
0.135
0.115
0.125
0.105
0.13
0.13
0.12
0.145
0.165
0.14
0.15
0.115
0.08
0.07
0.075
0.12
0.15
0.155
0.17
0.18
0.185
0.19
0.19
0.19
0.19
0.175
0.2
0.175
-0.095
-0.65
-1.08
-0.355
0.52
0.595
0.53
0.355
0.23
0.17
0.15
0.13
0.125
0.105
0.1
0.095
0.095
0.1
0.085
0.08
0.065
0.055
0.045
0.015
-0.015
-0.055
-0.085
-0.12
-0.145
-0.175
-0.19
-0.19
-0.175
-0.125
-0.07
-0.015
0.035
0.08
0.12
0.15
0.165
0.175
0.195
0.19
0.195
0.185
0.175
0.16
0.145
0.13
0.11
0.11
0.11
0.105
0.115
0.115
0.12
0.125
0.125
0.12
0.115
0.11
0.11
0.105
0.115
0.115
0.095
0.09
0.105
0.105
0.12
0.145
0.16
0.165
0.165
0.155
0.16
0.155
0.145
0.155
0.015
-0.415
-1.025
-0.845
0.215
0.7
0.53
0.35
0.195
0.13
0.105
0.085
0.07
0.055
0.055
0.05
0.045
0.035
0.035
0.03
0.015
-0.005
-0.02
-0.045
-0.07
-0.11
-0.15
-0.2
-0.245
-0.285
-0.315
-0.335
-0.335
-0.3
-0.235
-0.155
-0.08
-0.035
0.015
0.045
0.075
0.095
0.105
0.115
0.115
0.115
0.115
0.11
0.105
0.1
0.095
0.095
0.085
0.08
0.08
0.075
0.08
0.08
0.08
0.085
0.09
0.095
0.095
0.095
0.09
0.08
0.085
0.09
0.075
0.065
0.08
0.09
0.09
0.105
0.125
0.13
0.125
0.125
0.12
0.115
0.11
0.105
0.055
-0.215
-0.765
-1.195
-0.305
0.625
0.58
0.445
0.24
0.13
0.085
0.065
0.06
0.045
0.04
0.04
0.02
0.02
0.015
0.0
-0.005
-0.01
-0.025
-0.04
-0.065
-0.105
-0.145
-0.19
-0.225
-0.26
-0.285
-0.31
-0.32
-0.31
-0.255
-0.18
-0.1
-0.035
0.015
0.065
0.09
0.11
0.125
0.13
0.145
0.135
0.145
0.13
0.125
0.12
0.12
0.115
0.115
0.115
0.11
0.115
0.115
0.12
0.13
0.135
0.145
0.15
0.14
0.14
0.145
0.145
0.145
0.12
0.11
0.125
0.125
0.095
0.1
0.115
0.125
0.125
0.135
0.155
0.155
0.155
0.165
0.17
0.155
0.145
0.17
0.15
-0.105
-0.63
-1.095
-0.38
0.495
0.565
0.505
0.315
0.185
0.135
0.11
0.105
0.09
0.085
0.08
0.08
0.075
0.075
0.08
0.075
0.06
0.04
0.02
0.005
-0.03
-0.065
-0.105
-0.15
-0.185
-0.205
-0.23
-0.235
-0.225
-0.2
-0.14
-0.07
-0.01
0.045
0.09
0.115
0.135
0.145
0.165
0.18
0.185
0.19
0.175
0.175
0.18
0.175
0.155
0.14
0.145
0.14
0.13
0.13
0.14
0.15
0.16
0.165
0.165
0.16
0.16
0.165
0.155
0.15
0.145
0.125
0.085
0.075
0.11
0.14
0.15
0.15
0.17
0.185
0.175
0.175
0.185
0.18
0.185
0.175
0.195
0.055
-0.385
-0.99
-0.715
0.24
0.61
0.575
0.43
0.25
0.18
0.15
0.14
0.125
0.11
0.105
0.1
0.105
0.095
0.09
0.085
0.075
0.06
0.045
0.02
-0.015
-0.04
-0.075
-0.115
-0.155
-0.19
-0.205
-0.235
-0.225
-0.195
-0.135
-0.075
-0.005
0.05
0.095
0.12
0.14
0.16
0.17
0.185
0.19
0.185
0.175
0.17
0.165
0.155
0.145
0.14
0.135
0.13
0.135
0.135
0.135
0.155
0.16
0.15
0.12
0.095
0.055
-0.025
-0.215
-0.625
-1.21
-1.77
-2.195
-2.575
-2.765
-2.865
-2.995
-2.855
-2.27
-1.295
-0.33
0.24
0.465
0.535
0.625
0.685
0.72
0.76
0.81
0.865
0.935
1.02
1.12
1.22
1.36
1.47
1.59
1.695
1.785
1.84
1.825
1.775
1.665
1.52
1.325
1.11
0.895
0.69
0.525
0.4
0.315
0.265
0.24
0.23
0.215
0.215
0.215
0.215
0.215
0.21
0.21
0.205
0.21
0.195
0.21
0.2
0.19
0.175
0.175
0.17
0.165
0.165
0.155
0.155
0.145
0.14
0.14
0.14
0.145
0.135
0.145
0.135
0.135
0.14
0.135
0.13
0.145
0.135
0.135
0.13
0.135
0.135
0.135
0.13
0.13
0.125
0.115
0.115
0.125
0.115
0.12
0.115
0.125
0.12
0.135
0.135
0.13
0.125
0.115
0.09
0.08
0.04
0.05
0.085
0.115
0.12
0.13
0.145
0.155
0.155
0.155
0.145
0.145
0.135
0.125
-0.11
-0.63
-1.21
-0.54
0.5
0.645
0.525
0.325
0.195
0.145
0.12
0.115
0.095
0.09
0.075
0.08
0.065
0.055
0.05
0.05
0.045
0.04
0.015
-0.005
-0.03
-0.045
-0.085
-0.13
-0.145
-0.175
-0.215
-0.24
-0.255
-0.25
-0.225
-0.175
-0.12
-0.045
0.015
0.065
0.1
0.125
0.125
0.145
0.14
0.15
0.14
0.135
0.14
0.145
0.125
0.115
0.11
0.105
0.1
0.115
0.115
0.13
0.12
0.125
0.13
0.14
0.14
0.14
0.145
0.145
0.135
0.115
0.115
0.085
0.055
0.08
0.11
0.15
0.145
0.155
0.17
0.175
0.17
0.175
0.165
0.165
0.15
0.195
0.16
-0.125
-0.695
-1.0
-0.245
0.535
0.57
0.5
0.3
0.19
0.135
0.115
0.1
0.085
0.07
0.07
0.055
0.06
0.04
0.05
0.035
0.035
0.015
-0.005
-0.03
-0.05
-0.08
-0.11
-0.145
-0.175
-0.205
-0.215
-0.22
-0.2
-0.17
-0.11
-0.045
0.015
0.05
0.085
0.105
0.135
0.15
0.17
0.16
0.17
0.155
0.15
0.135
0.135
0.115
0.11
0.105
0.115
0.115
0.12
0.12
0.135
0.14
0.14
0.135
0.145
0.14
0.155
0.165
0.17
0.165
0.165
0.135
0.13
0.105
0.075
0.065
0.105
0.125
0.14
0.155
0.175
0.175
0.18
0.17
0.17
0.17
0.165
0.175
0.145
-0.12
-0.675
-1.165
-0.445
0.47
0.55
0.475
0.29
0.155
0.105
0.08
0.065
0.045
0.045
0.04
0.04
0.03
0.04
0.035
0.03
0.025
0.01
-0.01
-0.03
-0.055
-0.085
-0.115
-0.135
-0.175
-0.195
-0.21
-0.21
-0.205
-0.175
-0.13
-0.065
-0.015
0.04
0.08
0.11
0.135
0.155
0.155
0.15
0.135
0.145
0.13
0.12
0.105
0.09
0.075
0.08
0.08
0.08
0.085
0.095
0.1
0.115
0.115
0.125
0.12
0.13
0.13
0.14
0.14
0.15
0.145
0.14
0.115
0.105
0.075
0.065
0.075
0.11
0.145
0.15
0.16
0.175
0.175
0.18
0.165
0.165
0.155
0.15
0.15
-0.005
-0.445
-1.035
-0.73
0.325
0.74
0.58
0.39
0.21
0.155
0.115
0.105
0.09
0.08
0.07
0.065
0.055
0.05
0.05
0.035
0.025
0.015
-0.005
-0.025
-0.045
-0.075
-0.115
-0.14
-0.175
-0.21
-0.24
-0.255
-0.255
-0.23
-0.18
-0.115
-0.05
0.01
0.06
0.09
0.12
0.13
0.15
0.15
0.155
0.15
0.15
0.14
0.135
0.13
0.125
0.12
0.12
0.12
0.125
0.125
0.125
0.13
0.135
0.14
0.145
0.135
0.145
0.145
0.15
0.145
0.155
0.145
0.125
0.115
0.095
0.06
0.06
0.085
0.11
0.125
0.13
0.145
0.155
0.155
0.15
0.145
0.15
0.145
0.13
0.125
-0.045
-0.5
-1.05
-0.625
0.41
0.69
0.555
0.355
0.19
0.135
0.105
0.095
0.08
0.065
0.065
0.055
0.045
0.035
0.035
0.02
0.015
-0.005
-0.015
-0.035
-0.065
-0.1
-0.125
-0.165
-0.205
-0.23
-0.24
-0.25
-0.24
-0.23
-0.18
-0.12
-0.065
0.0
0.05
0.08
0.115
0.12
0.135
0.135
0.135
0.135
0.125
0.12
0.125
0.115
0.105
0.1
0.105
0.095
0.095
0.095
0.105
0.115
0.12
0.13
0.135
0.13
0.13
0.13
0.135
0.13
0.14
0.135
0.125
0.11
0.095
0.05
0.04
0.065
0.105
0.13
0.13
0.135
0.14
0.145
0.15
0.15
0.15
0.145
0.135
0.175
0.11
-0.24
-0.825
-0.915
-0.08
0.56
0.56
0.455
0.265
0.165
0.125
0.1
0.08
0.075
0.08
0.07
0.065
0.055
0.075
0.07
0.05
0.035
0.04
0.035
0.015
-0.01
-0.045
-0.07
-0.105
-0.135
-0.15
-0.165
-0.165
-0.16
-0.13
-0.08
-0.03
0.015
0.06
0.095
0.125
0.135
0.145
0.15
0.145
0.145
0.135
0.13
0.125
0.125
0.115
0.12
0.12
0.115
0.13
0.13
0.125
0.125
0.15
0.145
0.145
0.15
0.145
0.14
0.15
0.15
0.135
0.115
0.09
0.055
0.06
0.095
0.12
0.135
0.14
0.16
0.155
0.15
0.155
0.155
0.155
0.15
0.14
0.175
0.055
-0.385
-0.985
-0.765
0.155
0.565
0.55
0.41
0.24
0.17
0.13
0.115
0.1
0.085
0.08
0.075
0.085
0.08
0.06
0.06
0.055
0.035
0.02
0.005
-0.02
-0.045
-0.065
-0.095
-0.12
-0.14
-0.15
-0.17
-0.17
-0.15
-0.115
-0.075
-0.02
0.035
0.065
0.1
0.125
0.135
0.14
0.14
0.145
0.14
0.135
0.135
0.115
0.105
0.085
0.095
0.09
0.09
0.095
0.1
0.115
0.115
0.105
0.095
0.065
0.045
-0.005
-0.08
-0.31
-0.81
-1.45
-1.995
-2.415
-2.82
-3.06
-3.175
-3.205
-2.89
-2.05
-0.935
-0.075
0.365
0.505
0.575
0.625
0.665
0.7
0.75
0.8
0.87
0.95
1.05
1.15
1.26
1.395
1.525
1.65
1.77
1.86
1.915
1.925
1.88
1.78
1.625
1.435
1.19
0.96
0.745
0.565
0.435
0.345
0.285
0.23
0.205
0.18
0.185
0.17
0.155
0.155
0.135
0.13
0.13
0.125
0.11
0.105
0.095
0.085
0.085
0.075
0.07
0.08
0.08
0.06
0.06
0.06
0.055
0.055
0.06
0.07
0.055
0.05
0.055
0.055
0.06
0.045
0.06
0.045
0.05
0.045
0.05
0.04
0.04
0.045
0.045
0.05
0.045
0.035
0.045
0.045
0.055
0.04
0.015
-0.005
-0.03
-0.045
-0.03
0.005
0.04
0.04
0.055
0.07
0.08
0.07
0.07
0.06
0.055
0.05
0.055
-0.105
-0.545
-1.15
-0.86
0.185
0.595
0.475
0.3
0.13
0.06
0.025
0.01
-0.01
-0.02
-0.03
-0.03
-0.04
-0.045
-0.055
-0.055
-0.055
-0.075
-0.095
-0.11
-0.14
-0.16
-0.18
-0.21
-0.245
-0.27
-0.285
-0.3
-0.315
-0.32
-0.31
-0.265
-0.215
-0.165
-0.11
-0.055
-0.025
-0.005
-0.005
0.01
0.015
0.025
0.01
0.015
0.01
-0.005
-0.015
-0.01
-0.01
-0.01
-0.015
-0.005
0.005
0.015
0.015
0.015
0.015
0.015
0.01
0.015
0.03
0.035
0.03
0.01
-0.005
-0.03
-0.065
-0.06
-0.02
0.015
0.025
0.04
0.05
0.065
0.055
0.06
0.065
0.07
0.055
0.055
0.09
-0.05
-0.53
-1.145
-0.71
0.24
0.445
0.435
0.29
0.12
0.05
0.025
0.01
-0.01
-0.025
-0.035
-0.03
-0.02
-0.03
-0.045
-0.045
-0.055
-0.06
-0.08
-0.1
-0.125
-0.145
-0.165
-0.2
-0.22
-0.225
-0.235
-0.23
-0.23
-0.215
-0.17
-0.12
-0.08
-0.04
0.005
0.03
0.05
0.065
0.08
0.07
0.07
0.06
0.045
0.025
0.01
0.0
0.005
0.01
0.01
0.015
0.03
0.03
0.03
0.03
0.03
0.03
0.04
0.05
0.045
0.045
0.05
0.045
0.04
0.025
-0.005
-0.045
-0.03
0.005
0.03
0.035
0.055
0.08
0.085
0.08
0.08
0.08
0.07
0.065
0.085
0.09
-0.095
-0.585
-1.185
-0.66
0.305
0.485
0.44
0.275
0.12
0.065
0.035
0.02
0.005
-0.005
-0.01
-0.015
-0.01
-0.025
-0.025
-0.03
-0.045
-0.06
-0.07
-0.095
-0.11
-0.15
-0.17
-0.195
-0.225
-0.25
-0.25
-0.26
-0.24
-0.225
-0.18
-0.125
-0.065
-0.02
0.01
0.025
0.055
0.08
0.08
0.075
0.085
0.075
0.06
0.045
0.03
0.015
0.005
-0.005
-0.005
0.005
0.015
0.015
0.025
0.03
0.03
0.035
0.05
0.045
0.055
0.07
0.055
0.045
0.03
0.015
-0.03
-0.025
0.02
0.045
0.05
0.055
0.08
0.08
0.08
0.08
0.075
0.075
0.065
0.075
0.055
-0.165
-0.69
-1.255
-0.58
0.39
0.525
0.45
0.27
0.125
0.07
0.04
0.03
0.01
-0.005
-0.005
-0.01
-0.02
-0.025
-0.03
-0.045
-0.05
-0.06
-0.09
-0.11
-0.135
-0.165
-0.2
-0.235
-0.265
-0.275
-0.29
-0.295
-0.285
-0.25
-0.2
-0.14
-0.085
-0.045
-0.01
0.025
0.04
0.065
0.07
0.08
0.055
0.05
0.035
0.025
0.015
0.0
-0.005
-0.015
-0.01
-0.005
0.005
0.01
0.02
0.03
0.03
0.02
0.025
0.035
0.035
0.04
0.035
0.035
0.03
0.02
0.015
-0.01
-0.035
-0.03
-0.005
0.03
0.04
0.055
0.065
0.075
0.08
0.08
0.065
0.065
0.045
0.04
-0.005
-0.235
-0.765
-1.26
-0.435
0.55
0.57
0.415
0.195
0.075
0.035
0.025
-0.005
-0.015
-0.025
-0.03
-0.035
-0.04
-0.05
-0.055
-0.065
-0.075
-0.085
-0.1
-0.125
-0.15
-0.19
-0.23
-0.265
-0.305
-0.33
-0.35
-0.35
-0.34
-0.28
-0.22
-0.155
-0.09
-0.04
-0.005
0.02
0.045
0.055
0.065
0.07
0.055
0.055
0.05
0.045
0.04
0.03
0.03
0.02
0.03
0.035
0.045
0.045
0.05
0.05
0.045
0.045
0.05
0.05
0.055
0.065
0.06
0.06
0.055
0.06
0.055
0.035
0.025
-0.005
-0.025
-0.005
0.025
0.05
0.05
0.065
0.075
0.085
0.08
0.085
0.08
0.065
0.065
0.08
0.015
-0.24
-0.765
-1.085
-0.265
0.545
0.515
0.41
0.215
0.105
0.05
0.035
0.025
0.01
0.01
0.01
-0.005
-0.01
-0.015
-0.015
-0.02
-0.03
-0.04
-0.055
-0.09
-0.115
-0.15
-0.185
-0.21
-0.24
-0.265
-0.285
-0.295
-0.275
-0.23
-0.18
-0.125
-0.065
-0.025
0.02
0.045
0.06
0.08
0.085
0.085
0.095
0.1
0.085
0.08
0.07
0.055
0.06
0.065
0.055
0.05
0.045
0.05
0.06
0.055
0.055
0.06
0.055
0.08
0.065
0.065
0.08
0.085
0.07
0.045
0.025
-0.005
-0.03
-0.01
0.035
0.08
0.065
0.07
0.08
0.085
0.095
0.11
0.11
0.095
0.08
0.095
0.08
-0.155
-0.69
-1.105
-0.4
0.43
0.485
0.435
0.255
0.125
0.085
0.065
0.045
0.035
0.04
0.03
0.01
0.015
0.01
0.01
0.005
0.01
-0.01
-0.035
-0.05
-0.065
-0.105
-0.145
-0.175
-0.19
-0.21
-0.215
-0.215
-0.215
-0.18
-0.125
-0.065
-0.025
0.025
0.065
0.09
0.11
0.115
0.125
0.13
0.12
0.11
0.11
0.11
0.095
0.085
0.075
0.065
0.06
0.055
0.07
0.09
0.09
0.095
0.095
0.065
0.04
0.02
-0.03
-0.135
-0.45
-1.045
-1.69
-2.175
-2.575
-2.96
-3.19
-3.275
-3.145
-2.51
-1.43
-0.425
0.205
0.47
0.55
0.62
0.67
0.705
0.755
0.82
0.875
0.95
1.04
1.14
1.255
1.375
1.495
1.62
1.735
1.835
1.905
1.93
1.905
1.83
1.705
1.52
1.315
1.085
0.87
0.685
0.535
0.435
0.36
0.305
0.27
0.25
0.24
0.225
0.22
0.215
0.21
0.195
0.19
0.18
0.17
0.165
0.155
0.145
0.14
0.13
0.115
0.11
0.105
0.105
0.105
0.105
0.105
0.1
0.105
0.095
0.105
0.105
0.1
0.095
0.105
0.095
0.095
0.1
0.1
0.1
0.095
0.095
0.095
0.095
0.095
0.095
0.085
0.09
0.09
0.08
0.06
0.055
0.035
0.015
0.02
0.045
0.065
0.08
0.09
0.105
0.105
0.095
0.095
0.09
0.09
0.08
0.08
-0.11
-0.595
-1.205
-0.705
0.345
0.595
0.475
0.29
0.145
0.09
0.065
0.05
0.035
0.02
0.015
0.01
0.015
0.015
0.005
-0.005
-0.015
-0.03
-0.045
-0.07
-0.08
-0.115
-0.15
-0.19
-0.22
-0.24
-0.27
-0.285
-0.295
-0.295
-0.25
-0.205
-0.135
-0.08
-0.03
0.005
0.035
0.05
0.06
0.06
0.065
0.065
0.07
0.065
0.055
0.045
0.04
0.03
0.025
0.025
0.035
0.04
0.055
0.055
0.065
0.065
0.07
0.08
0.085
0.075
0.07
0.05
0.055
0.03
0.015
0.015
0.055
0.09
0.085
0.095
0.11
0.095
0.105
0.105
0.105
0.095
0.085
0.1
-0.015
-0.375
-0.91
-0.835
0.085
0.595
0.505
0.37
0.185
0.095
0.065
0.05
0.035
0.025
0.015
0.005
0.015
0.005
-0.005
-0.005
-0.01
-0.03
-0.04
-0.055
-0.08
-0.12
-0.155
-0.195
-0.22
-0.26
-0.285
-0.29
-0.275
-0.245
-0.19
-0.13
-0.075
-0.02
0.03
0.065
0.09
0.115
0.125
0.12
0.115
0.125
0.125
0.115
0.1
0.085
0.08
0.07
0.07
0.065
0.065
0.075
0.085
0.08
0.07
0.08
0.09
0.095
0.08
0.06
0.065
0.045
0.015
0.035
0.06
0.085
0.085
0.1
0.12
0.11
0.12
0.125
0.115
0.1
0.1
0.155
0.1
-0.24
-0.84
-0.91
-0.12
0.46
0.495
0.41
0.215
0.12
0.08
0.07
0.05
0.03
0.035
0.035
0.035
0.04
0.01
0.0
-0.005
-0.015
-0.025
-0.045
-0.07
-0.08
-0.105
-0.145
-0.175
-0.195
-0.215
-0.23
-0.22
-0.195
-0.165
-0.105
-0.05
0.005
0.045
0.08
0.11
0.12
0.13
0.13
0.125
0.115
0.105
0.095
0.085
0.06
0.08
0.065
0.065
0.065
0.08
0.085
0.065
0.07
0.095
0.1
0.1
0.09
0.08
0.08
0.06
0.03
0.04
0.08
0.105
0.11
0.12
0.145
0.145
0.135
0.145
0.13
0.13
0.125
0.17
0.095
-0.275
-0.87
-0.94
-0.1
0.53
0.555
0.45
0.255
0.17
0.125
0.11
0.095
0.09
0.08
0.08
0.07
0.065
0.06
0.05
0.025
0.01
-0.005
-0.03
-0.05
-0.08
-0.115
-0.15
-0.175
-0.2
-0.215
-0.22
-0.205
-0.18
-0.135
-0.08
-0.03
0.015
0.06
0.095
0.115
0.135
0.135
0.145
0.135
0.135
0.13
0.11
0.09
0.08
0.065
0.055
0.055
0.065
0.07
0.08
0.08
0.09
0.09
0.095
0.095
0.08
0.08
0.08
0.055
0.045
0.05
0.08
0.1
0.09
0.115
0.125
0.125
0.125
0.125
0.125
0.115
0.11
0.095
-0.115
-0.61
-1.165
-0.545
0.475
0.625
0.475
0.26
0.135
0.08
0.065
0.05
0.035
0.025
0.015
0.01
-0.005
-0.005
-0.015
-0.03
-0.035
-0.045
-0.065
-0.095
-0.13
-0.155
-0.2
-0.25
-0.28
-0.305
-0.33
-0.34
-0.315
-0.265
-0.195
-0.13
-0.065
-0.02
0.01
0.035
0.055
0.065
0.08
0.08
0.08
0.065
0.065
0.06
0.05
0.05
0.035
0.04
0.03
0.035
0.035
0.035
0.05
0.05
0.05
0.05
0.045
0.045
0.05
0.055
0.05
0.055
0.06
0.06
0.065
0.08
0.095
0.1
0.095
0.1
0.095
0.08
0.075
0.045
-0.185
-0.675
-1.19
-0.49
0.49
0.575
0.445
0.24
0.1
0.045
0.03
0.02
0.01
0.01
-0.005
-0.005
-0.015
-0.025
-0.025
-0.04
-0.05
-0.06
-0.075
-0.105
-0.14
-0.17
-0.22
-0.26
-0.295
-0.31
-0.325
-0.335
-0.325
-0.27
-0.215
-0.13
-0.065
-0.02
0.01
0.035
0.05
0.075
0.08
0.08
0.07
0.08
0.055
0.055
0.04
0.05
0.055
0.065
0.07
0.06
0.065
0.07
0.06
0.08
0.07
0.08
0.055
0.055
0.06
0.045
0.035
0.055
0.065
0.06
0.08
0.11
0.115
0.115
0.11
0.105
0.1
0.105
0.125
0.005
-0.415
-1.005
-0.715
0.17
0.495
0.5
0.37
0.185
0.11
0.08
0.07
0.06
0.045
0.05
0.04
0.03
0.025
0.035
0.03
0.015
0.0
-0.015
-0.045
-0.06
-0.1
-0.125
-0.155
-0.19
-0.22
-0.23
-0.24
-0.235
-0.195
-0.135
-0.08
-0.025
0.01
0.04
0.065
0.105
0.12
0.13
0.12
0.125
0.12
0.115
0.1
0.105
0.08
0.065
0.06
0.075
0.065
0.06
0.065
0.08
0.08
0.075
0.045
0.025
0.005
-0.04
-0.095
-0.215
-0.56
-1.145
-1.74
-2.15
-2.525
-2.855
-3.07
-3.165
-3.02
-2.33
-1.285
-0.355
0.21
0.435
0.495
0.55
0.595
0.635
0.68
0.735
0.785
0.87
0.955
1.055
1.175
1.31
1.45
1.58
1.685
1.795
1.855
1.875
1.845
1.755
1.595
1.405
1.17
0.93
0.705
0.53
0.385
0.31
0.27
0.255
0.235
0.245
0.24
0.25
0.25
0.255
0.255
0.24
0.23
0.225
0.2
0.19
0.165
0.16
0.15
0.145
0.13
0.125
0.11
0.115
0.115
0.12
0.11
0.105
0.095
0.09
0.08
0.08
0.08
0.08
0.05
0.035
0.05
0.065
0.065
0.085
0.1
0.125
0.115
0.12
0.115
0.11
0.1
0.135
0.045
-0.345
-0.975
-1.055
-0.145
0.535
0.515
0.41
0.21
0.125
0.07
0.055
0.045
0.025
0.02
0.02
0.015
0.02
0.01
0.005
-0.01
-0.02
-0.04
-0.055
-0.085
-0.12
-0.16
-0.195
-0.245
-0.285
-0.315
-0.325
-0.335
-0.31
-0.275
-0.205
-0.145
-0.075
-0.025
0.015
0.045
0.07
0.075
0.08
0.08
0.08
0.06
0.05
0.04
0.025
0.01
0.0
-0.005
0.01
0.005
0.02
0.03
0.04
0.03
0.035
0.03
0.025
0.035
0.04
0.03
0.03
0.045
0.045
0.06
0.09
0.1
0.105
0.09
0.1
0.09
0.08
0.085
-0.065
-0.485
-1.055
-0.78
0.25
0.66
0.49
0.29
0.125
0.07
0.045
0.025
0.03
0.01
-0.005
-0.015
-0.015
-0.025
-0.025
-0.035
-0.05
-0.06
-0.07
-0.1
-0.13
-0.155
-0.205
-0.24
-0.27
-0.295
-0.31
-0.305
-0.28
-0.235
-0.17
-0.1
-0.04
-0.005
0.035
0.055
0.08
0.085
0.095
0.085
0.08
0.07
0.07
0.07
0.07
0.055
0.05
0.04
0.04
0.04
0.045
0.045
0.045
0.045
0.045
0.045
0.045
0.05
0.05
0.035
0.04
0.035
0.035
0.045
0.065
0.08
0.07
0.065
0.065
0.05
0.035
0.015
-0.195
-0.665
-1.19
-0.585
0.425
0.585
0.445
0.24
0.08
0.025
0.005
-0.005
-0.025
-0.035
-0.045
-0.05
-0.06
-0.07
-0.07
-0.08
-0.095
-0.115
-0.125
-0.15
-0.185
-0.22
-0.24
-0.29
-0.325
-0.35
-0.365
-0.375
-0.34
-0.295
-0.22
-0.155
-0.105
-0.055
-0.02
0.02
0.035
0.055
0.055
0.045
0.04
0.05
0.045
0.025
0.025
0.02
0.01
0.005
-0.005
0.015
0.025
0.025
0.02
0.035
0.02
0.02
0.025
0.03
0.005
-0.005
0.015
0.025
0.035
0.045
0.07
0.08
0.085
0.085
0.085
0.085
0.09
0.08
-0.13
-0.65
-1.125
-0.445
0.43
0.505
0.455
0.265
0.14
0.085
0.055
0.05
0.035
0.02
0.02
0.025
0.025
0.025
0.01
-0.005
0.005
-0.005
-0.02
-0.04
-0.075
-0.115
-0.15
-0.175
-0.195
-0.205
-0.215
-0.22
-0.2
-0.16
-0.09
-0.05
0.005
0.055
0.08
0.115
0.13
0.135
0.15
0.16
0.14
0.115
0.125
0.105
0.1
0.105
0.09
0.085
0.09
0.09
0.105
0.095
0.085
0.11
0.09
0.085
0.105
0.08
0.065
0.085
0.115
0.135
0.125
0.155
0.17
0.17
0.18
0.17
0.15
0.165
0.205
0.09
-0.315
-0.925
-0.695
0.2
0.58
0.59
0.435
0.245
0.19
0.135
0.13
0.115
0.105
0.11
0.115
0.1
0.095
0.085
0.065
0.06
0.07
0.05
0.035
0.015
-0.035
-0.05
-0.105
-0.14
-0.145
-0.135
-0.145
-0.135
-0.09
-0.05
0.015
0.07
0.105
0.15
0.18
0.215
0.225
0.225
0.22
0.23
0.22
0.205
0.185
0.175
0.16
0.165
0.155
0.155
0.155
0.155
0.16
0.175
0.175
0.165
0.16
0.165
0.15
0.13
0.145
0.17
0.175
0.175
0.2
0.22
0.22
0.22
0.215
0.215
0.195
0.23
0.13
-0.275
-0.89
-0.82
0.125
0.655
0.615
0.475
0.275
0.21
0.165
0.15
0.135
0.135
0.125
0.115
0.11
0.11
0.105
0.095
0.085
0.07
0.04
0.02
-0.015
-0.045
-0.08
-0.115
-0.15
-0.18
-0.195
-0.19
-0.175
-0.135
-0.075
-0.01
0.045
0.1
0.125
0.155
0.185
0.195
0.21
0.205
0.195
0.18
0.165
0.145
0.135
0.125
0.115
0.115
0.115
0.12
0.11
0.12
0.12
0.13
0.135
0.13
0.12
0.13
0.13
0.115
0.115
0.115
0.115
0.13
0.16
0.18
0.18
0.18
0.175
0.17
0.155
0.16
0.015
-0.4
-1.005
-0.74
0.335
0.775
0.585
0.385
0.225
0.175
0.145
0.13
0.115
0.115
0.115
0.105
0.09
0.085
0.07
0.065
0.055
0.035
0.025
0.005
-0.03
-0.075
-0.11
-0.15
-0.19
-0.225
-0.245
-0.245
-0.22
-0.18
-0.12
-0.05
0.01
0.055
0.09
0.11
0.125
0.135
0.145
0.15
0.145
0.14
0.135
0.135
0.125
0.125
0.125
0.115
0.105
0.105
0.105
0.115
0.12
0.125
0.115
0.12
0.11
0.105
0.115
0.115
0.11
0.105
0.105
0.105
0.105
0.13
0.16
0.165
0.165
0.16
0.15
0.145
0.15
0.065
-0.275
-0.855
-0.97
0.015
0.755
0.605
0.43
0.24
0.155
0.115
0.1
0.09
0.08
0.08
0.065
0.05
0.035
0.03
0.015
0.0
-0.025
-0.04
-0.065
-0.095
-0.125
-0.165
-0.215
-0.24
-0.275
-0.305
-0.305
-0.295
-0.26
-0.21
-0.135
-0.07
-0.035
0.01
0.04
0.065
0.085
0.09
0.09
0.08
0.08
0.08
0.065
0.065
0.06
0.06
0.065
0.065
0.07
0.08
0.08
0.095
0.095
0.1
0.1
0.085
0.085
0.1
0.095
0.095
0.095
0.085
0.09
0.095
0.095
0.095
0.11
0.13
0.13
0.125
0.125
0.12
0.11
0.13
-0.02
-0.425
-0.975
-0.665
0.305
0.655
0.545
0.37
0.195
0.14
0.11
0.085
0.065
0.07
0.08
0.07
0.06
0.055
0.05
0.045
0.035
0.035
0.015
-0.01
-0.045
-0.075
-0.115
-0.165
-0.195
-0.22
-0.235
-0.235
-0.235
-0.195
-0.135
-0.065
-0.01
0.05
0.085
0.105
0.125
0.145
0.155
0.155
0.145
0.145
0.13
0.125
0.12
0.11
0.1
0.11
0.105
0.105
0.11
0.115
0.11
0.11
0.11
0.115
0.115
0.12
0.105
0.105
0.12
0.095
0.09
0.11
0.105
0.105
0.115
0.14
0.15
0.15
0.15
0.145
0.14
0.15
0.15
-0.045
-0.54
-1.095
-0.48
0.455
0.565
0.505
0.315
0.185
0.13
0.11
0.095
0.08
0.065
0.065
0.065
0.06
0.05
0.055
0.055
0.04
0.02
0.005
-0.015
-0.035
-0.07
-0.095
-0.115
-0.145
-0.165
-0.175
-0.175
-0.155
-0.12
-0.07
-0.015
0.04
0.07
0.105
0.13
0.155
0.165
0.17
0.165
0.15
0.135
0.14
0.125
0.105
0.095
0.1
0.095
0.105
0.105
0.11
0.115
0.12
0.115
0.12
0.11
0.085
0.065
0.035
-0.015
-0.105
-0.4
-0.965
-1.595
-2.085
-2.48
-2.835
-3.06
-3.185
-3.14
-2.575
-1.52
-0.49
0.16
0.45
0.535
0.615
0.655
0.695
0.745
0.8
0.855
0.935
1.015
1.11
1.22
1.345
1.475
1.605
1.715
1.805
1.875
1.895
1.865
1.775
1.635
1.455
1.23
1.015
0.81
0.64
0.515
0.415
0.35
0.315
0.295
0.275
0.26
0.245
0.235
0.23
0.215
0.195
0.185
0.175
0.16
0.15
0.15
0.135
0.115
0.115
0.105
0.1
0.09
0.09
0.085
0.09
0.075
0.08
0.09
0.085
0.08
0.08
0.08
0.085
0.09
0.085
0.07
0.075
0.07
0.055
0.04
0.035
0.045
0.035
0.015
0.015
0.02
0.03
0.025
0.035
0.06
0.075
0.07
0.075
0.065
0.08
0.09
0.0
-0.355
-0.96
-1.18
-0.2
0.62
0.515
0.36
0.15
0.055
0.025
0.005
-0.01
-0.02
-0.02
-0.025
-0.035
-0.035
-0.04
-0.05
-0.055
-0.065
-0.095
-0.12
-0.14
-0.165
-0.205
-0.24
-0.28
-0.325
-0.345
-0.37
-0.365
-0.36
-0.32
-0.255
-0.19
-0.13
-0.075
-0.04
-0.02
-0.005
0.005
-0.005
-0.005
-0.015
-0.025
-0.025
-0.04
-0.055
-0.065
-0.075
-0.08
-0.065
-0.06
-0.055
-0.045
-0.035
-0.025
-0.015
-0.015
-0.03
-0.04
-0.05
-0.04
-0.06
-0.095
-0.07
-0.04
-0.025
-0.015
0.01
0.04
0.05
0.04
0.04
0.045
0.035
0.06
-0.08
-0.45
-1.0
-0.795
0.115
0.505
0.455
0.31
0.13
0.065
0.025
0.01
-0.01
-0.015
-0.025
-0.03
-0.04
-0.04
-0.035
-0.05
-0.06
-0.06
-0.08
-0.105
-0.135
-0.175
-0.2
-0.225
-0.24
-0.255
-0.265
-0.265
-0.24
-0.2
-0.17
-0.1
-0.04
-0.005
0.035
0.065
0.095
0.09
0.085
0.09
0.09
0.065
0.065
0.035
0.02
0.01
-0.005
0.015
0.035
0.03
0.025
0.04
0.035
0.05
0.04
0.005
0.01
0.025
-0.03
-0.03
-0.005
0.04
0.065
0.065
0.095
0.1
0.11
0.125
0.12
0.115
0.11
0.185
0.085
-0.38
-1.025
-0.725
0.24
0.585
0.555
0.37
0.215
0.17
0.12
0.1
0.08
0.085
0.09
0.105
0.1
0.095
0.105
0.08
0.065
0.065
0.055
0.035
-0.005
-0.025
-0.07
-0.08
-0.09
-0.095
-0.145
-0.135
-0.09
-0.075
-0.045
0.035
0.12
0.135
0.175
0.245
0.22
0.2
0.24
0.265
0.175
0.18
0.24
0.25
0.185
0.16
0.225
0.185
0.145
0.255
0.245
0.175
0.195
0.235
0.17
0.13
0.19
0.12
0.09
0.245
0.265
0.19
0.275
0.355
0.285
0.215
0.285
0.325
0.31
0.17
-0.225
-0.79
-0.635
0.29
0.81
0.775
0.555
0.39
0.305
0.27
0.265
0.24
0.23
0.24
0.245
0.225
0.22
0.22
0.23
0.215
0.18
0.165
0.155
0.11
0.055
0.015
-0.03
-0.075
-0.095
-0.105
-0.08
-0.065
-0.045
0.015
0.08
0.13
0.18
0.215
0.23
0.255
0.28
0.275
0.275
0.265
0.24
0.22
0.2
0.18
0.165
0.145
0.15
0.155
0.13
0.11
0.115
0.115
0.065
0.04
0.055
0.085
0.105
0.15
0.195
0.2
0.195
0.195
0.19
0.17
0.195
0.155
-0.11
-0.67
-1.145
-0.345
0.66
0.7
0.54
0.315
0.195
0.15
0.14
0.125
0.12
0.11
0.095
0.095
0.095
0.085
0.08
0.06
0.05
0.03
0.01
-0.025
-0.06
-0.1
-0.145
-0.185
-0.21
-0.225
-0.235
-0.215
-0.17
-0.125
-0.06
0.0
0.055
0.095
0.125
0.145
0.165
0.16
0.165
0.15
0.135
0.125
0.11
0.105
0.1
0.09
0.09
0.085
0.08
0.055
0.065
0.07
0.05
0.04
0.06
0.085
0.115
0.155
0.19
0.205
0.205
0.19
0.185
0.175
0.185
-0.01
-0.505
-1.1
-0.585
0.515
0.755
0.53
0.325
0.22
0.19
0.175
0.16
0.15
0.145
0.135
0.135
0.13
0.12
0.105
0.085
0.065
0.055
0.045
0.015
-0.015
-0.055
-0.09
-0.135
-0.17
-0.175
-0.185
-0.185
-0.155
-0.105
-0.04
0.02
0.07
0.1
0.14
0.165
0.18
0.2
0.2
0.2
0.19
0.19
0.19
0.19
0.175
0.16
0.135
0.135
0.13
0.11
0.105
0.125
0.105
0.09
0.12
0.155
0.185
0.21
0.23
0.245
0.24
0.245
0.28
0.265
0.26
0.155
-0.215
-0.775
-0.63
0.325
0.81
0.665
0.475
0.33
0.275
0.24
0.23
0.22
0.22
0.24
0.215
0.21
0.215
0.21
0.2
0.19
0.165
0.145
0.115
0.08
0.04
-0.015
-0.045
-0.08
-0.115
-0.1
-0.115
-0.095
-0.03
0.045
0.1
0.165
0.215
0.245
0.265
0.27
0.27
0.295
0.305
0.3
0.3
0.31
0.31
0.31
0.3
0.295
0.28
0.245
0.24
0.25
0.21
0.185
0.21
0.22
0.24
0.285
0.325
0.33
0.335
0.33
0.31
0.32
0.375
0.285
-0.145
-0.77
-0.605
0.375
0.865
0.805
0.62
0.43
0.35
0.295
0.3
0.315
0.285
0.275
0.28
0.28
0.275
0.27
0.26
0.23
0.22
0.22
0.185
0.15
0.11
0.055
0.015
-0.025
-0.055
-0.05
-0.045
-0.035
0.015
0.085
0.15
0.195
0.235
0.275
0.305
0.3
0.305
0.31
0.31
0.305
0.295
0.285
0.27
0.27
0.255
0.245
0.205
0.19
0.19
0.165
0.125
0.135
0.155
0.16
0.185
0.24
0.255
0.255
0.25
0.245
0.23
0.25
0.145
-0.255
-0.855
-0.795
0.21
0.835
0.705
0.5
0.3
0.23
0.19
0.175
0.17
0.155
0.155
0.135
0.135
0.125
0.11
0.11
0.095
0.095
0.08
0.045
0.015
-0.025
-0.065
-0.105
-0.135
-0.165
-0.18
-0.185
-0.16
-0.12
-0.06
0.0
0.06
0.1
0.13
0.15
0.17
0.175
0.17
0.17
0.165
0.155
0.15
0.14
0.135
0.125
0.115
0.09
0.075
0.08
0.065
0.055
0.045
0.08
0.095
0.12
0.17
0.185
0.185
0.185
0.185
0.175
0.185
0.01
-0.495
-1.105
-0.615
0.485
0.75
0.52
0.31
0.195
0.165
0.145
0.135
0.13
0.115
0.115
0.11
0.11
0.1
0.08
0.08
0.055
0.055
0.03
0.02
-0.02
-0.05
-0.095
-0.13
-0.155
-0.185
-0.19
-0.18
-0.165
-0.115
-0.055
-0.005
0.045
0.085
0.105
0.14
0.155
0.165
0.165
0.17
0.185
0.175
0.185
0.18
0.165
0.165
0.135
0.105
0.095
0.115
0.09
0.08
0.08
0.1
0.13
0.155
0.185
0.205
0.205
0.2
0.195
0.195
0.16
-0.095
-0.67
-1.12
-0.255
0.74
0.685
0.46
0.26
0.185
0.155
0.135
0.115
0.115
0.105
0.105
0.09
0.09
0.07
0.045
0.025
0.01
-0.005
-0.015
-0.035
-0.065
-0.11
-0.14
-0.185
-0.22
-0.24
-0.24
-0.23
-0.185
-0.155
-0.095
-0.04
0.02
0.06
0.1
0.11
0.11
0.11
0.14
0.155
0.16
0.15
0.155
0.145
0.145
0.13
0.095
0.065
0.07
0.065
0.055
0.045
0.07
0.09
0.105
0.14
0.185
0.195
0.2
0.195
0.18
0.215
0.205
-0.06
-0.61
-0.765
0.045
0.69
0.67
0.55
0.35
0.245
0.205
0.17
0.165
0.155
0.145
0.145
0.15
0.145
0.135
0.13
0.12
0.11
0.08
0.045
0.055
0.005
-0.04
-0.07
-0.09
-0.12
-0.125
-0.125
-0.115
-0.08
-0.025
0.035
0.095
0.13
0.18
0.205
0.24
0.22
0.22
0.215
0.225
0.235
0.22
0.205
0.215
0.195
0.195
0.175
0.155
0.16
0.165
0.115
0.1
0.145
0.165
0.14
0.18
0.235
0.265
0.25
0.235
0.235
0.285
0.22
-0.125
-0.725
-0.765
0.13
0.775
0.74
0.575
0.365
0.275
0.225
0.22
0.21
0.205
0.2
0.2
0.185
0.19
0.17
0.175
0.16
0.155
0.125
0.095
0.06
0.03
-0.01
-0.05
-0.09
-0.1
-0.11
-0.115
-0.105
-0.06
-0.01
0.055
0.105
0.155
0.19
0.21
0.215
0.215
0.22
0.24
0.215
0.195
0.175
0.17
0.145
0.135
0.105
0.08
0.065
0.07
0.05
0.03
0.015
0.03
0.05
0.095
0.135
0.17
0.175
0.17
0.15
0.18
0.11
-0.25
-0.845
-0.975
-0.03
0.74
0.63
0.435
0.23
0.16
0.115
0.095
0.08
0.065
0.055
0.055
0.03
0.03
0.015
0.015
-0.005
-0.025
-0.045
-0.05
-0.085
-0.115
-0.16
-0.19
-0.23
-0.245
-0.265
-0.265
-0.25
-0.205
-0.145
-0.08
-0.035
0.02
0.045
0.08
0.09
0.095
0.095
0.095
0.09
0.09
0.085
0.08
0.075
0.065
0.045
0.02
0.0
0.005
0.0
-0.005
-0.015
-0.015
-0.02
0.005
0.04
0.09
0.11
0.11
0.115
0.115
0.13
0.035
-0.375
-0.995
-0.93
0.115
0.725
0.525
0.315
0.17
0.115
0.09
0.08
0.065
0.06
0.055
0.045
0.04
0.015
0.015
-0.005
-0.015
-0.03
-0.045
-0.07
-0.095
-0.13
-0.165
-0.195
-0.225
-0.25
-0.255
-0.26
-0.245
-0.205
-0.14
-0.095
-0.05
-0.015
0.01
0.035
0.055
0.07
0.08
0.08
0.08
0.075
0.08
0.06
0.055
0.04
0.035
0.025
-0.005
-0.025
-0.015
-0.01
-0.03
-0.03
-0.02
-0.03
-0.015
0.02
0.065
0.085
0.1
0.095
0.085
0.1
0.045
-0.27
-0.865
-1.095
-0.13
0.705
0.55
0.325
0.15
0.09
0.065
0.05
0.035
0.025
0.015
0.015
0.01
-0.005
-0.025
-0.045
-0.06
-0.07
-0.08
-0.105
-0.135
-0.175
-0.195
-0.24
-0.25
-0.275
-0.28
-0.285
-0.275
-0.24
-0.215
-0.17
-0.115
-0.085
-0.055
-0.035
-0.01
-0.005
0.01
0.015
0.03
0.03
0.025
0.02
0.005
0.01
-0.005
-0.01
-0.005
-0.01
-0.04
-0.055
-0.045
-0.045
-0.065
-0.065
-0.065
-0.07
-0.045
0.0
0.04
0.055
0.065
0.055
0.05
0.08
-0.03
-0.44
-1.035
-0.84
0.205
0.68
0.47
0.255
0.105
0.05
0.03
0.015
0.005
-0.005
-0.005
-0.015
-0.025
-0.045
-0.055
-0.07
-0.08
-0.08
-0.105
-0.115
-0.15
-0.175
-0.21
-0.24
-0.255
-0.28
-0.29
-0.305
-0.28
-0.255
-0.215
-0.175
-0.13
-0.085
-0.065
-0.04
-0.03
-0.02
-0.01
0.0
0.005
0.01
0.01
-0.005
-0.01
-0.01
-0.015
-0.005
-0.005
0.01
-0.005
-0.025
-0.045
-0.025
-0.03
-0.055
-0.055
-0.06
-0.06
-0.03
0.01
0.065
0.08
0.07
0.08
0.065
0.095
0.04
-0.24
-0.79
-0.77
0.055
0.555
0.505
0.37
0.175
0.095
0.065
0.05
0.045
0.015
0.025
0.025
0.035
0.035
0.03
0.02
0.005
-0.005
-0.01
-0.045
-0.075
-0.105
-0.12
-0.14
-0.155
-0.155
-0.155
-0.155
-0.155
-0.135
-0.1
-0.03
0.03
0.065
0.11
0.135
0.135
0.13
0.155
0.155
0.14
0.125
0.13
0.135
0.115
0.135
0.14
0.135
0.14
0.145
0.14
0.13
0.11
0.11
0.1
0.055
0.045
0.07
0.08
0.13
0.175
0.21
0.24
0.245
0.25
0.245
0.295
0.255
-0.065
-0.67
-0.735
0.12
0.73
0.72
0.565
0.35
0.24
0.215
0.215
0.185
0.17
0.185
0.18
0.165
0.175
0.16
0.155
0.145
0.13
0.11
0.085
0.05
0.015
-0.02
-0.035
-0.055
-0.07
-0.08
-0.09
-0.08
-0.065
-0.02
0.035
0.08
0.13
0.17
0.19
0.195
0.19
0.17
0.155
0.135
0.125
0.105
0.09
0.08
0.08
0.085
0.085
0.09
0.095
0.1
0.08
0.055
0.055
0.05
0.03
0.005
0.005
0.0
0.03
0.06
0.1
0.125
0.135
0.13
0.125
0.135
0.115
-0.11
-0.64
-1.175
-0.44
0.58
0.65
0.475
0.265
0.145
0.09
0.07
0.055
0.05
0.05
0.05
0.045
0.025
0.015
0.005
-0.01
-0.035
-0.045
-0.065
-0.09
-0.12
-0.155
-0.19
-0.21
-0.22
-0.23
-0.235
-0.225
-0.205
-0.165
-0.11
-0.06
-0.01
0.025
0.055
0.075
0.08
0.07
0.06
0.055
0.04
0.035
0.02
0.005
-0.005
0.005
0.01
0.015
0.025
0.03
0.03
0.005
-0.01
-0.01
-0.01
-0.035
-0.045
-0.04
-0.045
-0.035
0.005
0.055
0.07
0.085
0.09
0.09
0.08
0.075
-0.135
-0.645
-1.215
-0.545
0.52
0.64
0.415
0.195
0.095
0.05
0.025
0.01
0.0
-0.005
-0.005
-0.01
-0.02
-0.035
-0.055
-0.07
-0.08
-0.1
-0.12
-0.145
-0.175
-0.205
-0.23
-0.255
-0.275
-0.275
-0.285
-0.275
-0.255
-0.225
-0.18
-0.13
-0.09
-0.06
-0.03
-0.01
-0.005
0.005
0.005
0.005
-0.005
-0.01
-0.03
-0.04
-0.045
-0.045
-0.04
-0.03
-0.025
-0.015
-0.005
-0.005
-0.005
-0.015
-0.05
-0.045
-0.055
-0.07
-0.08
-0.08
-0.08
-0.065
-0.025
0.025
0.045
0.045
0.05
0.045
0.045
0.045
-0.155
-0.655
-1.225
-0.555
0.495
0.595
0.37
0.14
0.03
-0.01
-0.03
-0.045
-0.05
-0.055
-0.065
-0.075
-0.09
-0.1
-0.125
-0.135
-0.15
-0.165
-0.185
-0.195
-0.23
-0.255
-0.28
-0.295
-0.305
-0.31
-0.31
-0.3
-0.29
-0.26
-0.22
-0.19
-0.155
-0.125
-0.11
-0.09
-0.09
-0.08
-0.07
-0.07
-0.075
-0.07
-0.08
-0.08
-0.075
-0.08
-0.07
-0.06
-0.06
-0.045
-0.045
-0.04
-0.045
-0.045
-0.05
-0.085
-0.105
-0.105
-0.105
-0.115
-0.115
-0.115
-0.13
-0.1
-0.06
-0.025
-0.005
0.005
-0.005
-0.01
-0.005
-0.01
-0.215
-0.73
-1.175
-0.37
0.56
0.525
0.31
0.095
0.005
-0.035
-0.06
-0.07
-0.08
-0.085
-0.09
-0.09
-0.105
-0.12
-0.145
-0.15
-0.175
-0.185
-0.205
-0.225
-0.235
-0.255
-0.265
-0.28
-0.28
-0.275
-0.27
-0.275
-0.275
-0.25
-0.225
-0.185
-0.165
-0.145
-0.135
-0.125
-0.115
-0.125
-0.125
-0.125
-0.125
-0.12
-0.125
-0.115
-0.11
-0.095
-0.09
-0.08
-0.075
-0.075
-0.07
-0.06
-0.055
-0.065
-0.065
-0.08
-0.105
-0.12
-0.115
-0.13
-0.135
-0.135
-0.145
-0.14
-0.11
-0.065
-0.03
-0.035
-0.025
-0.04
-0.05
-0.025
-0.075
-0.38
-0.93
-0.905
0.02
0.565
0.42
0.21
0.015
-0.045
-0.09
-0.1
-0.12
-0.125
-0.14
-0.145
-0.155
-0.165
-0.185
-0.2
-0.215
-0.23
-0.24
-0.255
-0.28
-0.29
-0.295
-0.3
-0.305
-0.295
-0.285
-0.3
-0.31
-0.295
-0.28
-0.24
-0.215
-0.18
-0.165
-0.155
-0.14
-0.14
-0.135
-0.13
-0.125
-0.13
-0.12
-0.12
-0.11
-0.11
-0.11
-0.095
-0.09
-0.09
-0.09
-0.09
-0.09
-0.085
-0.07
-0.075
-0.105
-0.13
-0.13
-0.13
-0.145
-0.165
-0.155
-0.135
-0.125
-0.095
-0.07
-0.03
-0.03
-0.04
-0.045
-0.04
-0.005
-0.055
-0.4
-1.03
-0.72
0.175
0.405
0.385
0.23
0.055
-0.005
-0.035
-0.04
-0.055
-0.065
-0.06
-0.06
-0.07
-0.07
-0.07
-0.075
-0.095
-0.115
-0.125
-0.15
-0.17
-0.18
-0.18
-0.19
-0.205
-0.195
-0.195
-0.2
-0.195
-0.18
-0.165
-0.13
-0.08
-0.045
-0.04
-0.045
-0.035
-0.04
-0.035
-0.03
-0.035
-0.05
-0.04
-0.04
-0.025
-0.03
-0.015
-0.005
-0.005
0.0
-0.005
-0.005
-0.005
0.005
-0.025
-0.035
-0.025
-0.05
-0.07
-0.065
-0.065
-0.065
-0.035
0.005
0.045
0.08
0.07
0.065
0.055
0.045
0.12
0.075
-0.31
-0.965
-0.86
0.015
0.47
0.495
0.35
0.145
0.05
0.015
0.01
-0.01
-0.015
-0.015
-0.01
-0.02
-0.03
-0.035
-0.045
-0.05
-0.08
-0.09
-0.125
-0.15
-0.175
-0.175
-0.175
-0.18
-0.18
-0.19
-0.195
-0.185
-0.165
-0.13
-0.085
-0.055
-0.03
-0.01
-0.01
-0.015
-0.025
-0.025
-0.035
-0.04
-0.055
-0.055
-0.05
-0.05
-0.055
-0.045
-0.05
-0.04
-0.035
-0.045
-0.04
-0.03
-0.04
-0.065
-0.105
-0.145
-0.175
-0.24
-0.37
-0.615
-1.09
-1.615
-2.025
-2.305
-2.555
-2.72
-2.84
-2.91
-2.645
-1.85
-0.855
-0.1
0.25
0.355
0.42
0.475
0.525
0.59
0.665
0.745
0.825
0.935
1.05
1.175
1.305
1.435
1.555
1.625
1.67
1.685
1.635
1.565
1.45
1.295
1.125
0.955
0.79
0.64
0.51
0.405
0.305
0.225
0.165
0.12
0.075
0.045
0.01
-0.005
-0.03
-0.04
-0.055
-0.075
-0.095
-0.1
-0.105
-0.11
-0.11
-0.115
-0.12
-0.12
-0.125
-0.125
-0.12
-0.115
-0.115
-0.11
-0.115
-0.12
-0.14
-0.16
-0.17
-0.17
-0.19
-0.205
-0.21
-0.2
-0.17
-0.135
-0.1
-0.085
-0.075
-0.075
-0.08
-0.1
-0.08
-0.2
-0.65
-1.27
-1.035
0.01
0.475
0.34
0.145
-0.035
-0.105
-0.13
-0.15
-0.155
-0.165
-0.165
-0.18
-0.195
-0.215
-0.225
-0.235
-0.25
-0.27
-0.295
-0.325
-0.34
-0.375
-0.39
-0.415
-0.43
-0.44
-0.44
-0.44
-0.435
-0.4
-0.355
-0.305
-0.24
-0.205
-0.18
-0.165
-0.165
-0.17
-0.16
-0.165
-0.18
-0.185
-0.185
-0.185
-0.165
-0.16
-0.145
-0.145
-0.125
-0.12
-0.115
-0.115
-0.11
-0.1
-0.125
-0.15
-0.17
-0.155
-0.18
-0.21
-0.2
-0.17
-0.135
-0.11
-0.09
-0.075
-0.075
-0.085
-0.085
-0.09
-0.065
-0.14
-0.485
-1.06
-1.115
-0.13
0.555
0.41
0.2
-0.005
-0.07
-0.11
-0.12
-0.14
-0.15
-0.155
-0.16
-0.165
-0.18
-0.2
-0.215
-0.235
-0.24
-0.265
-0.28
-0.295
-0.32
-0.33
-0.335
-0.335
-0.325
-0.32
-0.315
-0.305
-0.285
-0.235
-0.2
-0.15
-0.13
-0.125
-0.115
-0.12
-0.115
-0.13
-0.135
-0.135
-0.14
-0.135
-0.135
-0.125
-0.12
-0.115
-0.105
-0.095
-0.095
-0.08
-0.075
-0.085
-0.08
-0.08
-0.1
-0.13
-0.135
-0.14
-0.165
-0.19
-0.165
-0.13
-0.095
-0.07
-0.05
-0.05
-0.045
-0.05
-0.055
-0.07
-0.045
-0.14
-0.545
-1.135
-0.89
0.125
0.55
0.375
0.165
-0.015
-0.075
-0.105
-0.125
-0.135
-0.145
-0.155
-0.16
-0.17
-0.19
-0.21
-0.225
-0.24
-0.26
-0.28
-0.29
-0.31
-0.325
-0.34
-0.355
-0.355
-0.35
-0.355
-0.36
-0.35
-0.325
-0.285
-0.24
-0.215
-0.2
-0.18
-0.17
-0.165
-0.17
-0.175
-0.185
-0.18
-0.195
-0.185
-0.185
-0.17
-0.165
-0.15
-0.145
-0.135
-0.125
-0.12
-0.125
-0.125
-0.125
-0.115
-0.115
-0.135
-0.17
-0.175
-0.185
-0.205
-0.23
-0.195
-0.15
-0.13
-0.105
-0.08
-0.075
-0.075
-0.08
-0.095
-0.115
-0.085
-0.22
-0.66
-1.25
-0.735
0.275
0.47
0.275
0.06
-0.085
-0.135
-0.155
-0.165
-0.195
-0.195
-0.195
-0.195
-0.225
-0.225
-0.255
-0.275
-0.29
-0.295
-0.305
-0.33
-0.345
-0.35
-0.365
-0.375
-0.385
-0.375
-0.385
-0.375
-0.36
-0.335
-0.29
-0.24
-0.205
-0.185
-0.17
-0.165
-0.165
-0.16
-0.165
-0.16
-0.155
-0.145
-0.16
-0.145
-0.13
-0.125
-0.13
-0.14
-0.125
-0.115
-0.115
-0.105
-0.11
-0.105
-0.095
-0.095
-0.115
-0.13
-0.14
-0.165
-0.175
-0.15
-0.125
-0.09
-0.085
-0.06
-0.04
-0.01
-0.025
-0.035
-0.04
-0.01
0.05
-0.025
-0.5
-1.155
-0.695
0.21
0.385
0.37
0.195
0.03
-0.04
-0.06
-0.09
-0.09
-0.075
-0.075
-0.095
-0.105
-0.11
-0.105
-0.125
-0.145
-0.165
-0.185
-0.225
-0.26
-0.25
-0.255
-0.29
-0.29
-0.295
-0.3
-0.305
-0.255
-0.24
-0.2
-0.155
-0.12
-0.105
-0.085
-0.085
-0.065
-0.065
-0.075
-0.09
-0.095
-0.105
-0.08
-0.095
-0.065
-0.065
-0.065
-0.06
-0.06
-0.045
-0.03
-0.03
-0.025
-0.02
-0.04
-0.07
-0.08
-0.09
-0.115
-0.16
-0.11
-0.075
-0.05
-0.02
0.01
0.03
0.025
0.005
-0.005
-0.005
0.06
0.065
-0.15
-0.715
-1.19
-0.52
0.36
0.47
0.4
0.17
0.055
-0.02
-0.045
-0.065
-0.065
-0.08
-0.08
-0.095
-0.1
-0.12
-0.115
-0.13
-0.15
-0.185
-0.21
-0.24
-0.27
-0.295
-0.305
-0.32
-0.305
-0.31
-0.305
-0.29
-0.25
-0.215
-0.165
-0.125
-0.08
-0.065
-0.05
-0.045
-0.05
-0.065
-0.085
-0.1
-0.105
-0.135
-0.13
-0.135
-0.125
-0.11
-0.1
-0.105
-0.095
-0.09
-0.08
-0.09
-0.08
-0.075
-0.095
-0.165
-0.2
-0.245
-0.34
-0.49
-0.77
-1.26
-1.75
-2.11
-2.365
-2.55
-2.64
-2.785
-2.84
-2.47
-1.64
-0.7
-0.03
0.25
0.335
0.405
0.46
0.515
0.58
0.645
0.74
0.84
0.965
1.075
1.215
1.335
1.455
1.555
1.635
1.67
1.64
1.565
1.445
1.275
1.09
0.89
0.695
0.51
0.385
0.28
0.215
0.15
0.12
0.085
0.08
0.04
0.03
0.015
0.01
-0.01
-0.025
-0.045
-0.055
-0.07
-0.065
-0.08
-0.075
-0.09
-0.08
-0.085
-0.085
-0.08
-0.09
-0.095
-0.09
-0.105
-0.095
-0.095
-0.095
-0.095
-0.085
-0.105
-0.135
-0.15
-0.15
-0.185
-0.2
-0.185
-0.16
-0.115
-0.09
-0.07
-0.05
-0.055
-0.055
-0.07
-0.07
-0.06
-0.105
-0.375
-0.93
-1.365
-0.525
0.445
0.455
0.265
0.055
-0.055
-0.095
-0.115
-0.12
-0.135
-0.14
-0.14
-0.15
-0.175
-0.185
-0.2
-0.22
-0.25
-0.265
-0.285
-0.315
-0.355
-0.385
-0.415
-0.43
-0.44
-0.445
-0.455
-0.435
-0.4
-0.35
-0.285
-0.22
-0.17
-0.14
-0.125
-0.115
-0.11
-0.11
-0.11
-0.115
-0.13
-0.135
-0.14
-0.14
-0.145
-0.135
-0.13
-0.12
-0.115
-0.1
-0.095
-0.085
-0.08
-0.075
-0.075
-0.065
-0.065
-0.095
-0.12
-0.11
-0.12
-0.15
-0.155
-0.12
-0.08
-0.065
-0.045
-0.025
-0.015
-0.025
-0.025
-0.04
-0.045
-0.045
-0.2
-0.665
-1.24
-0.71
0.345
0.56
0.35
0.13
-0.015
-0.065
-0.09
-0.1
-0.115
-0.115
-0.12
-0.12
-0.13
-0.155
-0.18
-0.2
-0.215
-0.24
-0.275
-0.295
-0.32
-0.34
-0.36
-0.37
-0.37
-0.37
-0.355
-0.34
-0.315
-0.265
-0.215
-0.155
-0.12
-0.1
-0.09
-0.095
-0.095
-0.095
-0.095
-0.105
-0.115
-0.125
-0.13
-0.125
-0.12
-0.12
-0.11
-0.1
-0.095
-0.09
-0.085
-0.08
-0.075
-0.075
-0.07
-0.075
-0.075
-0.07
-0.08
-0.07
-0.08
-0.11
-0.13
-0.135
-0.165
-0.19
-0.175
-0.145
-0.095
-0.075
-0.055
-0.045
-0.045
-0.05
-0.055
-0.065
-0.055
-0.065
-0.25
-0.74
-1.305
-0.635
0.385
0.485
0.305
0.08
-0.045
-0.09
-0.115
-0.125
-0.135
-0.135
-0.155
-0.15
-0.165
-0.19
-0.21
-0.225
-0.235
-0.265
-0.3
-0.325
-0.35
-0.37
-0.39
-0.395
-0.4
-0.405
-0.4
-0.38
-0.355
-0.315
-0.26
-0.205
-0.17
-0.15
-0.145
-0.135
-0.135
-0.135
-0.145
-0.15
-0.155
-0.155
-0.16
-0.165
-0.15
-0.15
-0.135
-0.125
-0.11
-0.115
-0.105
-0.11
-0.11
-0.105
-0.105
-0.095
-0.095
-0.095
-0.095
-0.095
-0.09
-0.105
-0.13
-0.14
-0.15
-0.165
-0.17
-0.17
-0.155
-0.145
-0.115
-0.1
-0.07
-0.07
-0.075
-0.075
-0.085
-0.095
-0.04
-0.035
-0.29
-0.85
-1.06
-0.325
0.33
0.355
0.27
0.08
-0.04
-0.095
-0.11
-0.13
-0.13
-0.125
-0.125
-0.165
-0.16
-0.155
-0.175
-0.195
-0.21
-0.24
-0.27
-0.29
-0.32
-0.345
-0.345
-0.36
-0.38
-0.37
-0.35
-0.325
-0.29
-0.225
-0.175
-0.115
-0.08
-0.06
-0.035
-0.035
-0.045
-0.045
-0.04
-0.065
-0.065
-0.075
-0.09
-0.07
-0.07
-0.07
-0.06
-0.055
-0.045
-0.03
-0.025
-0.025
-0.025
-0.035
-0.01
0.005
-0.02
-0.015
-0.035
-0.065
-0.065
-0.05
-0.09
-0.135
-0.085
-0.05
-0.035
-0.04
-0.005
0.03
0.025
0.015
0.005
0.005
0.03
0.08
-0.035
-0.495
-1.175
-0.77
0.205
0.455
0.42
0.255
0.095
0.015
-0.025
-0.025
-0.04
-0.04
-0.05
-0.055
-0.045
-0.07
-0.075
-0.1
-0.12
-0.125
-0.155
-0.205
-0.23
-0.265
-0.3
-0.325
-0.325
-0.315
-0.31
-0.29
-0.255
-0.195
-0.13
-0.075
-0.025
0.01
0.04
0.04
0.05
0.04
0.02
0.005
-0.02
-0.025
-0.045
-0.05
-0.05
-0.065
-0.05
-0.05
-0.04
-0.045
-0.035
-0.03
-0.035
-0.035
-0.035
-0.03
-0.025
-0.025
-0.02
-0.04
-0.075
-0.085
-0.08
-0.125
-0.145
-0.13
-0.095
-0.07
-0.05
-0.035
-0.025
-0.02
-0.025
-0.03
-0.03
-0.05
-0.03
-0.165
-0.57
-1.175
-1.025
-0.01
0.505
0.39
0.205
0.02
-0.05
-0.08
-0.095
-0.105
-0.11
-0.115
-0.125
-0.14
-0.145
-0.155
-0.18
-0.205
-0.235
-0.26
-0.295
-0.335
-0.37
-0.4
-0.43
-0.445
-0.45
-0.44
-0.41
-0.36
-0.29
-0.23
-0.17
-0.125
-0.095
-0.075
-0.055
-0.045
-0.045
-0.05
-0.055
-0.065
-0.08
-0.105
-0.1
-0.11
-0.11
-0.115
-0.105
-0.09
-0.09
-0.08
-0.075
-0.075
-0.065
-0.065
-0.06
-0.06
-0.055
-0.055
-0.04
-0.045
-0.075
-0.1
-0.085
-0.1
-0.12
-0.145
-0.115
-0.08
-0.065
-0.03
-0.01
-0.005
-0.005
-0.005
-0.005
-0.025
-0.015
-0.055
-0.29
-0.82
-1.295
-0.46
0.545
0.52
0.31
0.1
0.0
-0.04
-0.05
-0.065
-0.08
-0.085
-0.095
-0.115
-0.12
-0.135
-0.16
-0.18
-0.2
-0.225
-0.255
-0.3
-0.34
-0.39
-0.42
-0.44
-0.46
-0.46
-0.445
-0.4
-0.335
-0.255
-0.19
-0.135
-0.09
-0.065
-0.04
-0.03
-0.02
-0.025
-0.025
-0.035
-0.035
-0.045
-0.055
-0.055
-0.065
-0.065
-0.07
-0.07
-0.065
-0.055
-0.045
-0.045
-0.045
-0.04
-0.045
-0.035
-0.035
-0.035
-0.035
-0.03
-0.03
-0.03
-0.025
-0.025
-0.025
-0.02
-0.025
-0.05
-0.075
-0.07
-0.08
-0.105
-0.115
-0.105
-0.085
-0.065
-0.025
-0.015
0.005
0.01
0.005
-0.005
-0.015
-0.02
-0.03
-0.235
-0.72
-1.27
-0.57
0.47
0.56
0.355
0.145
0.015
-0.03
-0.05
-0.06
-0.075
-0.08
-0.095
-0.1
-0.12
-0.13
-0.165
-0.17
-0.19
-0.215
-0.24
-0.28
-0.31
-0.35
-0.385
-0.405
-0.425
-0.425
-0.42
-0.39
-0.345
-0.28
-0.215
-0.155
-0.115
-0.08
-0.065
-0.055
-0.055
-0.055
-0.055
-0.065
-0.065
-0.07
-0.08
-0.08
-0.075
-0.085
-0.075
-0.065
-0.065
-0.065
-0.055
-0.05
-0.06
-0.055
-0.05
-0.045
-0.045
-0.045
-0.05
-0.05
-0.04
-0.035
-0.035
-0.045
-0.04
-0.03
-0.04
-0.035
-0.04
-0.045
-0.06
-0.065
-0.065
-0.075
-0.085
-0.09
-0.075
-0.055
-0.04
-0.01
-0.005
-0.005
-0.02
-0.02
-0.035
-0.05
-0.035
-0.075
-0.335
-0.865
-1.225
-0.34
0.535
0.475
0.295
0.08
-0.02
-0.065
-0.08
-0.1
-0.105
-0.11
-0.125
-0.125
-0.145
-0.145
-0.16
-0.175
-0.205
-0.23
-0.26
-0.285
-0.325
-0.355
-0.385
-0.4
-0.41
-0.415
-0.4
-0.37
-0.325
-0.26
-0.205
-0.155
-0.11
-0.08
-0.065
-0.055
-0.055
-0.06
-0.07
-0.075
-0.075
-0.07
-0.07
-0.075
-0.08
-0.08
-0.075
-0.065
-0.055
-0.05
-0.05
-0.04
-0.035
-0.04
-0.035
-0.025
-0.03
-0.03
-0.03
-0.03
-0.045
-0.035
-0.035
-0.035
-0.035
-0.05
-0.07
-0.06
-0.06
-0.085
-0.105
-0.105
-0.08
-0.065
-0.045
-0.005
0.015
0.01
0.005
-0.005
0.0
-0.005
0.025
0.08
-0.095
-0.63
-1.15
-0.52
0.34
0.44
0.385
0.225
0.08
-0.005
-0.035
-0.035
-0.035
-0.045
-0.055
-0.065
-0.065
-0.07
-0.07
-0.085
-0.115
-0.145
-0.17
-0.175
-0.225
-0.265
-0.31
-0.32
-0.33
-0.34
-0.325
-0.3
-0.25
-0.175
-0.125
-0.07
-0.01
-0.005
0.01
0.045
0.025
0.03
0.03
0.015
0.015
0.005
-0.01
0.01
-0.005
0.0
0.005
0.0
0.025
0.035
0.025
0.035
0.035
0.045
0.05
0.045
-0.01
-0.025
-0.04
-0.095
-0.35
-0.86
-1.48
-2.055
-2.5
-2.865
-3.13
-3.255
-3.275
-2.825
-1.785
-0.715
0.035
0.425
0.52
0.585
0.655
0.695
0.775
0.855
0.925
1.045
1.125
1.25
1.39
1.5
1.64
1.755
1.815
1.86
1.845
1.76
1.615
1.435
1.225
1.0
0.805
0.625
0.475
0.375
0.29
0.24
0.195
0.165
0.155
0.14
0.125
0.11
0.09
0.085
0.08
0.075
0.055
0.045
0.025
0.015
0.01
-0.005
-0.015
-0.01
-0.015
-0.005
-0.015
-0.025
-0.015
-0.015
-0.02
-0.015
-0.015
-0.015
-0.02
-0.02
-0.025
-0.025
-0.025
-0.02
-0.025
-0.035
-0.03
-0.035
-0.045
-0.04
-0.04
-0.04
-0.04
-0.035
-0.035
-0.045
-0.065
-0.095
-0.115
-0.115
-0.125
-0.145
-0.15
-0.13
-0.11
-0.09
-0.05
-0.03
-0.03
-0.035
-0.035
-0.04
-0.05
-0.03
-0.13
-0.55
-1.195
-1.16
-0.14
0.48
0.365
0.215
0.025
-0.04
-0.07
-0.08
-0.1
-0.11
-0.115
-0.125
-0.14
-0.145
-0.17
-0.185
-0.205
-0.225
-0.25
-0.285
-0.325
-0.36
-0.405
-0.43
-0.455
-0.47
-0.485
-0.475
-0.445
-0.395
-0.325
-0.255
-0.195
-0.145
-0.11
-0.08
-0.075
-0.075
-0.075
-0.075
-0.085
-0.08
-0.105
-0.12
-0.13
-0.135
-0.135
-0.125
-0.125
-0.12
-0.115
-0.1
-0.095
-0.095
-0.09
-0.085
-0.08
-0.07
-0.07
-0.07
-0.065
-0.06
-0.05
-0.085
-0.115
-0.105
-0.115
-0.155
-0.165
-0.13
-0.095
-0.065
-0.045
-0.025
-0.015
-0.015
-0.02
-0.025
-0.03
-0.03
-0.055
-0.275
-0.785
-1.315
-0.585
0.445
0.51
0.33
0.11
-0.005
-0.055
-0.07
-0.08
-0.095
-0.105
-0.11
-0.125
-0.14
-0.155
-0.175
-0.2
-0.22
-0.24
-0.27
-0.305
-0.345
-0.385
-0.42
-0.45
-0.455
-0.46
-0.44
-0.4
-0.34
-0.27
-0.2
-0.145
-0.105
-0.07
-0.05
-0.04
-0.035
-0.04
-0.045
-0.045
-0.05
-0.055
-0.055
-0.065
-0.065
-0.08
-0.07
-0.07
-0.065
-0.06
-0.055
-0.045
-0.035
-0.03
-0.035
-0.03
-0.025
-0.03
-0.035
-0.025
-0.025
-0.045
-0.07
-0.075
-0.08
-0.11
-0.14
-0.12
-0.09
-0.06
-0.035
-0.005
0.0
0.0
-0.005
-0.015
-0.015
-0.025
-0.01
-0.105
-0.465
-1.035
-1.04
-0.065
0.565
0.435
0.25
0.05
-0.02
-0.05
-0.07
-0.08
-0.075
-0.095
-0.105
-0.115
-0.12
-0.14
-0.155
-0.175
-0.2
-0.23
-0.26
-0.29
-0.335
-0.375
-0.4
-0.425
-0.44
-0.44
-0.415
-0.375
-0.305
-0.23
-0.165
-0.11
-0.07
-0.045
-0.025
-0.025
-0.025
-0.035
-0.045
-0.05
-0.055
-0.06
-0.075
-0.075
-0.075
-0.075
-0.075
-0.07
-0.07
-0.065
-0.055
-0.05
-0.045
-0.04
-0.035
-0.035
-0.04
-0.03
-0.025
-0.02
-0.02
-0.015
-0.01
-0.03
-0.055
-0.065
-0.075
-0.11
-0.13
-0.095
-0.05
-0.03
-0.005
0.025
0.02
0.015
0.01
0.015
0.01
0.005
0.03
-0.05
-0.4
-0.97
-0.895
-0.005
0.5
0.44
0.295
0.105
0.035
0.0
-0.03
-0.04
-0.05
-0.055
-0.065
-0.075
-0.085
-0.095
-0.105
-0.125
-0.145
-0.17
-0.205
-0.24
-0.285
-0.32
-0.345
-0.36
-0.37
-0.365
-0.345
-0.3
-0.235
-0.17
-0.115
-0.07
-0.03
0.0
0.01
0.02
0.025
0.015
-0.005
-0.005
-0.01
-0.02
-0.025
-0.02
-0.025
-0.02
-0.015
-0.015
-0.01
-0.005
0.005
0.015
0.01
0.015
0.015
0.02
0.015
0.01
0.015
0.02
0.02
0.025
0.0
-0.02
-0.005
-0.035
-0.08
-0.08
-0.045
-0.005
0.02
0.04
0.045
0.05
0.055
0.065
0.055
0.035
0.03
0.085
0.055
-0.285
-0.905
-0.98
-0.165
0.425
0.455
0.355
0.155
0.06
0.02
0.005
-0.005
-0.01
-0.025
-0.035
-0.05
-0.055
-0.065
-0.08
-0.095
-0.11
-0.145
-0.185
-0.215
-0.25
-0.28
-0.305
-0.325
-0.325
-0.325
-0.3
-0.255
-0.205
-0.145
-0.08
-0.03
0.01
0.035
0.045
0.055
0.05
0.05
0.05
0.04
0.035
0.01
0.0
0.005
0.01
0.005
0.005
0.01
0.015
0.025
0.025
0.035
0.035
0.035
0.045
0.03
0.035
0.035
0.045
0.04
0.05
0.055
0.035
0.01
-0.005
-0.025
-0.065
-0.08
-0.04
-0.015
0.005
0.025
0.05
0.065
0.065
0.06
0.06
0.055
0.045
0.065
0.05
-0.195
-0.745
-1.26
-0.55
0.4
0.49
0.405
0.21
0.075
0.015
-0.005
-0.015
-0.025
-0.03
-0.04
-0.065
-0.075
-0.085
-0.105
-0.11
-0.135
-0.155
-0.195
-0.235
-0.28
-0.325
-0.355
-0.38
-0.395
-0.395
-0.37
-0.325
-0.26
-0.19
-0.13
-0.08
-0.04
-0.01
0.005
0.01
0.02
0.03
0.025
0.015
0.005
-0.005
-0.01
-0.015
-0.025
-0.03
-0.04
-0.04
-0.04
-0.035
-0.025
-0.01
-0.01
-0.005
0.0
-0.005
-0.005
0.005
0.01
0.01
0.01
0.015
0.015
0.005
-0.015
-0.04
-0.04
-0.045
-0.07
-0.08
-0.065
-0.045
-0.025
0.005
0.025
0.035
0.03
0.03
0.02
0.01
0.005
0.025
-0.07
-0.4
-0.975
-1.135
-0.16
0.6
0.46
0.28
0.085
0.01
-0.035
-0.04
-0.055
-0.065
-0.075
-0.08
-0.1
-0.115
-0.135
-0.145
-0.165
-0.185
-0.225
-0.265
-0.31
-0.36
-0.415
-0.445
-0.475
-0.485
-0.49
-0.46
-0.4
-0.315
-0.235
-0.17
-0.115
-0.08
-0.055
-0.04
-0.03
-0.025
-0.02
-0.015
-0.02
-0.02
-0.03
-0.035
-0.04
-0.055
-0.065
-0.065
-0.055
-0.055
-0.055
-0.05
-0.045
-0.045
-0.045
-0.035
-0.03
-0.035
-0.025
-0.025
-0.02
-0.02
-0.015
-0.015
-0.02
-0.05
-0.075
-0.06
-0.065
-0.085
-0.095
-0.08
-0.055
-0.035
-0.005
0.02
0.025
0.025
0.02
0.01
-0.005
-0.005
0.01
-0.12
-0.515
-1.075
-0.91
0.12
0.63
0.445
0.25
0.08
0.005
-0.025
-0.04
-0.06
-0.06
-0.065
-0.075
-0.08
-0.085
-0.095
-0.12
-0.15
-0.165
-0.205
-0.24
-0.3
-0.35
-0.4
-0.445
-0.47
-0.485
-0.47
-0.435
-0.37
-0.285
-0.215
-0.145
-0.09
-0.055
-0.04
-0.03
-0.025
-0.015
-0.015
-0.015
-0.02
-0.02
-0.025
-0.03
-0.03
-0.035
-0.05
-0.05
-0.05
-0.05
-0.05
-0.04
-0.035
-0.035
-0.025
-0.025
-0.025
-0.015
-0.02
-0.015
-0.015
-0.015
-0.015
-0.01
-0.015
-0.005
-0.005
-0.005
-0.015
-0.04
-0.065
-0.06
-0.065
-0.085
-0.11
-0.09
-0.075
-0.045
-0.03
-0.005
0.01
0.015
0.015
0.01
0.01
-0.015
0.01
-0.08
-0.425
-0.985
-1.055
-0.085
0.585
0.45
0.265
0.08
-0.005
-0.04
-0.06
-0.075
-0.08
-0.085
-0.1
-0.105
-0.115
-0.135
-0.155
-0.17
-0.195
-0.225
-0.265
-0.31
-0.355
-0.395
-0.43
-0.46
-0.485
-0.48
-0.46
-0.4
-0.335
-0.25
-0.18
-0.13
-0.1
-0.065
-0.055
-0.045
-0.03
-0.02
-0.025
-0.03
-0.04
-0.045
-0.045
-0.04
-0.06
-0.065
-0.07
-0.07
-0.07
-0.065
-0.065
-0.065
-0.055
-0.04
-0.05
-0.045
-0.045
-0.045
-0.045
-0.035
-0.035
-0.03
-0.045
-0.065
-0.075
-0.07
-0.08
-0.09
-0.115
-0.08
-0.075
-0.07
-0.04
-0.01
0.005
0.015
0.015
0.02
0.0
0.0
0.035
0.05
-0.165
-0.69
-1.1
-0.42
0.365
0.43
0.385
0.205
0.05
0.01
-0.02
-0.02
-0.04
-0.045
-0.05
-0.06
-0.07
-0.065
-0.08
-0.1
-0.115
-0.14
-0.195
-0.225
-0.275
-0.31
-0.365
-0.38
-0.395
-0.4
-0.375
-0.325
-0.26
-0.175
-0.115
-0.07
-0.03
0.01
0.025
0.035
0.04
0.055
0.035
0.03
0.025
0.03
0.02
0.015
0.01
0.01
0.01
0.025
0.02
0.025
0.02
0.035
0.04
0.04
0.025
0.025
-0.01
-0.015
-0.04
-0.095
-0.295
-0.765
-1.395
-1.95
-2.38
-2.775
-3.085
-3.175
-3.195
-2.925
-2.035
-0.935
-0.115
0.345
0.485
0.56
0.62
0.675
0.725
0.805
0.89
0.99
1.085
1.195
1.305
1.455
1.58
1.695
1.765
1.805
1.8
1.73
1.595
1.415
1.19
0.99
0.77
0.585
0.445
0.345
0.29
0.26
0.23
0.225
0.195
0.205
0.205
0.19
0.17
0.165
0.16
0.165
0.15
0.135
0.125
0.125
0.11
0.11
0.1
0.095
0.085
0.09
0.08
0.07
0.055
0.075
0.06
0.065
0.065
0.07
0.06
0.06
0.06
0.06
0.06
0.06
0.055
0.055
0.045
0.055
0.045
0.055
0.05
0.045
0.03
-0.005
-0.015
-0.015
-0.045
-0.075
-0.065
-0.03
-0.025
0.005
0.05
0.065
0.06
0.06
0.05
0.045
0.03
0.055
-0.045
-0.47
-1.105
-1.165
-0.215
0.495
0.455
0.33
0.115
0.035
-0.015
-0.03
-0.04
-0.045
-0.045
-0.055
-0.07
-0.075
-0.095
-0.11
-0.135
-0.15
-0.185
-0.215
-0.27
-0.32
-0.365
-0.4
-0.435
-0.455
-0.465
-0.45
-0.4
-0.335
-0.255
-0.18
-0.125
-0.08
-0.045
-0.02
-0.015
-0.005
0.0
0.015
0.01
0.01
-0.005
-0.015
-0.02
-0.025
-0.035
-0.04
-0.045
-0.035
-0.03
-0.015
-0.01
0.0
0.01
0.015
0.015
0.03
0.03
0.03
0.0
-0.025
-0.02
-0.02
-0.05
-0.06
-0.03
0.015
0.035
0.065
0.085
0.09
0.08
0.085
0.075
0.06
0.055
0.05
-0.16
-0.655
-1.23
-0.635
0.44
0.635
0.42
0.195
0.07
0.035
0.015
0.005
-0.01
-0.005
-0.015
-0.02
-0.045
-0.06
-0.08
-0.105
-0.12
-0.145
-0.18
-0.22
-0.265
-0.32
-0.375
-0.4
-0.43
-0.435
-0.405
-0.345
-0.27
-0.185
-0.105
-0.05
-0.01
0.02
0.04
0.05
0.055
0.065
0.065
0.07
0.065
0.065
0.06
0.05
0.05
0.045
0.045
0.05
0.05
0.045
0.05
0.055
0.06
0.08
0.08
0.08
0.08
0.08
0.08
0.085
0.09
0.065
0.03
0.035
0.02
-0.005
-0.03
-0.005
0.03
0.055
0.08
0.1
0.105
0.105
0.11
0.105
0.09
0.085
0.105
0.02
-0.31
-0.87
-1.06
-0.075
0.735
0.59
0.375
0.18
0.11
0.075
0.07
0.05
0.04
0.035
0.03
0.02
0.005
-0.01
-0.045
-0.07
-0.08
-0.11
-0.16
-0.205
-0.25
-0.305
-0.355
-0.385
-0.4
-0.4
-0.375
-0.315
-0.235
-0.15
-0.08
-0.04
-0.01
0.015
0.045
0.065
0.08
0.08
0.095
0.09
0.09
0.09
0.1
0.11
0.105
0.095
0.085
0.085
0.09
0.085
0.085
0.095
0.09
0.095
0.105
0.095
0.1
0.115
0.115
0.12
0.12
0.125
0.13
0.115
0.09
0.075
0.08
0.05
0.03
0.07
0.11
0.11
0.12
0.145
0.16
0.165
0.155
0.155
0.155
0.155
0.18
0.18
0.0
-0.485
-1.025
-0.41
0.515
0.62
0.545
0.365
0.215
0.16
0.145
0.135
0.125
0.115
0.105
0.095
0.09
0.07
0.065
0.045
0.035
-0.01
-0.05
-0.09
-0.14
-0.185
-0.225
-0.27
-0.275
-0.29
-0.265
-0.22
-0.15
-0.08
0.005
0.045
0.085
0.13
0.14
0.155
0.165
0.165
0.17
0.165
0.155
0.145
0.135
0.13
0.125
0.125
0.13
0.135
0.12
0.125
0.135
0.14
0.15
0.15
0.145
0.145
0.15
0.135
0.145
0.15
0.155
0.155
0.14
0.115
0.11
0.11
0.095
0.06
0.045
0.055
0.08
0.09
0.125
0.155
0.175
0.175
0.175
0.165
0.15
0.15
0.175
0.185
-0.025
-0.535
-1.125
-0.505
0.46
0.6
0.545
0.355
0.215
0.145
0.11
0.105
0.1
0.1
0.095
0.09
0.075
0.055
0.055
0.055
0.03
-0.025
-0.05
-0.09
-0.15
-0.21
-0.255
-0.285
-0.295
-0.305
-0.285
-0.23
-0.155
-0.075
-0.005
0.055
0.095
0.12
0.135
0.155
0.17
0.185
0.175
0.175
0.17
0.17
0.165
0.155
0.155
0.145
0.135
0.14
0.145
0.14
0.14
0.15
0.16
0.155
0.16
0.155
0.15
0.155
0.155
0.155
0.17
0.16
0.14
0.12
0.105
0.09
0.07
0.05
0.055
0.075
0.085
0.1
0.14
0.165
0.175
0.175
0.16
0.155
0.145
0.135
0.165
0.04
-0.405
-1.04
-0.835
0.15
0.605
0.565
0.405
0.225
0.145
0.105
0.08
0.065
0.065
0.055
0.05
0.03
0.03
0.015
-0.005
-0.025
-0.055
-0.08
-0.14
-0.195
-0.255
-0.31
-0.355
-0.395
-0.4
-0.39
-0.34
-0.275
-0.19
-0.115
-0.045
-0.005
0.03
0.035
0.045
0.055
0.07
0.07
0.08
0.08
0.08
0.07
0.065
0.045
0.035
0.03
0.015
0.01
0.015
0.015
0.015
0.02
0.025
0.025
0.03
0.035
0.045
0.045
0.05
0.045
0.055
0.035
0.01
-0.01
0.0
-0.01
-0.025
-0.03
-0.025
-0.015
0.005
0.055
0.07
0.08
0.08
0.08
0.08
0.065
0.06
0.07
-0.055
-0.465
-1.085
-0.935
0.125
0.67
0.495
0.29
0.125
0.07
0.04
0.03
0.03
0.025
0.015
0.0
-0.015
-0.03
-0.045
-0.06
-0.08
-0.12
-0.145
-0.19
-0.24
-0.305
-0.36
-0.415
-0.445
-0.46
-0.45
-0.405
-0.31
-0.23
-0.145
-0.075
-0.025
0.015
0.035
0.04
0.055
0.055
0.065
0.07
0.085
0.085
0.08
0.065
0.065
0.065
0.055
0.055
0.06
0.055
0.055
0.065
0.065
0.06
0.065
0.07
0.06
0.07
0.075
0.075
0.08
0.08
0.09
0.085
0.08
0.05
0.03
0.035
0.03
0.005
0.0
0.01
0.0
0.025
0.055
0.085
0.11
0.11
0.11
0.11
0.105
0.095
0.09
0.055
-0.19
-0.73
-1.24
-0.425
0.615
0.63
0.43
0.21
0.115
0.08
0.055
0.035
0.035
0.03
0.025
0.01
-0.01
-0.02
-0.025
-0.055
-0.085
-0.12
-0.15
-0.195
-0.26
-0.325
-0.385
-0.42
-0.445
-0.46
-0.43
-0.365
-0.275
-0.19
-0.11
-0.04
0.01
0.03
0.05
0.055
0.06
0.065
0.065
0.07
0.065
0.065
0.06
0.06
0.06
0.05
0.065
0.05
0.045
0.05
0.05
0.045
0.035
0.04
0.04
0.04
0.05
0.045
0.05
0.05
0.05
0.055
0.055
0.055
0.065
0.03
0.0
-0.005
0.0
-0.015
-0.02
-0.025
-0.015
-0.015
0.015
0.06
0.08
0.09
0.1
0.09
0.09
0.08
0.075
0.075
-0.085
-0.525
-1.105
-0.715
0.365
0.71
0.5
0.275
0.13
0.075
0.055
0.04
0.03
0.02
0.015
0.005
-0.01
-0.025
-0.045
-0.06
-0.075
-0.105
-0.13
-0.19
-0.245
-0.305
-0.365
-0.42
-0.46
-0.48
-0.46
-0.41
-0.335
-0.24
-0.155
-0.085
-0.04
-0.005
0.025
0.035
0.04
0.05
0.055
0.05
0.05
0.05
0.06
0.06
0.06
0.065
0.06
0.06
0.06
0.055
0.055
0.05
0.05
0.05
0.06
0.065
0.055
0.065
0.075
0.085
0.085
0.08
0.09
0.085
0.08
0.06
0.03
0.015
0.03
0.02
-0.01
-0.015
-0.01
-0.005
0.015
0.035
0.08
0.1
0.1
0.1
0.09
0.085
0.085
0.105
0.095
-0.11
-0.62
-1.115
-0.43
0.465
0.54
0.47
0.275
0.135
0.075
0.045
0.025
0.02
0.02
0.015
-0.005
-0.01
-0.015
-0.025
-0.045
-0.07
-0.105
-0.14
-0.19
-0.24
-0.3
-0.35
-0.395
-0.425
-0.425
-0.395
-0.335
-0.25
-0.165
-0.085
-0.03
0.005
0.03
0.04
0.065
0.07
0.075
0.08
0.075
0.08
0.075
0.07
0.065
0.05
0.05
0.055
0.045
0.035
0.04
0.045
0.045
0.045
0.05
0.05
0.045
0.03
0.005
-0.015
-0.065
0.055
0.015
-0.025
-0.075
-0.115
-0.185
-0.215
-0.23
-0.25
-0.24
-0.24
-0.195
-0.125
-0.03
0.08
0.115
0.175
0.22
0.23
0.225
0.24
0.25
0.275
0.285
0.24
0.245
0.26
0.24
0.25
0.26
0.225
0.22
0.215
0.195
0.2
0.205
0.215
0.21
0.185
0.215
0.25
0.24
0.24
0.215
0.22
0.24
0.23
0.22
0.245
0.225
0.23
0.215
0.205
0.215
0.205
0.215
0.235
0.215
0.205
0.165
0.14
0.13
0.135
0.135
0.15
0.125
0.13
0.135
0.13
0.17
0.21
0.21
0.215
0.185
0.19
0.195
0.17
0.15
0.075
-0.21
-0.76
-1.255
-0.18
1.205
1.23
0.79
0.4
0.2
0.14
0.1
0.07
0.04
0.03
0.02
0.015
-0.005
-0.015
-0.015
-0.03
-0.055
-0.07
-0.1
-0.105
-0.155
-0.215
-0.24
-0.3
-0.36
-0.405
-0.46
-0.5
-0.515
-0.5
-0.445
-0.38
-0.285
-0.18
-0.11
-0.045
-0.005
0.02
0.06
0.07
0.065
0.08
0.08
0.08
0.09
0.085
0.055
0.06
0.055
0.065
0.055
0.04
0.01
0.02
0.04
0.035
0.025
0.02
0.03
0.06
0.06
0.04
0.04
0.035
0.04
0.05
0.035
0.045
0.045
0.045
0.035
0.025
0.005
0.02
0.03
0.04
0.04
0.05
0.04
0.035
0.035
0.03
0.01
-0.04
-0.04
-0.01
-0.025
-0.025
-0.025
-0.015
-0.035
-0.025
0.0
0.035
0.045
0.055
0.055
0.055
0.03
0.025
0.005
-0.03
-0.27
-0.74
-1.245
-0.56
0.91
1.22
0.725
0.33
0.07
0.01
-0.04
-0.065
-0.08
-0.115
-0.135
-0.14
-0.14
-0.135
-0.155
-0.155
-0.165
-0.18
-0.2
-0.23
-0.27
-0.31
-0.35
-0.395
-0.47
-0.5
-0.53
-0.58
-0.595
-0.59
-0.57
-0.5
-0.41
-0.32
-0.235
-0.165
-0.095
-0.065
-0.065
-0.055
-0.06
-0.06
-0.045
-0.03
-0.03
-0.035
-0.045
-0.05
-0.045
-0.04
-0.045
-0.05
-0.05
-0.03
-0.035
-0.04
-0.03
-0.03
-0.035
-0.035
-0.035
-0.025
-0.035
-0.03
-0.03
-0.03
-0.025
-0.025
-0.03
-0.02
-0.03
-0.025
-0.03
-0.03
-0.04
-0.03
-0.035
-0.02
-0.015
-0.02
-0.03
-0.03
-0.03
-0.03
-0.035
-0.02
-0.025
-0.025
-0.035
-0.08
-0.095
-0.075
-0.075
-0.07
-0.045
-0.05
-0.07
-0.07
-0.055
0.0
0.01
0.025
0.03
0.035
0.01
-0.005
-0.015
-0.025
-0.11
-0.385
-0.88
-1.275
-0.095
1.15
1.01
0.605
0.24
0.06
0.005
-0.02
-0.025
-0.03
-0.05
-0.065
-0.06
-0.075
-0.095
-0.105
-0.12
-0.115
-0.12
-0.14
-0.165
-0.19
-0.225
-0.27
-0.325
-0.35
-0.39
-0.41
-0.425
-0.43
-0.445
-0.4
-0.355
-0.275
-0.195
-0.125
-0.07
-0.02
0.01
0.035
0.05
0.04
0.045
0.045
0.06
0.085
0.08
0.065
0.045
0.035
0.03
0.035
0.05
0.05
0.045
0.055
0.065
0.06
0.055
0.065
0.08
0.075
0.08
0.095
0.055
0.05
0.065
0.075
0.08
0.095
0.085
0.055
0.055
0.08
0.1
0.095
0.09
0.09
0.055
0.08
0.1
0.115
0.1
0.08
0.1
0.095
0.075
0.07
0.04
0.025
0.04
0.07
0.035
-0.01
-0.005
0.025
0.01
0.025
0.05
0.105
0.12
0.105
0.115
0.105
0.09
0.095
0.08
0.115
0.055
-0.27
-0.86
-1.075
-0.06
0.85
0.79
0.6
0.335
0.185
0.08
0.065
0.065
0.02
0.005
-0.005
-0.015
0.015
0.03
0.035
-0.01
-0.03
-0.055
-0.075
-0.05
-0.04
-0.105
-0.14
-0.165
-0.175
-0.2
-0.19
-0.19
-0.21
-0.225
-0.215
-0.175
-0.12
-0.08
-0.055
-0.015
0.05
0.055
0.05
0.045
0.04
0.025
0.045
0.035
0.045
0.055
0.045
0.035
0.055
0.045
0.045
0.045
0.065
0.07
0.08
0.07
0.05
0.05
0.06
0.065
0.065
0.07
0.07
0.07
0.05
0.05
0.055
0.075
0.075
0.08
0.075
0.07
0.07
0.065
0.08
0.07
0.07
0.055
0.025
0.01
-0.005
0.005
-0.01
-0.045
-0.04
-0.025
-0.02
-0.015
0.05
0.08
0.08
0.07
0.07
0.07
0.045
0.035
0.025
0.01
-0.175
-0.665
-1.305
-0.835
0.485
0.925
0.725
0.45
0.145
0.035
-0.03
-0.055
-0.085
-0.105
-0.115
-0.135
-0.145
-0.15
-0.135
-0.125
-0.145
-0.17
-0.19
-0.215
-0.255
-0.28
-0.315
-0.355
-0.395
-0.435
-0.46
-0.485
-0.505
-0.505
-0.475
-0.425
-0.345
-0.28
-0.21
-0.155
-0.12
-0.095
-0.065
-0.05
-0.045
-0.045
-0.04
-0.04
-0.05
-0.055
-0.055
-0.06
-0.055
-0.06
-0.07
-0.075
-0.075
-0.09
-0.075
-0.07
-0.07
-0.065
-0.055
-0.06
-0.055
-0.055
-0.055
-0.065
-0.06
-0.06
-0.065
-0.06
-0.055
-0.045
-0.045
-0.055
-0.055
-0.065
-0.06
-0.065
-0.05
-0.05
-0.05
-0.05
-0.055
-0.04
-0.04
-0.055
-0.08
-0.115
-0.115
-0.11
-0.11
-0.11
-0.08
-0.105
-0.12
-0.115
-0.08
-0.05
-0.045
-0.04
-0.035
-0.045
-0.05
-0.06
-0.07
-0.08
-0.26
-0.655
-1.205
-1.06
0.405
1.185
0.745
0.38
0.06
-0.04
-0.095
-0.115
-0.135
-0.165
-0.17
-0.175
-0.175
-0.195
-0.19
-0.205
-0.215
-0.225
-0.25
-0.28
-0.31
-0.345
-0.38
-0.43
-0.465
-0.515
-0.555
-0.6
-0.62
-0.62
-0.59
-0.53
-0.45
-0.365
-0.28
-0.21
-0.155
-0.115
-0.095
-0.075
-0.065
-0.055
-0.055
-0.05
-0.05
-0.05
-0.05
-0.065
-0.07
-0.07
-0.06
-0.06
-0.065
-0.07
-0.085
-0.08
-0.075
-0.08
-0.055
-0.045
-0.04
-0.045
-0.05
-0.055
-0.055
-0.045
-0.04
-0.045
-0.055
-0.04
-0.035
-0.05
-0.035
-0.035
-0.03
-0.045
-0.035
-0.03
-0.02
-0.025
-0.025
-0.04
-0.035
-0.04
-0.045
-0.035
-0.04
-0.045
-0.045
-0.08
-0.095
-0.09
-0.075
-0.085
-0.08
-0.07
-0.065
-0.075
-0.07
-0.04
-0.01
-0.005
0.005
0.005
0.0
-0.01
-0.015
-0.02
-0.04
-0.175
-0.53
-1.04
-1.095
0.29
1.205
0.84
0.5
0.135
0.015
-0.05
-0.065
-0.08
-0.095
-0.11
-0.125
-0.145
-0.15
-0.155
-0.145
-0.155
-0.165
-0.185
-0.205
-0.235
-0.265
-0.29
-0.315
-0.355
-0.395
-0.435
-0.475
-0.495
-0.505
-0.485
-0.44
-0.37
-0.285
-0.215
-0.145
-0.095
-0.055
-0.035
-0.025
-0.01
-0.01
0.01
0.015
0.015
0.005
0.005
-0.005
-0.005
0.0
-0.005
0.015
0.005
0.0
-0.01
-0.015
-0.005
0.005
0.015
0.02
0.02
0.02
0.02
0.03
0.03
0.045
0.045
0.04
0.04
0.045
0.035
0.04
0.035
0.025
0.035
0.04
0.035
0.045
0.045
0.045
0.04
0.05
0.045
0.05
0.05
0.045
0.035
0.05
0.045
0.045
0.03
0.025
-0.02
-0.03
-0.03
-0.04
-0.045
-0.005
-0.01
-0.025
-0.025
-0.015
0.02
0.03
0.055
0.06
0.055
0.05
0.04
0.03
0.015
-0.065
-0.325
-0.795
-1.21
-0.11
1.095
0.98
0.65
0.305
0.105
0.03
-0.005
-0.025
-0.055
-0.065
-0.075
-0.075
-0.075
-0.08
-0.08
-0.09
-0.105
-0.105
-0.13
-0.155
-0.185
-0.205
-0.24
-0.275
-0.305
-0.345
-0.38
-0.4
-0.42
-0.425
-0.38
-0.325
-0.24
-0.17
-0.115
-0.065
-0.035
-0.01
0.01
0.02
0.04
0.045
0.05
0.035
0.02
0.015
0.03
0.03
0.04
0.04
0.035
0.035
0.025
0.025
0.025
0.03
0.035
0.05
0.05
0.04
0.045
0.055
0.055
0.055
0.06
0.07
0.065
0.065
0.055
0.065
0.07
0.08
0.07
0.075
0.08
0.075
0.065
0.065
0.08
0.08
0.065
0.07
0.07
0.07
0.075
0.085
0.08
0.085
0.09
0.065
0.055
0.05
0.02
0.02
0.02
-0.005
0.01
0.025
0.025
0.01
0.025
0.06
0.09
0.1
0.095
0.09
0.09
0.085
0.065
0.05
0.05
-0.07
-0.41
-0.885
-0.79
0.435
1.115
0.855
0.57
0.245
0.115
0.055
0.035
0.01
0.005
0.0
-0.015
-0.025
-0.03
-0.02
-0.02
-0.03
-0.04
-0.075
-0.11
-0.115
-0.125
-0.15
-0.185
-0.21
-0.235
-0.27
-0.29
-0.295
-0.31
-0.29
-0.265
-0.22
-0.165
-0.09
-0.03
0.01
0.04
0.065
0.07
0.08
0.11
0.11
0.11
0.115
0.09
0.09
0.08
0.08
0.065
0.07
0.08
0.09
0.075
0.075
0.085
0.105
0.105
0.105
0.115
0.12
0.12
0.11
0.085
0.09
0.1
0.1
0.11
0.13
0.13
0.135
0.145
0.135
0.13
0.12
0.115
0.11
0.105
0.1
0.09
0.11
0.12
0.115
0.095
0.095
0.085
0.04
0.05
0.08
0.065
0.02
0.01
0.05
0.035
0.04
0.075
0.095
0.11
0.12
0.13
0.125
0.12
0.11
0.1
0.145
0.08
-0.21
-0.775
-1.105
-0.15
0.795
0.78
0.645
0.35
0.175
0.09
0.06
0.05
0.03
0.015
0.015
0.015
0.02
0.02
0.015
-0.005
-0.03
-0.03
-0.05
-0.07
-0.055
-0.08
-0.105
-0.145
-0.185
-0.205
-0.21
-0.215
-0.225
-0.24
-0.24
-0.17
-0.125
-0.105
-0.05
0.01
0.045
0.05
0.045
0.055
0.11
0.115
0.11
0.115
0.09
0.05
0.05
0.05
0.04
0.03
0.03
0.045
0.05
0.06
0.08
0.065
0.09
0.095
0.08
0.08
0.1
0.09
0.105
0.11
0.11
0.1
0.1
0.085
0.08
0.085
0.1
0.105
0.09
0.04
0.025
0.035
0.045
0.025
-0.005
0.015
0.015
0.02
0.015
0.045
0.085
0.105
0.125
0.115
0.12
0.105
0.095
0.065
0.08
-0.095
-0.56
-1.185
-0.745
0.515
0.965
0.795
0.53
0.225
0.115
0.045
0.03
0.0
-0.015
-0.015
-0.015
-0.025
-0.03
-0.045
-0.035
-0.055
-0.07
-0.095
-0.14
-0.15
-0.17
-0.21
-0.235
-0.29
-0.34
-0.365
-0.37
-0.39
-0.39
-0.36
-0.305
-0.255
-0.175
-0.125
-0.065
-0.035
0.015
0.035
0.05
0.06
0.06
0.055
0.055
0.05
0.035
0.035
0.055
0.035
0.03
0.01
0.01
0.01
0.01
0.01
0.01
0.02
0.03
0.015
0.015
0.035
0.035
0.035
0.04
0.035
0.04
0.04
0.035
0.03
0.03
0.03
0.03
0.035
0.055
0.05
0.035
0.03
0.035
0.015
-0.01
-0.03
-0.01
-0.015
-0.025
-0.01
-0.02
-0.02
-0.03
-0.04
0.005
0.055
0.055
0.045
0.07
0.06
0.03
0.025
0.02
-0.08
-0.385
-0.91
-1.325
-0.13
1.125
0.995
0.615
0.24
0.08
0.01
-0.015
-0.065
-0.065
-0.09
-0.08
-0.095
-0.11
-0.1
-0.11
-0.115
-0.135
-0.16
-0.175
-0.22
-0.24
-0.3
-0.335
-0.39
-0.45
-0.485
-0.545
-0.575
-0.585
-0.56
-0.505
-0.435
-0.325
-0.21
-0.155
-0.095
-0.03
-0.015
-0.025
-0.01
0.025
0.03
0.045
0.06
0.05
0.04
0.025
0.005
-0.005
0.02
0.02
0.005
0.0
-0.01
-0.025
-0.035
0.0
-0.005
0.0
0.015
0.01
0.02
0.025
0.025
0.03
0.02
0.015
0.025
0.01
0.01
0.02
0.025
0.02
0.025
0.025
0.01
0.03
0.035
0.02
0.01
0.015
0.025
0.025
0.02
0.04
0.025
-0.005
-0.015
-0.03
-0.035
-0.035
-0.03
-0.005
-0.02
-0.005
-0.04
-0.03
0.04
0.055
0.05
0.055
0.055
0.06
0.03
0.04
0.01
-0.025
-0.21
-0.63
-1.125
-0.695
0.685
1.19
0.725
0.395
0.11
0.025
0.005
-0.02
-0.055
-0.07
-0.075
-0.085
-0.095
-0.09
-0.11
-0.11
-0.13
-0.135
-0.155
-0.195
-0.22
-0.255
-0.3
-0.335
-0.4
-0.43
-0.475
-0.505
-0.52
-0.53
-0.52
-0.45
-0.375
-0.285
-0.2
-0.135
-0.09
-0.045
-0.025
0.0
0.015
0.025
0.025
0.03
0.015
0.03
0.025
0.015
0.015
0.015
0.02
0.04
0.02
0.005
0.005
0.015
0.005
-0.005
0.015
0.03
0.03
0.045
0.03
0.05
0.055
0.05
0.04
0.045
0.04
0.035
0.04
0.05
0.045
0.045
0.06
0.06
0.05
0.055
0.05
0.05
0.05
0.05
0.025
0.04
0.045
0.05
0.05
0.05
0.05
0.055
0.05
0.03
0.06
0.06
0.035
0.035
0.005
-0.01
0.01
-0.005
-0.005
0.015
0.015
0.0
-0.005
0.02
0.05
0.075
0.08
0.08
0.065
0.065
0.065
0.04
-0.005
-0.025
-0.225
-0.645
-1.13
-0.44
0.89
1.12
0.725
0.395
0.135
0.065
0.02
-0.01
-0.02
-0.045
-0.06
-0.05
-0.065
-0.065
-0.065
-0.09
-0.08
-0.09
-0.115
-0.145
-0.165
-0.19
-0.225
-0.285
-0.33
-0.365
-0.425
-0.425
-0.435
-0.44
-0.455
-0.385
-0.315
-0.24
-0.16
-0.095
-0.04
0.0
0.015
0.03
0.035
0.055
0.055
0.05
0.045
0.04
0.025
0.015
0.03
0.035
0.025
0.03
0.015
-0.01
-0.01
0.005
0.005
0.01
0.025
0.055
0.035
0.035
0.04
0.035
0.04
0.04
0.045
0.045
0.04
0.05
0.055
0.055
0.025
0.045
0.06
0.035
0.03
0.045
0.03
0.045
0.055
0.055
0.04
0.04
0.035
0.055
0.05
0.05
0.055
0.055
0.055
0.05
0.045
0.045
0.025
0.025
0.01
0.025
0.06
0.05
0.03
0.05
0.04
0.03
0.035
0.06
0.07
0.07
0.065
0.07
0.05
0.035
0.045
0.055
0.005
-0.175
-0.56
-1.145
-0.56
0.61
0.845
0.71
0.435
0.175
0.045
0.01
-0.005
-0.045
-0.045
-0.04
-0.05
-0.045
-0.05
-0.035
-0.05
-0.07
-0.07
-0.07
-0.075
-0.12
-0.15
-0.195
-0.24
-0.24
-0.29
-0.33
-0.37
-0.39
-0.375
-0.37
-0.33
-0.265
-0.195
-0.125
-0.095
-0.03
0.015
0.045
0.06
0.08
0.065
0.08
0.055
0.05
0.055
0.05
0.055
0.055
0.045
0.035
0.035
0.04
0.04
0.045
0.06
0.075
0.08
0.065
0.065
0.065
0.08
0.09
0.07
0.08
0.095
0.08
0.08
0.095
0.07
0.08
0.085
0.08
0.09
0.095
0.055
0.06
0.07
0.085
0.06
0.055
0.055
0.07
0.075
0.055
0.035
0.055
0.06
0.025
0.055
0.115
0.1
0.115
0.095
0.08
0.08
0.07
0.08
0.125
0.045
-0.255
-0.79
-1.37
-0.455
0.785
0.865
0.695
0.405
0.205
0.125
0.035
0.0
0.01
0.015
0.01
0.03
0.015
-0.025
-0.025
-0.025
-0.035
-0.045
-0.07
-0.075
-0.07
-0.125
-0.175
-0.21
-0.255
-0.295
-0.33
-0.37
-0.365
-0.375
-0.35
-0.275
-0.225
-0.135
-0.07
-0.01
0.05
0.055
0.055
0.08
0.06
0.06
0.07
0.07
0.08
0.065
0.07
0.08
0.075
0.07
0.065
0.06
0.055
0.035
0.08
0.065
0.045
0.065
0.045
0.06
0.08
0.065
0.075
0.08
0.08
0.085
0.075
0.08
0.075
0.08
0.08
0.065
0.08
0.055
0.055
0.055
0.045
0.065
0.045
0.03
0.025
0.025
0.02
0.025
0.08
0.1
0.1
0.06
0.05
0.05
0.05
0.035
0.04
-0.04
-0.315
-0.885
-1.485
-0.525
0.845
0.945
0.7
0.35
0.1
0.015
-0.045
-0.07
-0.08
-0.105
-0.115
-0.115
-0.115
-0.13
-0.14
-0.145
-0.155
-0.175
-0.2
-0.235
-0.25
-0.295
-0.345
-0.395
-0.445
-0.505
-0.545
-0.575
-0.59
-0.585
-0.535
-0.46
-0.365
-0.265
-0.195
-0.135
-0.095
-0.075
-0.045
-0.015
-0.01
-0.01
-0.01
-0.005
0.005
-0.005
-0.02
-0.02
-0.02
-0.025
-0.03
-0.035
-0.055
-0.055
-0.05
-0.055
-0.05
-0.045
-0.035
-0.045
-0.05
-0.025
-0.025
-0.025
-0.025
-0.025
-0.025
-0.015
-0.015
-0.025
-0.025
-0.03
-0.035
-0.035
-0.035
-0.025
-0.015
-0.01
-0.02
-0.035
-0.05
-0.07
-0.065
-0.08
-0.08
-0.06
-0.045
-0.07
-0.08
-0.05
-0.09
-0.08
-0.035
-0.01
0.005
-0.02
-0.015
-0.02
-0.025
-0.055
-0.065
-0.15
-0.47
-1.075
-1.52
-0.285
1.11
0.99
0.525
0.145
-0.01
-0.075
-0.095
-0.12
-0.145
-0.15
-0.17
-0.18
-0.17
-0.165
-0.17
-0.2
-0.205
-0.21
-0.235
-0.27
-0.31
-0.35
-0.4
-0.46
-0.515
-0.585
-0.625
-0.675
-0.71
-0.705
-0.645
-0.535
-0.425
-0.315
-0.215
-0.145
-0.08
-0.075
-0.055
-0.055
-0.045
-0.025
-0.015
-0.01
0.01
0.005
0.005
-0.005
-0.02
-0.015
0.005
0.01
0.005
-0.005
-0.02
-0.015
0.005
-0.01
0.0
-0.005
0.005
0.005
0.005
-0.005
-0.005
0.005
0.015
0.015
0.015
0.005
0.01
0.01
0.005
-0.01
-0.005
-0.005
-0.01
-0.01
-0.005
0.005
-0.005
-0.015
-0.005
0.015
0.01
-0.01
-0.025
-0.05
-0.035
-0.045
-0.045
-0.01
-0.02
-0.025
-0.01
-0.055
-0.065
-0.025
0.01
0.015
0.035
0.01
-0.01
-0.02
-0.02
-0.03
-0.04
-0.19
-0.59
-1.165
-1.145
0.4
1.34
0.855
0.445
0.105
0.015
-0.04
-0.09
-0.11
-0.11
-0.13
-0.105
-0.115
-0.15
-0.145
-0.15
-0.155
-0.155
-0.17
-0.195
-0.235
-0.265
-0.3
-0.36
-0.42
-0.47
-0.525
-0.57
-0.6
-0.605
-0.585
-0.52
-0.455
-0.36
-0.24
-0.155
-0.11
-0.05
-0.02
-0.005
0.0
0.01
0.025
0.025
0.03
0.035
0.025
0.045
0.08
0.035
0.025
0.045
0.05
0.055
0.045
0.03
0.025
0.02
0.03
0.04
0.04
0.05
0.06
0.045
0.025
0.05
0.055
0.05
0.08
0.06
0.065
0.08
0.07
0.05
0.05
0.055
0.035
0.045
0.08
0.055
0.03
0.04
0.035
0.045
-0.005
0.015
0.055
0.015
-0.035
0.01
0.015
0.015
0.035
0.045
0.045
0.07
0.085
0.07
0.055
0.055
0.05
0.055
0.055
-0.135
-0.65
-1.355
-0.72
