signal
0.08
0.095
0.095
0.12
0.13
0.145
0.185
0.2
0.225
0.29
0.31
0.36
0.39
0.385
0.38
0.31
0.235
0.145
0.07
0.03
0.005
-0.005
-0.01
-0.025
-0.02
-0.03
-0.005
-0.025
-0.035
-0.03
-0.025
-0.005
-0.01
-0.025
-0.015
-0.015
-0.02
-0.005
-0.01
0.0
0.0
-0.02
-0.005
0.0
0.0
0.0
0.02
0.025
0.025
0.025
0.01
0.005
0.015
0.01
0.005
0.005
0.01
0.025
-0.01
0.005
-0.015
0.015
-0.035
-0.025
-0.015
-0.01
0.02
0.04
0.02
-0.015
0.0
0.0
0.01
-0.01
-0.02
-0.025
-0.01
-0.02
-0.015
0.0
0.255
0.505
-0.21
-1.85
-1.74
-0.94
-0.44
0.075
0.015
0.025
0.05
0.07
0.085
0.075
0.085
0.105
0.105
0.12
0.12
0.13
0.145
0.16
0.185
0.215
0.255
0.275
0.33
0.365
0.39
0.385
0.34
0.275
0.185
0.1
0.035
0.0
-0.005
-0.02
-0.035
-0.04
-0.04
-0.03
-0.03
-0.035
-0.03
-0.02
-0.01
-0.02
-0.015
-0.015
0.0
0.0
0.01
-0.01
-0.015
-0.01
-0.015
-0.015
0.0
0.0
-0.03
-0.005
0.0
0.0
0.005
-0.015
0.01
0.005
0.0
0.01
0.01
0.005
0.0
-0.025
0.0
-0.01
0.0
-0.04
-0.025
-0.035
-0.005
0.0
0.015
0.025
0.0
0.0
0.0
-0.015
-0.015
-0.005
-0.01
-0.04
-0.01
-0.025
-0.005
0.19
0.505
0.065
-1.635
-1.795
-1.115
-0.575
0.03
0.01
0.0
0.04
0.05
0.06
0.085
0.06
0.1
0.08
0.11
0.12
0.13
0.14
0.175
0.18
0.21
0.265
0.315
0.335
0.38
0.39
0.42
0.395
0.32
0.22
0.135
0.07
0.01
-0.01
-0.02
-0.025
-0.02
-0.02
-0.015
-0.03
-0.015
-0.005
-0.015
-0.015
0.0
0.005
0.01
0.0
0.02
0.015
0.015
0.015
0.02
0.02
0.015
0.02
0.005
0.015
0.01
0.03
0.02
0.015
0.015
0.025
0.025
0.03
0.03
0.015
0.035
0.03
0.005
0.02
0.015
0.01
-0.005
0.0
0.0
0.01
0.02
0.045
0.05
-0.005
0.015
-0.015
-0.005
0.0
-0.01
0.0
-0.01
-0.015
-0.02
-0.035
0.09
0.39
0.295
-1.135
-1.775
-1.34
-0.735
-0.115
0.005
-0.005
0.025
0.035
0.05
0.06
0.06
0.075
0.075
0.085
0.085
0.1
0.14
0.165
0.17
0.18
0.24
0.29
0.33
0.37
0.405
0.4
0.39
0.335
0.26
0.155
0.08
0.03
0.0
-0.015
-0.01
-0.01
-0.01
-0.02
-0.01
-0.03
-0.04
-0.01
-0.01
-0.01
-0.01
-0.015
0.005
0.0
0.005
0.005
-0.005
0.0
0.005
-0.01
0.01
0.005
0.015
-0.01
0.01
0.0
0.005
0.0
0.0
0.0
0.01
0.01
0.0
-0.005
0.0
0.015
-0.01
-0.025
-0.015
-0.03
-0.035
-0.035
0.005
0.01
0.03
0.01
0.0
-0.03
-0.03
0.0
-0.02
-0.03
-0.025
-0.035
-0.015
-0.04
-0.02
0.025
0.305
0.435
-0.61
-1.81
-1.545
-0.845
-0.31
0.05
-0.005
-0.005
0.025
0.03
0.065
0.05
0.065
0.07
0.095
0.1
0.09
0.12
0.15
0.165
0.2
0.235
0.285
0.31
0.35
0.39
0.41
0.41
0.36
0.28
0.185
0.085
0.035
-0.005
0.005
-0.025
-0.035
-0.025
-0.005
-0.04
-0.055
-0.035
-0.035
-0.03
-0.035
-0.03
-0.015
-0.035
-0.01
-0.01
-0.005
-0.025
-0.005
-0.02
-0.01
-0.02
-0.015
-0.015
-0.01
0.0
0.0
-0.01
0.0
-0.005
0.0
0.0
-0.01
0.0
-0.005
-0.015
-0.005
-0.015
-0.01
0.005
-0.02
-0.02
-0.005
0.0
0.035
0.035
0.015
-0.02
-0.015
-0.01
-0.005
-0.025
-0.025
-0.005
-0.02
-0.03
-0.025
-0.03
0.205
0.53
-0.055
-1.74
-1.76
-1.015
-0.505
0.045
0.01
0.0
0.03
0.035
0.05
0.075
0.08
0.075
0.09
0.1
0.13
0.125
0.14
0.165
0.195
0.22
0.265
0.295
0.33
0.375
0.405
0.4
0.37
0.295
0.21
0.125
0.06
0.005
-0.005
-0.02
-0.015
-0.02
-0.015
-0.015
-0.005
-0.025
-0.005
-0.03
0.005
0.0
-0.005
0.0
0.0
-0.005
0.0
0.0
0.015
0.0
0.01
0.01
0.005
0.005
0.015
-0.01
0.015
0.015
0.025
0.015
0.02
0.02
0.02
0.025
0.01
0.01
0.015
0.01
0.025
0.005
0.01
0.015
0.04
0.015
0.07
0.05
0.025
0.0
0.01
0.0
0.0
0.01
0.005
-0.01
0.0
0.0
0.005
0.055
0.36
0.415
-0.815
-1.8
-1.425
-0.77
-0.185
0.06
0.02
0.04
0.06
0.075
0.11
0.08
0.105
0.1
0.125
0.14
0.145
0.165
0.185
0.21
0.22
0.24
0.295
0.34
0.365
0.4
0.42
0.395
0.36
0.27
0.195
0.095
0.05
0.005
0.01
0.0
-0.015
-0.015
-0.005
-0.005
-0.005
-0.02
0.005
-0.005
0.0
0.0
0.0
-0.01
0.015
0.005
0.0
0.0
0.01
0.005
0.0
0.015
0.015
0.01
0.025
0.02
0.005
0.01
0.025
0.0
0.015
0.0
0.01
0.005
0.0
-0.015
0.0
-0.01
0.005
-0.025
-0.015
0.0
0.005
0.025
0.045
0.005
0.0
-0.01
0.015
-0.01
-0.015
-0.005
0.0
-0.015
-0.015
-0.02
0.0
0.25
0.515
-0.265
-1.81
-1.67
-0.915
-0.395
0.085
0.0
0.035
0.045
0.085
0.075
0.085
0.085
0.1
0.11
0.12
0.125
0.135
0.155
0.19
0.185
0.24
0.285
0.315
0.355
0.4
0.425
0.42
0.35
0.31
0.22
0.135
0.06
0.03
0.0
-0.01
-0.005
-0.005
-0.005
-0.005
-0.02
0.0
-0.005
-0.005
0.0
-0.005
-0.015
0.0
-0.005
0.0
0.0
0.015
0.01
0.015
0.0
0.01
0.005
0.01
0.005
0.025
0.0
0.015
0.0
0.015
0.015
0.015
0.005
0.02
0.015
0.005
0.015
0.005
0.0
0.0
0.0
-0.01
-0.005
0.015
0.015
0.04
0.035
0.025
-0.015
-0.01
-0.005
0.0
-0.025
-0.015
-0.02
-0.03
-0.005
-0.01
0.015
0.3
0.45
-0.595
-1.87
-1.545
-0.85
-0.27
0.06
0.02
0.025
0.055
0.065
0.055
0.065
0.085
0.085
0.095
0.11
0.125
0.12
0.165
0.18
0.195
0.235
0.29
0.315
0.35
0.39
0.39
0.38
0.33
0.265
0.2
0.075
0.045
-0.005
-0.02
-0.035
-0.01
-0.025
-0.015
-0.02
-0.03
0.0
-0.01
-0.02
-0.03
-0.015
0.0
-0.025
0.005
-0.01
0.0
-0.01
0.0
0.0
0.02
0.015
0.015
0.005
0.025
0.01
0.015
0.005
0.025
0.0
0.01
0.01
0.025
0.0
0.005
0.0
0.015
-0.01
0.01
-0.015
-0.01
-0.015
-0.01
0.03
0.035
0.02
0.0
-0.01
-0.005
-0.015
-0.005
-0.025
-0.01
-0.02
-0.025
-0.03
-0.025
0.115
0.43
0.11
-1.45
-1.81
-1.165
-0.635
-0.005
0.0
0.005
0.015
0.045
0.055
0.08
0.075
0.085
0.09
0.1
0.115
0.12
0.13
0.16
0.18
0.225
0.25
0.3
0.345
0.365
0.385
0.395
0.375
0.335
0.225
0.145
0.055
0.02
-0.015
-0.015
-0.025
-0.02
-0.045
-0.03
-0.045
-0.035
-0.035
-0.03
-0.035
-0.025
-0.02
-0.015
-0.015
-0.025
-0.01
0.0
-0.01
0.0
-0.01
0.0
0.0
-0.01
-0.015
0.005
-0.005
-0.005
-0.02
0.0
0.0
0.01
-0.01
0.0
-0.01
0.01
-0.01
0.0
-0.02
-0.005
-0.015
-0.01
0.0
0.005
0.04
0.05
0.01
0.005
0.0
0.02
-0.01
0.0
-0.005
-0.005
-0.02
-0.02
-0.02
-0.015
0.23
0.515
-0.13
-1.78
-1.75
-1.0
-0.5
0.075
0.02
0.02
0.035
0.06
0.07
0.085
0.085
0.09
0.09
0.1
0.11
0.125
0.145
0.205
0.18
0.24
0.265
0.315
0.34
0.39
0.395
0.4
0.36
0.305
0.2
0.125
0.055
0.025
-0.03
-0.01
-0.005
-0.02
-0.025
-0.01
-0.03
-0.015
-0.02
-0.025
-0.01
-0.01
-0.015
-0.015
-0.02
-0.005
0.0
0.0
-0.01
-0.005
-0.005
0.0
-0.015
-0.005
-0.015
-0.005
-0.015
0.005
-0.005
0.01
0.0
0.0
-0.005
0.0
-0.02
0.0
-0.01
-0.01
-0.015
-0.015
-0.025
-0.025
-0.01
0.005
0.02
0.035
-0.025
0.0
-0.015
-0.005
-0.01
0.0
-0.01
0.0
-0.015
-0.015
-0.02
0.01
0.29
0.48
-0.46
-1.855
-1.63
-0.87
-0.33
0.07
0.02
0.02
0.05
0.07
0.075
0.075
0.075
0.12
0.105
0.13
0.125
0.15
0.165
0.19
0.21
0.24
0.265
0.315
0.355
0.4
0.4
0.405
0.345
0.305
0.175
0.1
0.05
0.015
-0.005
-0.01
-0.015
-0.005
0.0
0.015
-0.015
0.0
-0.005
0.0
-0.01
0.01
-0.01
-0.005
-0.01
0.01
0.015
0.01
0.005
0.015
0.005
0.02
0.01
0.015
0.01
0.005
0.015
0.03
0.04
0.015
0.015
0.04
0.04
0.05
0.025
0.015
0.015
0.005
-0.015
-0.01
-0.01
0.02
0.055
0.06
0.025
0.015
0.0
0.025
0.015
0.015
-0.005
0.015
0.0
0.0
0.0
0.035
0.305
0.445
-0.67
-1.865
-1.555
-0.825
-0.26
0.05
0.015
0.04
0.035
0.065
0.075
0.09
0.085
0.095
0.11
0.125
0.11
0.145
0.16
0.19
0.21
0.255
0.275
0.325
0.355
0.4
0.415
0.405
0.35
0.285
0.17
0.1
0.035
0.005
-0.015
-0.02
-0.03
-0.015
-0.025
-0.03
-0.02
-0.005
-0.035
-0.025
-0.01
-0.025
-0.01
0.01
-0.01
-0.005
-0.01
0.01
0.0
-0.005
0.0
-0.01
0.005
0.005
0.01
0.025
0.005
0.005
0.01
0.005
0.005
0.02
0.005
0.01
0.01
0.02
0.01
0.01
0.02
0.01
0.0
0.02
0.01
0.055
0.04
0.055
0.0
0.005
0.01
0.01
0.0
-0.005
-0.005
-0.005
-0.03
-0.01
-0.02
0.065
0.36
0.3
-1.03
-1.83
-1.385
-0.74
-0.14
0.02
0.0
0.04
0.05
0.06
0.06
0.08
0.09
0.095
0.095
0.12
0.11
0.135
0.15
0.17
0.195
0.24
0.25
0.295
0.345
0.365
0.39
0.365
0.315
0.25
0.13
0.08
0.015
-0.015
-0.04
-0.03
-0.05
-0.03
-0.035
-0.03
-0.035
-0.02
-0.03
-0.015
-0.03
-0.025
-0.015
-0.01
-0.01
-0.01
-0.01
-0.005
-0.02
-0.005
-0.02
0.0
-0.01
0.0
-0.015
-0.005
0.0
-0.015
-0.015
0.0
-0.015
0.0
0.0
0.0
-0.015
-0.015
-0.015
-0.01
0.0
-0.025
-0.01
-0.005
-0.005
0.04
0.035
0.0
-0.025
-0.01
-0.01
-0.02
-0.015
-0.02
-0.025
-0.02
-0.035
-0.02
-0.035
0.08
0.375
0.255
-1.155
-1.83
-1.34
-0.725
-0.115
0.025
0.0
0.02
0.045
0.05
0.06
0.07
0.065
0.075
0.08
0.095
0.095
0.125
0.135
0.18
0.195
0.235
0.27
0.31
0.335
0.38
0.385
0.375
0.315
0.235
0.14
0.06
0.0
0.0
-0.025
-0.03
-0.03
-0.025
-0.04
-0.035
-0.045
-0.03
-0.035
-0.015
-0.035
-0.035
-0.015
-0.005
-0.015
0.0
0.005
0.005
-0.005
0.0
-0.015
-0.015
-0.005
0.0
-0.01
0.0
-0.005
0.01
0.0
0.0
0.0
0.005
0.0
0.0
-0.03
0.0
-0.03
-0.02
-0.02
-0.03
-0.045
-0.035
-0.015
0.03
0.005
0.015
-0.035
-0.03
-0.02
-0.025
-0.025
-0.015
-0.015
-0.02
-0.02
-0.025
-0.04
-0.03
0.115
0.425
0.09
-1.505
-1.84
-1.2
-0.665
-0.035
-0.01
-0.01
0.0
0.03
0.035
0.04
0.05
0.065
0.065
0.085
0.09
0.115
0.125
0.15
0.165
0.2
0.215
0.27
0.305
0.35
0.385
0.385
0.36
0.305
0.21
0.135
0.065
0.025
-0.02
-0.02
-0.025
-0.01
-0.025
-0.03
-0.015
-0.005
-0.025
-0.025
-0.01
-0.015
-0.005
-0.005
-0.01
0.0
-0.01
-0.005
0.0
0.015
-0.015
-0.005
0.0
0.01
-0.015
0.0
-0.01
-0.01
0.01
0.0
0.0
0.005
0.005
0.015
0.0
0.005
0.0
-0.005
-0.015
-0.03
-0.035
-0.06
-0.1
0.0
0.025
0.03
-0.025
-0.01
-0.025
0.0
-0.015
0.0
-0.01
0.0
-0.01
-0.005
-0.005
0.03
0.28
0.515
-0.325
-1.89
-1.67
-0.93
-0.39
0.075
0.0
0.025
0.045
0.07
0.07
0.075
0.085
0.09
0.1
0.11
0.125
0.13
0.15
0.19
0.185
0.235
0.26
0.305
0.345
0.38
0.38
0.405
0.345
0.28
0.185
0.115
0.06
0.025
0.0
0.0
-0.015
-0.005
-0.005
-0.01
0.0
0.0
0.0
0.015
0.0
-0.005
0.0
0.0
0.01
0.005
0.015
0.03
0.01
0.02
0.01
0.015
0.015
0.0
0.0
0.0
-0.005
0.005
0.0
0.0
-0.005
0.0
0.02
0.01
0.0
0.01
-0.005
0.01
-0.01
-0.025
-0.03
-0.01
-0.07
-0.025
0.01
0.02
0.0
-0.01
-0.015
-0.005
-0.01
-0.005
-0.015
-0.005
-0.02
-0.02
-0.01
-0.01
0.16
0.455
0.115
-1.525
-1.795
-1.135
-0.605
0.015
0.02
0.01
0.04
0.065
0.07
0.07
0.08
0.085
0.095
0.11
0.11
0.145
0.15
0.185
0.195
0.23
0.255
0.295
0.34
0.385
0.405
0.41
0.375
0.33
0.22
0.145
0.065
0.03
0.005
-0.01
-0.01
0.0
0.0
0.0
-0.015
-0.03
-0.01
-0.005
-0.025
-0.02
-0.02
-0.02
0.0
-0.02
-0.01
-0.005
-0.01
-0.005
-0.01
-0.025
-0.01
-0.015
-0.015
-0.005
-0.015
-0.03
-0.015
-0.02
0.0
0.015
0.0
0.0
0.0
0.0
0.0
0.0
-0.01
0.0
-0.025
-0.02
-0.03
-0.05
-0.02
0.01
0.045
-0.005
-0.01
0.0
0.0
0.0
0.0
-0.005
-0.005
-0.005
-0.02
0.0
0.005
0.275
0.515
-0.255
-1.835
-1.705
-0.93
-0.425
0.07
0.02
0.01
0.06
0.055
0.065
0.07
0.09
0.09
0.08
0.11
0.125
0.12
0.145
0.18
0.185
0.235
0.26
0.295
0.335
0.365
0.4
0.39
0.365
0.29
0.195
0.11
0.045
0.005
-0.005
-0.02
-0.035
-0.025
-0.035
-0.03
-0.025
-0.025
-0.025
-0.04
-0.02
-0.015
0.0
0.0
0.005
0.005
0.02
0.0
0.015
0.005
0.0
0.0
0.0
0.015
0.0
0.01
0.02
0.02
0.01
0.0
0.02
0.015
0.025
0.015
0.01
0.015
0.025
0.025
0.0
0.005
-0.01
0.005
-0.03
-0.01
0.035
0.045
0.03
0.0
0.01
0.01
0.02
0.0
-0.01
0.0
-0.01
0.0
-0.025
-0.005
0.225
0.51
-0.085
-1.77
-1.75
-1.0
-0.5
0.06
0.01
0.03
0.03
0.05
0.085
0.075
0.075
0.095
0.095
0.105
0.12
0.13
0.14
0.16
0.195
0.215
0.245
0.29
0.33
0.365
0.395
0.395
0.37
0.305
0.2
0.115
0.06
0.015
-0.01
-0.01
-0.025
-0.025
-0.02
-0.025
-0.015
-0.025
-0.02
-0.02
-0.015
-0.015
0.0
-0.015
-0.015
-0.005
0.0
0.005
0.0
0.0
0.0
0.0
-0.01
0.0
-0.01
0.0
-0.01
0.0
0.005
0.01
0.025
0.015
0.005
0.01
0.0
0.005
-0.005
0.0
-0.005
-0.005
-0.025
-0.03
-0.03
-0.015
-0.005
0.03
0.025
0.0
-0.015
-0.015
-0.005
-0.025
-0.03
-0.01
-0.025
-0.015
-0.025
-0.03
0.165
0.48
0.035
-1.665
-1.81
-1.1
-0.59
0.015
-0.005
0.0
0.035
0.045
0.045
0.07
0.06
0.08
0.085
0.09
0.095
0.115
0.135
0.165
0.18
0.22
0.24
0.275
0.325
0.34
0.375
0.38
0.37
0.3
0.215
0.14
0.07
0.025
0.0
-0.01
-0.02
-0.02
-0.02
-0.015
-0.02
-0.02
-0.02
-0.01
-0.005
-0.015
-0.015
0.0
-0.01
-0.01
0.0
0.0
0.0
0.0
0.01
0.0
-0.01
-0.005
0.005
0.0
0.005
0.01
-0.005
-0.005
0.0
0.005
0.0
0.005
-0.01
0.0
0.0
-0.005
0.0
0.005
-0.03
-0.015
-0.015
0.0
0.025
0.045
0.045
0.0
0.0
0.015
0.0
0.0
-0.01
-0.01
-0.015
-0.035
-0.03
-0.015
0.115
0.42
0.2
-1.36
-1.82
-1.23
-0.655
-0.05
0.01
0.015
0.035
0.06
0.06
0.07
0.075
0.09
0.09
0.115
0.11
0.12
0.13
0.17
0.185
0.235
0.245
0.285
0.315
0.38
0.395
0.4
0.38
0.325
0.245
0.145
0.075
0.04
0.0
-0.015
-0.01
-0.02
-0.02
-0.02
-0.025
-0.04
-0.025
-0.02
-0.02
-0.015
-0.02
-0.015
-0.015
-0.005
0.0
0.005
0.005
0.0
-0.005
0.01
-0.005
0.015
0.0
0.005
0.005
0.005
0.0
0.0
0.01
0.015
0.005
0.005
0.005
0.01
0.0
0.0
-0.02
-0.025
-0.01
-0.065
-0.05
0.0
0.035
0.015
-0.025
0.005
-0.025
-0.005
0.0
-0.005
-0.035
-0.005
-0.02
-0.01
0.075
0.355
0.355
-0.97
-1.84
-1.425
-0.765
-0.165
0.03
0.01
0.045
0.05
0.07
0.095
0.075
0.09
0.095
0.105
0.115
0.135
0.14
0.15
0.165
0.205
0.22
0.295
0.325
0.355
0.39
0.405
0.4
0.345
0.255
0.16
0.075
0.03
0.005
-0.005
-0.02
-0.01
-0.02
-0.025
-0.03
-0.015
-0.02
-0.02
-0.02
-0.005
-0.015
0.0
-0.01
0.0
0.0
-0.01
0.005
0.005
0.0
0.015
0.01
-0.005
0.0
0.025
0.0
0.005
0.02
0.01
0.0
0.0
0.005
0.01
0.0
0.015
-0.005
0.0
-0.005
0.005
-0.04
-0.02
-0.05
-0.03
0.0
0.03
0.025
-0.015
0.0
0.015
-0.005
0.0
-0.01
-0.005
-0.01
-0.01
-0.03
0.01
0.31
0.46
-0.595
-1.89
-1.585
-0.835
-0.29
0.045
0.015
0.02
0.04
0.055
0.08
0.1
0.07
0.1
0.11
0.115
0.12
0.14
0.13
0.17
0.19
0.215
0.27
0.315
0.335
0.37
0.395
0.41
0.355
0.275
0.19
0.105
0.05
0.02
0.0
-0.015
-0.01
-0.01
-0.01
-0.015
-0.02
-0.005
-0.02
-0.01
-0.01
0.0
-0.015
0.0
-0.005
0.0
-0.015
0.0
-0.01
0.0
-0.005
-0.01
-0.02
-0.005
-0.015
-0.01
-0.01
0.005
-0.005
0.005
0.005
0.005
0.0
0.015
0.005
0.01
0.0
0.0
-0.02
-0.02
-0.005
-0.07
-0.04
0.01
0.04
0.025
-0.005
0.0
0.005
-0.005
-0.015
0.005
-0.015
-0.005
-0.005
-0.005
0.025
0.345
0.46
-0.655
-1.865
-1.56
-0.85
-0.265
0.045
0.01
0.025
0.05
0.07
0.08
0.075
0.09
0.085
0.12
0.11
0.145
0.125
0.165
0.185
0.205
0.235
0.29
0.32
0.355
0.385
0.415
0.395
0.35
0.28
0.185
0.095
0.04
0.0
0.005
-0.015
-0.01
0.0
0.0
-0.005
-0.015
-0.03
0.0
-0.015
-0.005
-0.025
0.0
-0.01
-0.02
0.0
-0.01
-0.03
-0.01
-0.03
-0.015
-0.035
-0.015
-0.02
-0.015
-0.025
-0.01
-0.025
-0.015
-0.01
0.0
-0.015
-0.01
-0.01
-0.005
-0.02
-0.01
-0.045
-0.035
-0.035
-0.07
-0.025
0.01
0.01
-0.015
-0.025
-0.005
-0.01
0.0
-0.04
-0.025
-0.035
-0.02
-0.035
-0.015
0.185
0.49
-0.085
-1.79
-1.8
-1.045
-0.535
0.045
-0.015
0.01
0.015
0.05
0.06
0.075
0.08
0.095
0.095
0.11
0.115
0.145
0.155
0.175
0.2
0.23
0.245
0.315
0.33
0.375
0.385
0.395
0.385
0.305
0.2
0.125
0.035
0.02
-0.005
-0.005
-0.035
-0.015
-0.025
-0.005
-0.02
-0.03
-0.035
-0.015
-0.025
-0.01
0.0
-0.01
0.0
0.0
-0.005
0.0
0.0
0.0
-0.005
0.01
0.01
0.0
0.005
0.0
0.0
0.005
0.0
0.0
0.015
0.005
-0.005
0.0
0.01
-0.01
-0.01
-0.015
-0.02
-0.035
-0.06
-0.01
0.035
0.035
-0.015
-0.005
0.0
0.005
0.0
-0.01
-0.02
-0.01
-0.005
-0.005
-0.005
0.235
0.525
-0.075
-1.78
-1.765
-1.035
-0.51
0.055
0.015
0.015
0.045
0.065
0.065
0.075
0.09
0.09
0.11
0.1
0.12
0.14
0.165
0.17
0.21
0.235
0.275
0.305
0.355
0.38
0.405
0.41
0.375
0.305
0.215
0.115
0.06
0.015
0.01
-0.02
-0.025
-0.02
-0.02
-0.025
-0.015
-0.02
-0.02
-0.025
-0.025
-0.02
-0.025
-0.03
-0.015
-0.015
-0.01
-0.035
-0.015
-0.015
-0.005
-0.02
-0.005
-0.015
-0.005
-0.035
0.0
-0.025
-0.015
-0.02
-0.005
-0.015
0.005
-0.025
0.0
-0.015
-0.02
-0.035
-0.045
-0.045
-0.015
-0.01
0.045
0.02
0.0
-0.015
-0.005
-0.015
-0.005
-0.015
0.005
-0.015
-0.01
-0.01
-0.01
0.125
0.445
0.185
-1.38
-1.825
-1.225
-0.665
-0.025
0.015
0.015
0.03
0.065
0.07
0.08
0.085
0.095
0.095
0.115
0.105
0.135
0.135
0.165
0.185
0.225
0.235
0.305
0.325
0.365
0.38
0.4
0.365
0.325
0.225
0.14
0.055
0.015
-0.005
0.0
-0.015
-0.005
-0.015
0.005
0.0
-0.01
-0.005
-0.015
-0.01
-0.015
-0.01
-0.005
-0.025
0.0
-0.015
-0.005
-0.02
-0.01
0.0
-0.015
-0.01
0.005
-0.015
0.0
-0.015
0.0
-0.02
-0.01
-0.01
0.015
0.0
0.0
-0.01
0.0
0.0
0.0
0.0
0.02
-0.015
0.0
0.01
0.03
0.025
0.04
0.005
-0.005
-0.02
-0.005
-0.01
-0.015
-0.015
-0.005
-0.015
-0.015
-0.02
-0.02
0.125
0.445
0.16
-1.43
-1.815
-1.19
-0.655
-0.01
0.0
0.005
0.02
0.035
0.035
0.06
0.045
0.085
0.065
0.09
0.085
0.125
0.125
0.145
0.165
0.19
0.22
0.265
0.305
0.345
0.365
0.39
0.37
0.305
0.21
0.12
0.055
0.015
-0.02
-0.02
-0.05
-0.04
-0.03
-0.025
-0.04
-0.03
-0.025
-0.015
-0.015
-0.01
0.0
-0.015
-0.01
-0.005
-0.015
0.0
0.0
0.01
0.0
0.005
0.0
0.03
0.015
0.0
0.0
0.005
-0.015
0.005
0.0
0.01
-0.005
-0.005
0.0
0.0
0.0
0.0
-0.01
0.0
-0.02
-0.045
-0.005
0.015
0.03
0.035
0.04
-0.005
-0.01
-0.01
-0.02
-0.005
-0.04
-0.005
-0.025
-0.015
-0.035
-0.015
-0.02
0.085
0.375
0.28
-1.175
-1.84
-1.335
-0.72
-0.105
0.025
0.015
0.04
0.06
0.08
0.075
0.09
0.095
0.11
0.095
0.105
0.12
0.135
0.145
0.175
0.19
0.23
0.27
0.33
0.345
0.37
0.395
0.385
0.33
0.26
0.155
0.085
0.04
0.01
-0.01
-0.005
-0.025
-0.005
-0.015
-0.01
-0.03
-0.015
-0.015
-0.01
-0.01
0.0
-0.02
0.005
-0.005
0.0
0.005
0.0
-0.005
0.005
0.0
-0.005
0.005
0.0
-0.005
0.0
0.005
0.015
0.005
0.005
0.0
0.025
0.01
0.02
0.03
0.03
0.015
0.005
0.005
0.055
0.0
0.0
0.035
0.035
0.055
0.05
0.03
0.01
-0.005
0.01
-0.005
-0.005
-0.005
-0.005
-0.025
-0.02
-0.01
-0.01
-0.035
0.09
0.385
0.24
-1.265
-1.83
-1.285
-0.685
-0.06
0.01
0.0
0.045
0.055
0.07
0.055
0.08
0.08
0.105
0.1
0.115
0.145
0.14
0.165
0.185
0.2
0.25
0.27
0.305
0.33
0.37
0.38
0.37
0.31
0.235
0.14
0.065
0.015
0.0
-0.02
-0.01
-0.025
-0.03
-0.015
-0.02
-0.02
-0.015
-0.025
-0.015
-0.015
-0.015
-0.005
-0.005
-0.01
0.005
0.005
0.015
-0.005
0.0
0.0
0.005
-0.015
0.0
-0.015
0.01
0.0
0.01
0.005
-0.005
0.0
0.02
0.01
0.0
0.0
0.005
-0.015
0.0
0.01
0.0
-0.02
0.01
0.015
0.045
0.01
0.035
-0.005
0.0
-0.01
-0.01
-0.02
-0.01
-0.015
-0.015
-0.02
-0.015
-0.035
-0.025
0.1
0.41
0.18
-1.395
-1.835
-1.23
-0.665
-0.01
0.025
0.02
0.03
0.055
0.05
0.07
0.07
0.07
0.085
0.105
0.115
0.125
0.13
0.16
0.17
0.2
0.225
0.275
0.315
0.345
0.36
0.405
0.375
0.31
0.23
0.155
0.065
0.02
-0.01
-0.005
-0.025
-0.02
-0.015
-0.015
-0.02
-0.02
-0.02
-0.005
0.0
-0.01
-0.015
-0.005
-0.01
0.0
0.0
0.01
-0.005
0.005
0.005
0.015
0.0
0.01
0.0
0.015
0.01
0.01
0.0
0.01
0.01
0.02
-0.005
0.005
0.0
0.0
-0.01
0.01
-0.045
-0.015
0.0
-0.005
0.025
0.05
0.02
0.01
0.0
0.01
-0.015
0.0
-0.01
0.005
0.005
0.0
-0.005
0.0
0.21
0.525
-0.005
-1.725
-1.795
-1.06
-0.55
0.05
0.015
0.03
0.04
0.075
0.08
0.085
0.075
0.1
0.09
0.125
0.125
0.15
0.16
0.175
0.195
0.235
0.255
0.3
0.335
0.37
0.425
0.435
0.39
0.32
0.22
0.13
0.065
0.02
-0.005
-0.015
-0.005
0.0
-0.02
-0.005
-0.025
-0.005
-0.015
0.0
-0.02
-0.02
-0.005
-0.005
-0.005
-0.005
-0.005
-0.005
0.005
-0.01
-0.015
0.0
0.0
0.0
0.0
0.01
0.005
0.02
0.005
0.015
0.015
0.02
0.01
0.02
0.02
0.015
0.0
0.0
0.01
-0.01
0.0
-0.01
0.0
0.02
0.04
0.06
-0.005
0.01
0.005
-0.02
0.0
-0.005
-0.01
0.0
-0.005
-0.015
-0.025
0.08
0.4
0.325
-1.105
-1.83
-1.35
-0.705
-0.125
0.03
0.01
0.035
0.065
0.07
0.08
0.095
0.09
0.095
0.1
0.105
0.12
0.145
0.15
0.19
0.21
0.245
0.27
0.325
0.355
0.395
0.415
0.395
0.35
0.27
0.185
0.105
0.04
0.025
0.01
0.01
-0.01
0.0
-0.005
0.0
-0.005
0.0
0.02
0.015
0.01
0.025
0.03
0.025
0.025
0.03
0.035
0.035
0.03
0.035
0.04
0.05
0.03
0.05
0.045
0.04
0.035
0.03
0.04
0.045
0.035
0.045
0.05
0.045
0.04
0.045
0.03
0.025
0.015
0.015
0.02
0.01
0.025
0.05
0.08
0.055
0.035
0.02
0.025
0.04
0.03
0.035
0.04
0.025
0.03
0.03
0.035
0.27
0.55
-0.125
-1.795
-1.7
-0.96
-0.44
0.095
0.04
0.05
0.09
0.105
0.1
0.1
0.115
0.12
0.135
0.145
0.155
0.16
0.165
0.19
0.225
0.245
0.28
0.325
0.365
0.4
0.445
0.425
0.4
0.325
0.235
0.135
0.075
0.025
0.0
-0.01
0.015
0.0
0.0
-0.005
-0.005
0.005
0.01
0.0
0.005
0.0
0.01
0.0
0.01
0.005
0.025
0.015
0.015
0.005
0.015
0.01
0.015
0.015
0.015
0.02
0.03
0.025
0.015
0.02
0.015
0.025
0.02
0.015
0.02
0.005
0.015
-0.005
0.015
-0.005
-0.005
-0.02
0.005
0.03
0.045
0.005
0.0
0.0
0.015
0.0
-0.005
0.0
0.01
-0.02
-0.015
-0.025
0.0
0.24
0.525
-0.125
-1.815
-1.76
-0.985
-0.485
0.075
0.015
0.03
0.05
0.065
0.05
0.06
0.065
0.085
0.095
0.115
0.11
0.13
0.145
0.16
0.185
0.23
0.26
0.3
0.335
0.37
0.39
0.42
0.37
0.31
0.21
0.125
0.06
0.01
-0.005
-0.01
-0.02
-0.02
-0.025
-0.025
-0.02
-0.02
-0.015
-0.025
-0.01
-0.02
-0.005
-0.005
-0.01
0.0
0.0
0.005
0.005
0.015
0.0
0.0
0.0
0.005
0.005
0.005
0.0
0.005
0.0
0.0
-0.005
0.005
-0.015
0.005
0.0
0.005
-0.015
-0.005
-0.04
-0.02
-0.065
-0.065
-0.025
0.015
0.0
-0.015
-0.02
-0.01
-0.01
-0.005
-0.02
-0.005
-0.025
-0.03
-0.035
-0.02
0.21
0.515
-0.105
-1.8
-1.77
-1.01
-0.51
0.025
-0.015
0.0
0.02
0.04
0.045
0.06
0.06
0.1
0.09
0.1
0.115
0.14
0.15
0.18
0.175
0.22
0.235
0.28
0.335
0.36
0.385
0.385
0.365
0.315
0.195
0.12
0.04
0.0
-0.02
-0.025
-0.03
-0.03
-0.035
-0.025
-0.02
-0.025
-0.025
-0.02
-0.015
-0.02
0.0
-0.01
-0.02
0.0
0.0
0.0
0.0
0.005
-0.005
0.0
-0.015
0.0
0.0
0.01
0.01
0.005
0.005
0.01
0.005
0.0
0.0
0.0
-0.005
-0.01
-0.055
-0.035
-0.05
-0.095
-0.055
0.0
0.01
-0.025
-0.03
-0.035
-0.025
-0.01
-0.045
-0.02
-0.03
-0.015
-0.05
-0.03
0.19
0.51
-0.005
-1.72
-1.81
-1.075
-0.56
0.04
0.0
0.0
0.035
0.05
0.05
0.07
0.065
0.095
0.075
0.1
0.105
0.115
0.14
0.17
0.17
0.215
0.255
0.29
0.305
0.36
0.4
0.41
0.375
0.31
0.205
0.12
0.045
0.0
0.01
-0.01
-0.03
-0.02
-0.015
-0.015
-0.005
-0.015
-0.02
-0.01
-0.02
-0.01
-0.005
0.0
0.0
0.0
-0.01
0.0
0.0
-0.01
0.0
0.0
-0.005
-0.01
-0.005
0.01
-0.005
0.0
0.0
0.01
0.005
0.015
0.01
0.01
-0.005
-0.01
-0.05
-0.02
-0.04
-0.1
-0.03
0.02
0.015
-0.015
-0.025
-0.025
-0.035
-0.025
-0.04
-0.03
-0.04
-0.02
-0.045
-0.04
0.21
0.51
-0.12
-1.815
-1.81
-1.035
-0.515
0.045
-0.005
0.01
0.015
0.045
0.05
0.07
0.075
0.075
0.075
0.095
0.105
0.105
0.14
0.155
0.165
0.21
0.265
0.29
0.315
0.365
0.4
0.395
0.36
0.3
0.19
0.115
0.05
0.0
-0.01
-0.01
-0.02
-0.02
-0.025
-0.035
-0.02
-0.02
-0.02
-0.015
-0.02
-0.005
-0.005
-0.01
-0.015
0.005
0.005
0.005
0.015
0.015
0.01
0.01
0.02
0.025
0.025
0.035
0.03
0.035
0.035
0.03
0.035
0.035
0.035
0.025
0.045
0.03
0.025
0.01
0.005
0.02
-0.025
0.015
0.06
0.06
0.05
0.025
0.05
0.045
0.04
0.025
0.03
0.03
0.055
0.055
0.05
0.2
0.505
0.245
-1.335
-1.755
-1.15
-0.575
0.035
0.085
0.07
0.1
0.12
0.14
0.145
0.155
0.15
0.155
0.175
0.185
0.2
0.22
0.23
0.27
0.29
0.33
0.36
0.39
0.43
0.46
0.485
0.46
0.405
0.315
0.22
0.16
0.115
0.085
0.07
0.05
0.06
0.065
0.065
0.055
0.045
0.06
0.065
0.035
0.065
0.065
0.045
0.06
0.07
0.065
0.08
0.08
0.08
0.1
0.08
0.08
0.07
0.085
0.08
0.1
0.085
0.09
0.085
0.08
0.085
0.085
0.07
0.075
0.08
0.075
0.06
0.05
0.055
0.02
0.03
0.085
0.085
0.065
0.045
0.065
0.05
0.045
0.045
0.025
0.035
0.035
0.015
0.02
0.1
0.425
0.405
-0.96
-1.835
-1.365
-0.725
-0.125
0.05
0.04
0.055
0.075
0.09
0.1
0.095
0.105
0.125
0.125
0.145
0.165
0.165
0.19
0.235
0.245
0.26
0.3
0.345
0.39
0.405
0.43
0.42
0.37
0.305
0.19
0.1
0.065
0.035
0.01
0.0
0.0
0.01
0.0
0.0
0.01
0.0
-0.01
-0.01
0.005
0.01
0.0
0.015
0.02
0.015
0.025
0.045
0.01
0.015
0.035
0.025
0.03
0.005
0.03
0.015
0.01
0.01
0.02
0.015
0.025
0.015
0.01
0.01
0.01
0.0
0.005
-0.02
-0.005
-0.03
-0.035
-0.005
0.03
0.03
0.0
-0.015
-0.005
0.005
0.005
-0.01
-0.01
0.005
-0.005
-0.015
0.0
0.195
0.52
0.02
-1.685
-1.8
-1.075
-0.54
0.04
0.025
0.02
0.04
0.07
0.075
0.09
0.095
0.105
0.105
0.1
0.115
0.135
0.165
0.18
0.195
0.225
0.255
0.295
0.325
0.37
0.39
0.405
0.36
0.305
0.215
0.14
0.065
0.0
-0.015
-0.025
-0.02
-0.035
-0.05
-0.035
-0.03
-0.045
-0.025
-0.025
-0.035
-0.04
-0.02
-0.03
-0.03
-0.025
-0.035
-0.04
-0.025
-0.03
-0.04
-0.035
-0.03
-0.01
-0.025
-0.04
-0.02
-0.015
-0.025
-0.01
-0.025
-0.025
-0.02
-0.03
-0.045
-0.03
-0.04
-0.035
-0.07
-0.1
-0.03
0.005
0.0
-0.035
-0.02
-0.01
-0.025
-0.03
-0.035
-0.04
-0.02
-0.02
-0.02
0.025
0.335
0.45
-0.72
-1.865
-1.54
-0.82
-0.25
0.04
0.005
0.02
0.045
0.055
0.07
0.06
0.08
0.085
0.085
0.1
0.115
0.125
0.155
0.165
0.185
0.22
0.26
0.3
0.345
0.38
0.39
0.385
0.35
0.26
0.165
0.08
0.03
-0.02
-0.01
-0.015
-0.03
-0.02
-0.025
-0.025
-0.015
-0.03
-0.02
-0.01
-0.015
-0.005
-0.005
0.0
-0.01
-0.005
0.005
0.0
-0.005
0.005
0.02
0.0
0.015
0.02
0.01
0.02
0.015
0.025
0.01
0.01
0.02
0.025
0.03
0.02
0.005
-0.025
0.0
-0.04
-0.03
0.045
0.055
0.05
0.005
0.02
0.0
0.02
0.0
0.0
0.025
0.01
0.015
0.02
0.29
0.56
-0.225
-1.83
-1.71
-0.935
-0.415
0.085
0.03
0.035
0.055
0.065
0.075
0.08
0.085
0.09
0.085
0.1
0.13
0.135
0.14
0.16
0.19
0.23
0.255
0.295
0.335
0.365
0.395
0.38
0.38
0.285
0.19
0.11
0.055
0.02
0.0
-0.01
-0.015
-0.01
-0.005
-0.015
-0.005
-0.015
-0.015
-0.02
-0.01
-0.015
-0.005
-0.005
0.0
0.0
-0.01
-0.005
0.0
0.01
0.01
0.0
0.0
0.0
0.005
0.005
0.015
0.01
0.005
0.01
0.01
0.01
0.015
0.005
0.0
-0.01
0.0
-0.04
-0.035
0.04
0.04
0.035
0.015
0.01
0.015
0.025
0.02
0.005
0.015
0.015
0.005
0.04
0.34
0.575
-0.38
-1.82
-1.605
-0.835
-0.295
0.115
0.08
0.075
0.11
0.13
0.14
0.14
0.165
0.155
0.165
0.175
0.16
0.16
0.18
0.195
0.225
0.24
0.275
0.305
0.335
0.385
0.385
0.37
0.34
0.26
0.155
0.06
0.005
-0.01
-0.04
-0.04
-0.04
-0.05
-0.045
-0.055
-0.045
-0.04
-0.045
-0.05
-0.04
-0.055
-0.04
-0.04
-0.045
-0.045
-0.03
-0.045
-0.02
-0.045
-0.03
-0.025
-0.025
-0.025
-0.02
-0.015
-0.015
-0.025
-0.01
-0.035
-0.01
-0.025
-0.03
-0.045
-0.06
-0.06
-0.09
-0.085
-0.01
0.015
0.0
-0.04
-0.025
-0.025
-0.02
-0.04
-0.03
-0.025
-0.01
-0.025
-0.015
0.2
0.515
-0.06
-1.77
-1.81
-1.05
-0.525
0.035
0.0
0.0
0.01
0.04
0.04
0.055
0.06
0.085
0.075
0.085
0.085
0.11
0.13
0.16
0.175
0.2
0.235
0.265
0.32
0.36
0.385
0.39
0.355
0.29
0.17
0.1
0.02
-0.005
-0.02
-0.025
-0.03
-0.035
-0.035
-0.035
-0.035
-0.035
-0.04
-0.035
-0.035
-0.035
-0.04
-0.035
-0.04
-0.03
-0.02
-0.04
-0.04
-0.02
-0.03
-0.03
-0.02
-0.02
-0.01
-0.02
-0.005
-0.02
-0.015
-0.015
-0.015
-0.01
-0.005
-0.005
-0.025
-0.025
-0.055
-0.04
-0.075
-0.065
-0.01
0.015
-0.01
-0.04
-0.02
-0.02
-0.04
-0.045
-0.035
-0.035
-0.035
-0.035
-0.045
0.085
0.4
0.275
-1.215
-1.845
-1.32
-0.715
-0.09
0.03
-0.01
0.035
0.055
0.045
0.045
0.07
0.09
0.08
0.1
0.105
0.115
0.135
0.155
0.17
0.175
0.23
0.27
0.315
0.35
0.39
0.4
0.39
0.325
0.235
0.145
0.06
0.025
-0.005
-0.02
-0.025
-0.025
-0.025
-0.03
-0.045
-0.02
-0.02
-0.04
-0.025
-0.02
-0.02
-0.025
-0.015
-0.02
-0.005
-0.02
-0.01
-0.005
-0.02
-0.02
-0.01
-0.005
-0.005
0.0
-0.015
-0.03
-0.02
-0.025
-0.02
-0.02
-0.025
-0.035
-0.005
-0.055
-0.02
-0.045
-0.04
-0.005
0.015
0.02
-0.025
-0.02
-0.025
-0.025
-0.025
-0.025
-0.03
-0.03
-0.035
-0.03
0.02
0.325
0.415
-0.79
-1.865
-1.515
-0.82
-0.25
0.025
0.0
0.02
0.025
0.04
0.055
0.07
0.055
0.065
0.075
0.07
0.095
0.115
0.12
0.15
0.17
0.215
0.23
0.3
0.33
0.35
0.395
0.385
0.33
0.255
0.16
0.075
0.0
-0.015
-0.015
-0.015
-0.045
-0.04
-0.03
-0.025
-0.045
-0.03
-0.025
-0.04
-0.04
-0.025
-0.045
-0.03
-0.03
-0.03
-0.025
-0.02
-0.02
-0.015
-0.01
-0.01
-0.025
-0.01
-0.01
-0.015
-0.005
-0.025
-0.015
-0.01
-0.005
-0.005
-0.01
-0.01
-0.01
-0.04
-0.05
-0.05
-0.06
-0.025
0.02
0.015
-0.02
-0.015
-0.015
-0.015
-0.01
-0.015
-0.015
-0.005
-0.025
-0.015
0.015
0.32
0.475
-0.595
-1.875
-1.55
-0.825
-0.265
0.06
0.015
0.045
0.07
0.05
0.08
0.085
0.095
0.105
0.11
0.105
0.135
0.145
0.175
0.185
0.205
0.235
0.27
0.31
0.325
0.345
0.38
0.37
0.33
0.235
0.155
0.055
0.015
-0.03
-0.03
-0.025
-0.045
-0.05
-0.035
-0.055
-0.04
-0.055
-0.055
-0.045
-0.05
-0.04
-0.03
-0.04
-0.055
-0.04
-0.04
-0.05
-0.02
-0.04
-0.035
-0.05
-0.03
-0.055
-0.04
-0.045
-0.03
-0.04
-0.035
-0.03
-0.025
-0.035
-0.045
-0.07
-0.06
-0.065
-0.105
-0.05
-0.015
0.0
-0.03
-0.035
-0.015
-0.02
-0.025
-0.035
-0.03
-0.035
-0.025
-0.045
0.015
0.31
0.47
-0.635
-1.865
-1.57
-0.85
-0.295
0.035
-0.01
0.0
0.025
0.035
0.03
0.065
0.07
0.06
0.065
0.095
0.09
0.12
0.135
0.155
0.165
0.21
0.25
0.29
0.32
0.365
0.385
0.38
0.335
0.245
0.145
0.075
0.01
-0.01
-0.03
-0.03
-0.05
-0.03
-0.04
-0.025
-0.035
-0.025
-0.025
-0.035
-0.015
-0.015
-0.015
-0.02
-0.035
-0.01
-0.015
-0.015
-0.015
-0.015
-0.03
-0.01
0.0
-0.02
-0.01
0.0
0.0
-0.005
-0.01
-0.02
0.0
-0.01
-0.01
-0.015
-0.035
-0.03
-0.07
-0.03
-0.005
0.03
0.005
-0.015
-0.005
-0.02
-0.03
-0.025
-0.02
-0.025
-0.035
-0.035
-0.015
0.26
0.5
-0.375
-1.875
-1.675
-0.91
-0.385
0.045
0.0
0.0
0.03
0.035
0.05
0.045
0.055
0.07
0.085
0.075
0.095
0.105
0.12
0.14
0.165
0.195
0.24
0.27
0.315
0.345
0.365
0.365
0.335
0.225
0.145
0.055
0.0
-0.035
-0.045
-0.055
-0.04
-0.06
-0.055
-0.065
-0.055
-0.06
-0.055
-0.05
-0.04
-0.06
-0.04
-0.05
-0.025
-0.04
-0.04
-0.05
-0.04
-0.04
-0.045
-0.05
-0.045
-0.04
-0.035
-0.025
-0.045
-0.04
-0.02
-0.03
-0.03
-0.035
-0.05
-0.055
-0.065
-0.06
-0.1
-0.075
-0.025
-0.01
-0.03
-0.055
-0.045
-0.05
-0.055
-0.055
-0.03
-0.045
-0.03
-0.065
-0.005
0.265
0.43
-0.63
-1.88
-1.575
-0.85
-0.32
0.045
-0.02
0.0
0.01
0.04
0.045
0.055
0.06
0.06
0.07
0.075
0.075
0.085
0.1
0.145
0.165
0.205
0.235
0.285
0.315
0.36
0.38
0.38
0.32
0.24
0.13
0.055
0.0
-0.015
-0.035
-0.025
-0.045
-0.04
-0.035
-0.03
-0.035
-0.035
-0.035
-0.035
-0.045
-0.025
-0.03
-0.02
-0.035
-0.035
-0.02
-0.03
-0.03
-0.025
-0.035
-0.03
-0.035
-0.035
-0.04
-0.03
-0.04
-0.045
-0.04
-0.04
-0.045
-0.04
-0.065
-0.06
-0.07
-0.105
-0.065
-0.005
-0.025
-0.04
-0.055
-0.04
-0.055
-0.055
-0.045
-0.045
-0.045
-0.05
-0.065
0.02
0.31
0.395
-0.82
-1.87
-1.49
-0.805
-0.23
0.02
-0.01
0.01
0.025
0.045
0.05
0.05
0.06
0.06
0.075
0.085
0.1
0.13
0.125
0.18
0.2
0.23
0.255
0.31
0.345
0.385
0.405
0.395
0.325
0.255
0.14
0.07
0.02
0.0
-0.02
-0.025
-0.035
-0.045
-0.06
-0.07
-0.08
-0.06
-0.08
-0.08
-0.085
-0.08
-0.09
-0.09
-0.09
-0.065
-0.07
-0.07
-0.075
-0.07
-0.08
-0.065
-0.075
-0.06
-0.07
-0.07
-0.06
-0.055
-0.085
-0.06
-0.07
-0.055
-0.075
-0.055
-0.07
-0.065
-0.075
-0.05
-0.035
-0.01
-0.025
-0.055
-0.065
-0.06
-0.08
-0.06
-0.085
-0.06
-0.06
-0.08
-0.075
-0.075
0.19
0.49
-0.245
-1.87
-1.78
-1.025
-0.505
0.02
-0.055
-0.035
-0.015
0.015
0.01
0.02
0.025
0.045
0.04
0.065
0.065
0.11
0.105
0.145
0.18
0.195
0.24
0.275
0.315
0.36
0.385
0.39
0.36
0.27
0.17
0.09
0.025
-0.005
-0.02
-0.015
-0.025
-0.03
-0.025
-0.015
-0.02
-0.03
0.0
-0.015
0.0
-0.005
0.0
-0.01
-0.01
0.0
-0.01
0.0
0.005
0.045
0.025
0.115
0.19
0.07
0.03
0.02
-0.105
-0.05
-0.06
-0.035
-0.115
-0.105
-0.015
-0.15
-0.15
-0.045
-0.11
-0.05
-0.03
-0.095
-0.075
-0.115
-0.205
-0.14
-0.22
-0.17
-0.17
-0.155
-0.155
-0.145
-0.155
-0.02
0.28
0.435
-0.76
-1.78
-1.515
-0.91
-0.2
-0.125
-0.155
-0.08
-0.115
-0.115
-0.05
-0.035
-0.005
-0.01
0.015
-0.035
0.0
0.065
0.105
0.165
0.115
0.19
0.21
0.28
0.295
0.465
0.65
0.655
0.53
0.185
0.055
0.045
-0.125
-0.17
-0.215
-0.255
-0.265
-0.225
-0.205
-0.16
-0.15
-0.115
-0.055
0.025
0.045
0.11
-0.005
-0.06
-0.02
-0.15
-0.115
-0.11
-0.14
-0.125
-0.095
-0.1
-0.015
0.09
0.025
0.03
-0.11
-0.07
-0.105
-0.155
-0.16
-0.19
-0.16
-0.215
-0.16
-0.105
0.005
0.0
-0.04
-0.13
-0.13
-0.16
-0.19
-0.25
-0.22
-0.235
-0.215
-0.185
-0.095
-0.03
-0.245
-0.285
-0.28
0.0
0.53
-0.01
-2.06
-2.285
-1.43
-0.41
-0.105
-0.13
-0.145
-0.195
-0.105
-0.13
-0.12
-0.08
-0.06
-0.055
0.01
-0.015
0.145
0.22
0.19
0.15
0.265
0.23
0.33
0.425
0.51
0.56
0.63
0.675
0.58
0.42
0.19
0.08
0.01
-0.085
-0.05
0.075
-0.115
-0.17
-0.165
-0.155
-0.145
-0.13
-0.145
-0.125
-0.08
-0.09
-0.075
-0.01
-0.065
0.035
-0.115
-0.155
-0.145
-0.145
-0.155
-0.15
-0.13
-0.115
-0.06
-0.115
-0.075
-0.07
-0.075
-0.01
0.015
0.04
-0.065
-0.07
-0.125
-0.205
-0.165
-0.185
-0.175
-0.205
-0.21
-0.19
-0.225
-0.24
0.0
0.515
0.745
-0.825
-2.155
-1.38
-0.7
0.005
-0.025
-0.04
-0.04
-0.01
-0.05
0.09
0.185
0.18
0.11
0.105
0.1
0.02
0.045
0.06
0.165
0.23
0.28
0.35
0.41
0.555
0.665
0.8
0.875
0.68
0.47
0.305
0.22
0.01
0.025
0.085
0.065
-0.06
-0.22
-0.27
-0.26
-0.245
-0.28
-0.26
-0.22
-0.26
-0.295
-0.265
-0.19
-0.17
-0.07
-0.04
-0.025
-0.06
-0.135
-0.13
-0.065
-0.11
-0.2
0.05
-0.015
-0.045
-0.17
-0.065
-0.055
-0.085
-0.185
-0.26
-0.3
-0.27
-0.265
-0.29
-0.3
-0.225
-0.265
-0.2
0.09
0.5
-0.375
-2.715
-2.71
-1.83
-0.955
-0.8
-0.795
-0.72
-0.725
-0.56
-0.55
-0.45
-0.43
-0.335
-0.275
-0.165
-0.145
-0.03
-0.01
0.07
0.105
0.23
0.295
0.38
0.465
0.525
0.605
0.61
0.505
0.335
0.145
0.03
-0.115
-0.165
-0.215
-0.21
-0.23
-0.215
-0.235
-0.23
-0.23
-0.23
-0.25
-0.235
-0.25
-0.235
-0.225
-0.225
-0.215
-0.18
-0.205
-0.185
-0.18
-0.165
-0.2
-0.17
-0.14
-0.19
-0.11
-0.155
-0.165
-0.21
-0.2
-0.215
-0.215
-0.225
-0.22
-0.225
-0.245
-0.235
-0.155
0.175
0.815
0.0
-1.89
-2.015
-1.195
-0.43
-0.11
-0.13
-0.1
-0.075
-0.04
-0.03
-0.025
0.01
0.01
0.03
0.04
0.055
0.07
0.135
0.155
0.21
0.285
0.375
0.455
0.525
0.585
0.65
0.65
0.585
0.42
0.22
0.045
-0.05
-0.12
-0.145
-0.185
-0.17
-0.19
-0.2
-0.22
-0.18
-0.185
-0.225
-0.21
-0.185
-0.195
-0.16
-0.165
-0.2
-0.205
-0.16
-0.155
-0.145
-0.16
-0.15
-0.17
-0.115
-0.04
-0.185
-0.21
-0.26
-0.26
-0.245
-0.245
-0.23
-0.235
-0.2
-0.21
-0.185
-0.075
0.385
0.905
-0.51
-1.985
-1.715
-1.02
-0.22
-0.01
-0.03
0.035
0.075
0.065
0.09
0.105
0.125
0.185
0.225
0.18
0.18
0.195
0.225
0.235
0.265
0.335
0.39
0.425
0.555
0.6
0.62
0.62
0.525
0.35
0.185
0.09
0.05
-0.04
-0.09
-0.075
-0.055
-0.2
-0.25
-0.265
-0.25
-0.29
-0.205
-0.165
-0.295
-0.275
-0.175
-0.205
-0.27
-0.285
-0.19
-0.105
-0.125
-0.135
-0.175
-0.125
-0.1
-0.135
-0.065
-0.155
-0.07
-0.06
-0.065
0.19
0.445
0.565
-1.42
-2.165
-1.215
-0.73
-0.09
-0.105
-0.14
-0.115
-0.07
-0.05
-0.03
0.01
0.025
0.06
0.09
0.12
0.135
0.18
0.215
0.26
0.315
0.39
0.425
0.49
0.53
0.59
0.58
0.49
0.375
0.21
0.105
0.0
0.0
-0.1
-0.05
-0.075
-0.09
-0.075
-0.12
-0.075
-0.065
-0.075
-0.065
-0.065
-0.065
-0.05
-0.115
-0.165
-0.075
-0.015
-0.025
-0.07
-0.045
-0.075
-0.075
-0.075
-0.065
-0.08
-0.09
-0.085
-0.075
0.145
0.54
0.195
-1.56
-1.98
-1.15
-0.57
-0.01
-0.04
-0.05
-0.04
-0.02
0.01
0.0
0.0
0.025
0.04
0.055
0.065
0.075
0.135
0.15
0.22
0.255
0.265
0.32
0.415
0.46
0.48
0.47
0.38
0.26
0.085
0.02
-0.045
-0.07
-0.1
-0.105
-0.105
-0.1
-0.135
-0.125
-0.095
-0.12
-0.105
-0.11
-0.13
-0.13
-0.105
-0.19
-0.195
-0.1
-0.03
-0.07
-0.12
-0.085
-0.11
-0.09
-0.11
-0.075
-0.105
-0.085
-0.095
-0.055
0.175
0.52
-0.09
-1.675
-1.765
-1.0
-0.43
-0.01
-0.055
-0.025
-0.015
0.02
0.045
0.015
0.06
0.04
0.05
0.08
0.09
0.14
0.15
0.195
0.235
0.265
0.33
0.4
0.43
0.485
0.5
0.49
0.38
0.215
0.105
-0.025
-0.06
-0.06
-0.06
-0.11
-0.105
-0.11
-0.09
-0.12
-0.105
-0.105
-0.115
-0.135
-0.14
-0.145
-0.14
-0.105
-0.155
-0.195
-0.15
-0.065
-0.11
-0.16
-0.17
-0.17
-0.145
-0.155
-0.19
-0.2
-0.165
-0.18
-0.18
0.06
0.38
0.12
-1.555
-1.98
-1.21
-0.66
-0.16
-0.16
-0.135
-0.09
-0.125
-0.095
-0.1
-0.09
-0.06
-0.05
-0.055
-0.06
-0.06
0.03
0.035
0.075
0.14
0.145
0.245
0.305
0.38
0.33
0.33
0.24
0.075
-0.03
-0.11
-0.17
-0.255
-0.265
-0.305
-0.26
-0.21
-0.29
-0.235
-0.3
-0.265
-0.265
-0.325
-0.255
-0.245
-0.32
-0.31
-0.28
-0.295
-0.355
-0.395
-0.2
-0.2
-0.225
-0.235
-0.22
-0.195
-0.21
-0.225
-0.2
-0.225
-0.195
-0.23
-0.12
0.115
0.415
-0.335
-1.8
-1.825
-1.04
-0.49
-0.09
-0.065
-0.05
-0.03
-0.015
0.0
-0.025
0.05
0.01
0.065
0.07
0.09
0.13
0.16
0.17
0.225
0.295
0.33
0.39
0.45
0.55
0.535
0.5
0.335
0.255
0.08
0.065
-0.03
-0.04
-0.075
-0.09
-0.075
-0.065
-0.08
-0.065
-0.04
-0.055
-0.045
-0.05
-0.045
-0.06
-0.03
-0.045
-0.01
-0.05
-0.03
-0.065
-0.115
-0.1
0.03
0.005
-0.005
-0.025
-0.01
-0.02
-0.03
-0.02
-0.025
-0.02
-0.01
0.01
0.12
0.395
0.54
-0.795
-1.775
-1.265
-0.67
-0.055
0.075
0.05
0.08
0.14
0.14
0.145
0.175
0.195
0.2
0.235
0.25
0.255
0.315
0.33
0.34
0.41
0.45
0.525
0.58
0.62
0.675
0.685
0.6
0.48
0.325
0.195
0.115
0.06
0.06
0.035
0.045
0.035
0.035
0.005
0.035
0.025
0.025
0.0
0.025
0.025
0.0
-0.005
-0.005
0.0
-0.035
-0.055
-0.105
-0.12
-0.16
-0.15
-0.195
-0.24
-0.18
-0.105
-0.15
-0.165
-0.195
-0.19
-0.18
-0.17
-0.195
-0.19
-0.19
-0.19
-0.195
-0.06
0.295
0.505
-0.825
-2.045
-1.51
-0.895
-0.255
-0.13
-0.135
-0.13
-0.1
-0.095
-0.09
-0.08
-0.075
-0.055
-0.04
-0.02
-0.01
0.015
0.055
0.095
0.12
0.185
0.245
0.3
0.375
0.425
0.45
0.4
0.285
0.105
-0.04
-0.125
-0.19
-0.215
-0.23
-0.24
-0.22
-0.215
-0.2
-0.185
-0.19
-0.17
-0.165
-0.165
-0.16
-0.165
-0.15
-0.15
-0.125
-0.125
-0.105
-0.13
-0.125
-0.1
-0.115
-0.07
-0.085
-0.085
-0.05
-0.07
-0.08
-0.14
-0.125
-0.15
-0.15
-0.14
-0.155
-0.155
-0.15
-0.155
-0.14
0.115
0.675
0.325
-1.605
-1.95
-1.16
-0.495
-0.045
-0.115
-0.06
-0.025
-0.02
0.0
0.015
0.035
0.05
0.055
0.09
0.12
0.15
0.185
0.21
0.265
0.33
0.39
0.46
0.555
0.62
0.665
0.64
0.555
0.405
0.23
0.105
0.02
-0.02
-0.055
-0.055
-0.06
-0.095
-0.07
-0.06
-0.065
-0.06
-0.075
-0.065
-0.06
-0.07
-0.06
-0.06
-0.065
-0.075
-0.09
-0.08
-0.07
-0.045
-0.09
-0.04
-0.065
-0.05
-0.005
-0.03
-0.04
-0.11
-0.105
-0.09
-0.085
-0.115
-0.125
-0.115
-0.11
-0.1
-0.1
0.105
0.56
0.71
-1.15
-2.075
-1.31
-0.715
-0.065
0.0
-0.025
0.005
0.015
0.035
0.07
0.06
0.085
0.115
0.13
0.135
0.165
0.19
0.245
0.28
0.33
0.415
0.5
0.54
0.59
0.64
0.68
0.58
0.415
0.275
0.15
0.04
0.0
-0.005
-0.025
-0.025
