signal
-0.045
-0.06
-0.025
-0.045
-0.045
-0.055
-0.065
-0.06
-0.03
-0.07
-0.04
-0.065
-0.075
-0.065
0.045
0.025
0.03
0.025
-0.02
-0.03
-0.065
-0.065
-0.08
-0.07
-0.085
-0.105
-0.095
-0.08
-0.08
-0.105
-0.04
-0.095
0.0
0.185
0.615
0.93
0.37
0.2
0.165
0.03
0.025
-0.03
-0.03
-0.035
-0.045
-0.04
-0.03
-0.08
-0.045
-0.03
-0.04
-0.055
-0.065
-0.03
-0.06
-0.015
-0.025
0.0
0.0
0.02
0.035
0.085
0.12
0.115
0.175
0.225
0.215
0.215
0.185
0.135
0.07
0.05
0.05
-0.02
0.0
-0.015
-0.005
-0.01
0.005
-0.015
0.0
-0.025
0.005
-0.01
0.005
-0.02
-0.01
0.005
-0.01
-0.01
-0.01
-0.025
-0.02
0.0
-0.04
-0.035
-0.015
-0.025
-0.05
-0.045
-0.04
-0.025
-0.055
-0.05
-0.05
-0.04
-0.045
-0.095
-0.005
-0.085
-0.075
-0.065
-0.075
-0.075
-0.065
-0.08
-0.08
-0.085
-0.08
-0.085
-0.105
-0.1
-0.07
-0.06
-0.085
-0.04
-0.015
0.02
-0.015
0.005
-0.07
-0.065
-0.09
-0.06
-0.095
-0.125
-0.12
-0.07
-0.125
-0.075
-0.105
-0.11
-0.095
-0.065
0.2
0.555
0.94
0.51
0.195
0.185
0.035
0.0
-0.02
-0.035
-0.035
-0.06
-0.035
-0.045
-0.04
-0.05
-0.045
-0.065
-0.025
-0.05
-0.03
-0.04
-0.045
0.0
0.0
0.01
0.02
0.04
0.095
0.095
0.16
0.185
0.175
0.22
0.235
0.19
0.14
0.075
0.045
0.015
0.02
0.0
-0.045
-0.005
0.0
-0.015
-0.005
-0.025
-0.01
-0.01
0.01
-0.03
-0.02
0.01
-0.015
0.0
-0.03
0.0
0.0
-0.01
-0.005
-0.05
-0.05
0.02
-0.02
-0.035
-0.05
-0.015
-0.005
-0.04
-0.02
-0.065
-0.065
-0.025
-0.04
-0.045
-0.04
-0.05
-0.075
-0.055
-0.07
-0.07
-0.065
-0.1
-0.065
-0.09
-0.06
-0.09
-0.1
-0.075
-0.035
0.04
0.02
0.0
-0.02
-0.04
-0.11
-0.03
-0.095
-0.1
-0.09
-0.105
-0.08
-0.09
-0.12
-0.08
-0.065
-0.13
0.17
0.355
0.83
0.87
0.285
0.165
0.115
-0.02
0.005
-0.045
-0.04
-0.05
-0.045
-0.055
-0.045
-0.065
-0.035
-0.035
-0.03
-0.045
-0.045
-0.025
-0.065
0.02
0.0
0.0
0.005
0.06
0.05
0.11
0.14
0.16
0.205
0.21
0.23
0.195
0.16
0.095
0.09
0.02
0.0
0.0
-0.02
-0.01
0.01
-0.01
-0.025
-0.005
-0.04
-0.015
0.01
-0.01
-0.02
0.0
-0.01
-0.005
-0.01
-0.03
0.0
-0.03
0.0
-0.015
-0.05
-0.03
-0.015
-0.025
-0.025
-0.015
-0.065
-0.03
-0.04
-0.03
-0.055
-0.02
-0.055
-0.055
-0.05
-0.06
-0.05
-0.08
-0.05
-0.085
-0.065
-0.055
-0.08
-0.075
-0.07
-0.1
-0.055
-0.08
-0.09
-0.08
-0.085
-0.03
0.02
0.0
0.015
-0.015
-0.05
-0.09
-0.06
-0.105
-0.075
-0.115
-0.1
-0.105
-0.09
-0.09
-0.105
-0.09
-0.1
0.14
0.525
0.935
0.61
0.23
0.15
0.055
0.005
-0.065
-0.01
-0.035
-0.07
-0.045
-0.06
-0.055
-0.04
-0.04
-0.055
-0.05
-0.045
-0.025
-0.05
-0.01
-0.035
-0.02
0.015
0.03
0.02
0.07
0.115
0.11
0.155
0.2
0.215
0.215
0.19
0.125
0.095
0.06
0.045
0.0
-0.005
-0.01
-0.015
-0.005
-0.06
0.0
0.005
-0.025
0.0
-0.035
-0.03
-0.015
0.0
-0.01
-0.015
-0.015
-0.015
-0.025
-0.015
-0.025
-0.01
-0.04
-0.035
-0.025
-0.045
-0.03
-0.05
-0.025
-0.045
-0.065
-0.025
-0.045
-0.075
-0.04
-0.06
-0.05
-0.045
-0.075
-0.06
-0.06
-0.065
-0.075
-0.065
-0.1
-0.07
-0.09
-0.08
-0.1
-0.06
-0.095
-0.08
-0.035
0.0
-0.015
-0.015
0.02
-0.07
-0.065
-0.095
-0.085
-0.085
-0.11
-0.11
-0.11
-0.115
-0.125
-0.085
-0.09
-0.11
0.16
0.5
0.92
0.645
0.22
0.185
0.05
0.005
-0.035
-0.02
-0.05
-0.05
-0.06
-0.03
-0.045
-0.055
-0.02
-0.065
-0.05
-0.01
-0.045
-0.03
-0.005
-0.035
0.0
0.0
0.0
0.06
0.075
0.1
0.15
0.19
0.21
0.225
0.215
0.195
0.155
0.1
0.065
0.035
0.01
0.0
0.0
-0.02
-0.025
-0.015
0.0
-0.015
-0.03
0.0
-0.035
-0.01
-0.01
-0.025
-0.005
-0.03
-0.005
-0.01
-0.035
-0.015
-0.025
-0.025
-0.03
-0.03
-0.03
-0.045
-0.04
-0.025
-0.025
-0.075
-0.04
-0.015
-0.075
-0.06
-0.045
-0.05
-0.055
-0.05
-0.075
-0.075
-0.055
-0.075
-0.08
-0.085
-0.09
-0.085
-0.08
-0.065
-0.095
-0.08
-0.07
0.0
0.0
0.0
-0.015
-0.015
-0.08
-0.085
-0.065
-0.11
-0.115
-0.09
-0.09
-0.11
-0.1
-0.09
-0.1
-0.12
0.15
0.445
0.91
0.75
0.29
0.155
0.085
0.015
-0.035
-0.04
-0.05
-0.04
-0.03
-0.035
-0.06
-0.08
-0.045
-0.05
-0.035
-0.04
-0.03
-0.025
-0.055
-0.015
0.005
-0.005
0.02
0.065
0.075
0.11
0.12
0.19
0.205
0.25
0.24
0.195
0.16
0.125
0.07
0.045
0.01
0.01
-0.02
0.01
0.005
0.0
0.0
-0.015
0.0
-0.02
0.02
-0.005
0.0
0.0
0.005
-0.015
0.0
-0.005
0.005
0.005
-0.015
-0.02
-0.005
-0.03
-0.015
-0.03
-0.025
-0.035
-0.055
0.0
-0.04
-0.02
-0.03
-0.06
-0.045
-0.03
-0.02
-0.045
-0.05
-0.065
-0.055
-0.045
-0.07
-0.05
-0.055
-0.065
-0.075
-0.065
-0.075
-0.055
0.0
0.0
0.03
0.01
-0.02
-0.04
-0.07
-0.05
-0.075
-0.105
-0.085
-0.09
-0.09
-0.095
-0.075
-0.09
-0.12
0.06
0.295
0.825
1.0
0.345
0.175
0.12
0.0
-0.005
-0.06
-0.05
-0.055
-0.035
-0.05
-0.055
-0.055
-0.045
-0.065
-0.03
-0.07
-0.035
-0.03
-0.04
-0.025
-0.02
-0.005
0.005
0.035
0.055
0.09
0.16
0.14
0.215
0.235
0.22
0.215
0.16
0.14
0.09
0.065
0.0
0.005
-0.01
0.0
0.0
-0.015
0.01
-0.01
0.0
-0.02
-0.015
0.01
-0.005
-0.015
-0.005
0.0
-0.01
-0.015
-0.015
-0.03
-0.02
0.0
-0.04
-0.015
-0.03
-0.025
-0.045
-0.035
-0.035
-0.045
-0.015
-0.05
-0.06
-0.055
-0.06
-0.065
-0.035
-0.045
-0.1
-0.065
-0.07
-0.08
-0.08
-0.07
-0.065
-0.1
-0.105
-0.09
-0.105
-0.09
-0.075
0.0
0.0
-0.02
-0.025
-0.025
-0.08
-0.115
-0.06
-0.1
-0.115
-0.125
-0.11
-0.105
-0.13
-0.08
-0.105
-0.165
0.095
0.285
0.835
0.95
0.315
0.14
0.11
-0.03
-0.045
-0.02
-0.08
-0.055
-0.085
-0.07
-0.08
-0.08
-0.065
-0.065
-0.065
-0.085
-0.06
-0.045
-0.055
-0.06
-0.025
-0.02
0.0
0.005
0.06
0.085
0.105
0.16
0.165
0.21
0.205
0.2
0.165
0.1
0.06
0.025
0.005
0.0
-0.03
-0.03
-0.02
-0.03
-0.03
-0.035
-0.01
-0.02
-0.02
-0.05
-0.025
-0.03
-0.035
-0.025
-0.025
-0.02
-0.035
-0.03
-0.03
-0.045
-0.05
-0.04
-0.055
-0.035
-0.04
-0.075
-0.055
-0.025
-0.08
-0.065
-0.055
-0.055
-0.09
-0.065
-0.05
-0.095
-0.085
-0.06
-0.065
-0.1
-0.095
-0.09
-0.085
-0.12
-0.085
-0.115
-0.095
-0.08
-0.015
-0.005
-0.01
-0.035
-0.055
-0.085
-0.08
-0.1
-0.125
-0.11
-0.115
-0.115
-0.095
-0.105
-0.135
-0.1
-0.11
0.125
0.46
0.955
0.73
0.255
0.155
0.07
-0.02
-0.035
-0.04
-0.05
-0.075
-0.075
-0.055
-0.08
-0.065
-0.055
-0.065
-0.065
-0.045
-0.09
-0.05
-0.03
-0.045
-0.005
-0.02
0.02
0.04
0.025
0.1
0.135
0.155
0.18
0.23
0.205
0.16
0.155
0.085
0.035
0.035
-0.035
0.02
-0.035
-0.035
-0.01
-0.035
-0.02
-0.03
-0.025
-0.03
-0.015
-0.02
-0.01
-0.045
-0.03
-0.01
-0.01
-0.025
-0.035
-0.02
-0.035
-0.025
-0.04
-0.03
-0.03
-0.055
-0.02
-0.04
-0.045
-0.045
-0.04
-0.075
-0.04
-0.065
-0.04
-0.07
-0.07
-0.065
-0.08
-0.05
-0.085
-0.07
-0.095
-0.105
-0.06
-0.085
-0.105
-0.1
-0.09
-0.105
-0.095
-0.03
-0.01
-0.025
-0.03
-0.025
-0.075
-0.105
-0.09
-0.11
-0.11
-0.135
-0.13
-0.1
-0.12
-0.12
-0.095
-0.15
-0.03
0.22
0.69
1.06
0.44
0.195
0.165
0.01
-0.02
-0.025
-0.04
-0.045
-0.035
-0.055
-0.04
-0.07
-0.03
-0.06
-0.05
-0.035
-0.03
-0.04
-0.025
-0.025
0.0
-0.005
0.015
0.05
0.07
0.105
0.13
0.15
0.195
0.22
0.23
0.225
0.175
0.13
0.085
0.03
0.03
0.0
-0.015
-0.01
-0.015
-0.005
-0.035
-0.03
0.0
-0.005
-0.025
-0.01
-0.01
-0.04
-0.01
0.005
-0.015
-0.005
-0.02
-0.015
-0.02
-0.04
-0.015
-0.015
-0.045
-0.05
-0.025
-0.03
-0.055
-0.03
-0.045
-0.07
-0.035
-0.08
-0.045
-0.055
-0.06
-0.055
-0.06
-0.09
-0.075
-0.075
-0.1
-0.095
-0.065
-0.085
-0.105
-0.115
-0.055
-0.095
-0.105
-0.035
-0.005
0.01
-0.02
-0.02
-0.09
-0.1
-0.085
-0.095
-0.13
-0.135
-0.105
-0.125
-0.135
-0.115
-0.1
-0.17
-0.08
0.135
0.585
1.0
0.55
0.24
0.135
0.03
0.0
-0.03
-0.055
-0.085
-0.05
-0.08
-0.065
-0.06
-0.05
-0.06
-0.05
-0.065
-0.08
-0.03
-0.045
-0.025
-0.02
-0.025
0.0
0.01
0.06
0.055
0.115
0.14
0.175
0.225
0.21
0.225
0.165
0.14
0.1
0.03
-0.005
0.02
-0.01
-0.035
0.0
-0.04
-0.025
-0.01
-0.035
0.0
-0.035
-0.025
-0.015
-0.005
-0.025
-0.035
0.005
-0.02
-0.035
-0.035
-0.01
-0.025
-0.04
-0.045
-0.01
-0.035
-0.04
-0.035
-0.03
-0.07
-0.03
-0.04
-0.04
-0.055
-0.045
-0.05
-0.07
-0.055
-0.065
-0.06
-0.07
-0.075
-0.07
-0.065
-0.075
-0.1
-0.055
-0.09
-0.1
-0.085
-0.075
-0.035
0.0
0.005
-0.005
-0.015
-0.06
-0.085
-0.1
-0.065
-0.1
-0.115
-0.105
-0.105
-0.095
-0.12
-0.095
-0.125
-0.135
0.15
0.415
0.91
0.83
0.295
0.175
0.07
-0.015
-0.03
-0.045
-0.05
-0.055
-0.045
-0.07
-0.06
-0.045
-0.065
-0.04
-0.055
-0.045
-0.055
-0.025
-0.025
-0.025
-0.025
-0.005
0.02
0.035
0.095
0.1
0.12
0.145
0.19
0.235
0.175
0.21
0.175
0.09
0.06
0.02
0.0
-0.015
-0.015
0.0
-0.02
-0.02
-0.01
-0.01
-0.01
-0.025
-0.02
-0.01
-0.02
-0.005
-0.03
0.0
-0.02
-0.025
-0.005
-0.035
-0.005
-0.02
-0.045
-0.025
-0.015
-0.03
-0.035
-0.045
-0.04
-0.04
-0.03
-0.06
-0.05
-0.045
-0.05
-0.085
-0.055
-0.06
-0.075
-0.055
-0.1
-0.08
-0.08
-0.08
-0.095
-0.075
-0.1
-0.09
-0.115
-0.08
-0.035
-0.005
0.005
0.0
-0.02
-0.06
-0.125
-0.07
-0.085
-0.11
-0.105
-0.085
-0.135
-0.115
-0.1
-0.1
-0.12
-0.1
0.18
0.605
1.0
0.57
0.24
0.16
0.025
-0.01
-0.05
-0.09
-0.045
-0.04
-0.095
-0.08
-0.075
-0.075
-0.08
-0.06
-0.055
-0.055
-0.045
-0.035
-0.055
-0.025
0.0
0.0
0.015
0.07
0.075
0.09
0.13
0.195
0.195
0.205
0.22
0.17
0.13
0.075
0.055
0.02
0.0
-0.03
0.0
0.0
-0.045
-0.035
-0.005
-0.02
-0.035
-0.02
-0.025
-0.01
-0.02
-0.025
-0.03
-0.02
-0.03
-0.035
-0.01
-0.025
-0.02
-0.045
-0.04
-0.025
-0.035
-0.04
-0.04
-0.04
-0.04
-0.05
-0.075
-0.035
-0.05
-0.055
-0.085
-0.035
-0.05
-0.09
-0.055
-0.075
-0.055
-0.07
-0.075
-0.08
-0.075
-0.08
-0.105
-0.065
-0.095
-0.08
-0.03
-0.025
0.03
0.0
-0.025
-0.025
-0.06
-0.085
-0.055
-0.135
-0.095
-0.085
-0.11
-0.1
-0.1
-0.09
-0.12
-0.11
0.07
0.31
0.825
0.985
0.325
0.19
0.11
0.0
-0.015
-0.05
-0.06
-0.06
-0.05
-0.065
-0.065
-0.05
-0.045
-0.055
-0.08
-0.025
-0.04
-0.055
-0.02
-0.02
-0.025
-0.01
0.045
0.04
0.065
0.09
0.135
0.15
0.19
0.22
0.215
0.195
0.155
0.11
0.065
0.035
-0.005
-0.005
-0.015
-0.015
-0.02
-0.03
-0.015
-0.015
-0.02
0.0
-0.01
-0.03
0.0
-0.025
-0.01
-0.01
0.0
-0.015
-0.01
-0.015
-0.015
-0.03
-0.035
-0.01
-0.025
-0.025
-0.035
-0.03
-0.035
-0.06
-0.015
-0.03
-0.04
-0.055
-0.05
-0.04
-0.075
-0.025
-0.06
-0.06
-0.06
-0.08
-0.08
-0.075
-0.07
-0.07
-0.07
-0.095
-0.1
-0.065
-0.06
-0.115
-0.08
-0.02
0.005
0.0
0.005
-0.01
-0.05
-0.11
-0.09
-0.08
-0.105
-0.115
-0.09
-0.095
-0.105
-0.11
-0.11
-0.11
-0.09
0.17
0.59
1.01
0.595
0.235
0.17
0.05
0.0
-0.015
-0.07
-0.035
-0.03
-0.1
-0.015
-0.05
-0.045
-0.05
-0.03
-0.055
-0.03
-0.085
-0.02
-0.015
-0.02
0.0
-0.015
0.0
0.06
0.095
0.1
0.125
0.155
0.2
0.17
0.235
0.175
0.125
0.08
0.035
0.01
0.0
-0.05
-0.005
0.0
-0.03
-0.02
-0.01
-0.02
-0.05
0.005
-0.02
0.0
-0.02
-0.01
-0.015
-0.045
0.005
-0.02
-0.015
-0.02
-0.025
-0.03
-0.075
-0.03
-0.03
-0.03
-0.035
-0.045
-0.045
-0.035
-0.075
-0.045
-0.05
-0.075
-0.05
-0.07
-0.07
-0.07
-0.065
-0.085
-0.065
-0.07
-0.085
-0.095
-0.095
-0.075
-0.09
-0.09
-0.05
0.0
0.0
-0.03
0.0
-0.045
-0.08
-0.09
-0.07
-0.1
-0.13
-0.1
-0.115
-0.095
-0.12
-0.08
-0.1
-0.125
0.13
0.445
0.935
0.79
0.29
0.19
0.09
-0.02
-0.04
-0.035
-0.07
-0.065
-0.045
-0.065
-0.07
-0.055
-0.065
-0.075
-0.035
-0.06
-0.065
-0.04
-0.05
-0.025
-0.02
0.0
0.035
0.04
0.04
0.115
0.13
0.14
0.225
0.205
0.21
0.175
0.14
0.085
0.05
0.025
0.0
0.0
-0.035
-0.03
-0.015
-0.02
-0.04
-0.03
0.0
-0.015
-0.04
-0.015
0.0
-0.025
-0.045
-0.015
-0.005
-0.015
-0.025
-0.03
-0.015
-0.015
-0.03
-0.04
-0.055
-0.01
-0.025
-0.055
-0.02
-0.03
-0.04
-0.025
-0.07
-0.04
-0.03
-0.065
-0.045
-0.045
-0.065
-0.065
-0.05
-0.075
-0.06
-0.075
-0.06
-0.09
-0.07
-0.075
-0.08
-0.09
-0.07
-0.105
-0.075
-0.08
-0.07
-0.025
-0.005
0.0
0.01
-0.035
-0.05
-0.1
-0.08
-0.08
-0.125
-0.095
-0.1
-0.125
-0.11
-0.12
-0.115
-0.15
-0.065
0.17
0.65
1.02
0.545
0.235
0.14
0.03
-0.01
-0.02
-0.055
-0.055
-0.065
-0.06
-0.065
-0.055
-0.06
-0.05
-0.07
-0.055
-0.04
-0.045
-0.04
-0.04
-0.01
-0.025
0.015
0.03
0.055
0.055
0.12
0.14
0.195
0.195
0.235
0.21
0.18
0.125
0.075
0.055
0.015
-0.02
-0.055
0.0
-0.005
-0.035
-0.045
-0.045
-0.005
-0.025
-0.03
-0.035
-0.03
-0.005
-0.02
0.0
-0.025
-0.035
-0.015
-0.01
-0.035
-0.04
-0.005
-0.025
-0.02
-0.02
-0.04
-0.035
-0.04
-0.045
-0.04
-0.03
-0.05
-0.035
-0.045
-0.045
-0.035
-0.05
-0.05
-0.065
-0.05
-0.065
-0.03
-0.07
-0.065
-0.075
-0.07
-0.09
-0.065
-0.08
-0.05
-0.085
-0.095
-0.095
-0.065
-0.02
-0.02
0.005
-0.02
-0.01
-0.055
-0.09
-0.07
-0.085
-0.11
-0.11
-0.12
-0.115
-0.075
-0.125
-0.11
-0.12
-0.135
0.14
0.515
0.975
0.755
0.275
0.16
0.055
-0.005
-0.035
-0.03
-0.065
-0.055
-0.04
-0.065
-0.08
-0.05
-0.055
-0.04
-0.06
-0.05
-0.045
-0.055
-0.025
-0.03
0.0
0.015
0.02
0.055
0.07
0.105
0.145
0.17
0.19
0.22
0.245
0.2
0.15
0.11
0.05
0.03
-0.005
-0.015
-0.02
-0.01
-0.04
-0.005
-0.015
-0.01
-0.015
-0.02
0.0
-0.005
-0.015
0.005
0.0
-0.01
0.0
-0.03
-0.02
0.0
-0.02
-0.01
-0.005
-0.03
-0.035
-0.02
-0.05
-0.025
-0.025
-0.025
-0.03
-0.05
-0.04
-0.035
-0.035
-0.045
-0.045
-0.04
-0.05
-0.035
-0.07
-0.07
-0.055
-0.065
-0.07
-0.09
-0.075
-0.08
-0.08
-0.08
-0.085
-0.09
-0.08
-0.09
-0.08
-0.06
-0.045
-0.01
0.0
-0.01
-0.03
-0.035
-0.115
-0.055
-0.09
-0.115
-0.15
-0.095
-0.12
-0.11
-0.12
-0.11
-0.125
-0.1
0.185
0.61
1.035
0.63
0.25
0.165
0.05
-0.025
-0.03
-0.035
-0.06
-0.05
-0.05
-0.055
-0.05
-0.05
-0.075
-0.04
-0.05
-0.04
-0.05
-0.025
-0.04
-0.01
-0.015
0.0
0.035
0.05
0.08
0.115
0.155
0.185
0.21
0.23
0.225
0.185
0.155
0.105
0.045
0.02
-0.01
-0.01
-0.015
-0.01
-0.02
-0.03
-0.005
0.0
-0.025
-0.015
-0.015
-0.015
-0.005
-0.02
0.0
-0.005
-0.015
0.0
-0.02
-0.03
-0.025
-0.025
-0.015
-0.03
-0.02
-0.03
-0.03
-0.025
-0.055
-0.03
-0.045
-0.035
-0.03
-0.055
-0.05
-0.03
-0.06
-0.05
-0.07
-0.06
-0.045
-0.065
-0.06
-0.08
-0.07
-0.065
-0.075
-0.07
-0.08
-0.09
-0.08
-0.07
-0.09
-0.075
-0.045
0.0
0.0
-0.015
-0.025
-0.035
-0.08
-0.065
-0.09
-0.105
-0.12
-0.095
-0.13
-0.11
-0.12
-0.105
-0.105
-0.145
0.08
0.43
0.97
0.87
0.33
0.175
0.09
-0.01
-0.03
-0.045
-0.05
-0.045
-0.065
-0.07
-0.07
-0.065
-0.045
-0.045
-0.065
-0.035
-0.04
-0.045
-0.03
-0.035
-0.015
0.005
0.02
0.065
0.085
0.11
0.125
0.185
0.21
0.23
0.25
0.2
0.175
0.135
0.06
0.035
-0.01
-0.005
-0.005
-0.03
-0.005
-0.015
-0.025
-0.025
-0.025
-0.025
-0.01
0.005
-0.01
-0.025
-0.02
-0.01
-0.005
-0.025
-0.025
-0.025
-0.02
-0.02
-0.025
-0.03
-0.06
-0.03
-0.045
-0.03
-0.04
-0.05
-0.05
-0.045
-0.055
-0.055
-0.055
-0.06
-0.055
-0.05
-0.075
-0.06
-0.07
-0.07
-0.075
-0.065
-0.06
-0.1
-0.07
-0.065
-0.085
-0.07
-0.11
-0.065
-0.085
-0.085
-0.055
0.01
0.005
-0.01
-0.02
-0.05
-0.09
-0.075
-0.085
-0.125
-0.11
-0.105
-0.105
-0.11
-0.13
-0.085
-0.135
-0.085
0.17
0.675
1.08
0.57
0.23
0.17
0.05
-0.035
-0.055
-0.045
-0.06
-0.045
-0.065
-0.065
-0.065
-0.055
-0.06
-0.055
-0.06
-0.05
-0.03
-0.04
-0.05
0.0
-0.01
0.0
0.015
0.06
0.07
0.12
0.15
0.185
0.205
0.24
0.23
0.195
0.135
0.09
0.025
0.025
0.01
-0.02
-0.025
-0.025
-0.025
-0.005
-0.01
-0.03
-0.02
-0.015
0.0
-0.01
-0.015
-0.015
-0.01
-0.02
-0.025
-0.015
-0.015
-0.035
-0.03
-0.025
-0.03
-0.04
-0.03
-0.045
-0.055
-0.02
-0.045
-0.045
-0.045
-0.04
-0.055
-0.06
-0.05
-0.05
-0.06
-0.055
-0.075
-0.065
-0.07
-0.09
-0.085
-0.075
-0.085
-0.08
-0.09
-0.085
-0.11
-0.09
-0.11
-0.09
-0.04
-0.01
-0.015
-0.02
-0.01
-0.05
-0.1
-0.06
-0.08
-0.095
-0.125
-0.12
-0.12
-0.105
-0.125
-0.1
-0.115
-0.08
0.18
0.655
1.06
0.605
0.26
0.175
0.04
-0.015
-0.055
-0.05
-0.06
-0.07
-0.065
-0.065
-0.07
-0.065
-0.055
-0.065
-0.05
-0.055
-0.045
-0.05
-0.03
-0.015
-0.035
0.035
0.015
0.04
0.09
0.135
0.14
0.19
0.22
0.235
0.23
0.195
0.14
0.095
0.05
0.03
0.0
-0.015
-0.015
-0.005
-0.025
-0.03
-0.03
-0.015
-0.01
-0.02
-0.02
-0.01
-0.015
0.0
-0.015
-0.005
-0.02
-0.025
-0.005
-0.025
-0.02
-0.02
-0.015
-0.025
-0.045
-0.025
-0.035
-0.05
-0.045
-0.05
-0.045
-0.045
-0.055
-0.045
-0.06
-0.06
-0.055
-0.06
-0.065
-0.06
-0.065
-0.065
-0.07
-0.075
-0.085
-0.075
-0.085
-0.075
-0.095
-0.085
-0.085
-0.07
-0.045
-0.005
0.005
-0.015
-0.04
-0.055
-0.095
-0.075
-0.09
-0.105
-0.115
-0.12
-0.125
-0.12
-0.12
-0.115
-0.135
-0.12
0.115
0.595
1.05
0.71
0.33
0.195
0.06
-0.015
-0.05
-0.065
-0.08
-0.07
-0.085
-0.075
-0.085
-0.075
-0.075
-0.06
-0.07
-0.065
-0.065
-0.035
-0.035
-0.01
0.0
0.035
0.05
0.08
0.12
0.155
0.18
0.21
0.255
0.27
0.26
0.21
0.15
0.09
0.035
0.01
-0.005
-0.02
-0.03
-0.035
-0.03
-0.03
-0.035
-0.03
-0.03
-0.02
-0.03
-0.025
-0.03
-0.01
-0.025
-0.025
-0.035
-0.035
-0.035
-0.035
-0.04
-0.05
-0.05
-0.04
-0.045
-0.045
-0.04
-0.06
-0.055
-0.055
-0.06
-0.07
-0.06
-0.065
-0.075
-0.075
-0.065
-0.07
-0.075
-0.065
-0.075
-0.075
-0.08
-0.08
-0.095
-0.08
-0.085
-0.09
-0.105
-0.09
-0.11
-0.1
-0.09
-0.035
-0.03
-0.035
-0.045
-0.055
-0.095
-0.105
-0.105
-0.095
-0.135
-0.125
-0.13
-0.12
-0.13
-0.115
-0.12
-0.175
-0.12
0.045
0.72
1.145
0.755
0.325
0.16
0.01
-0.045
-0.055
-0.075
-0.075
-0.09
-0.085
-0.1
-0.09
-0.095
-0.075
-0.08
-0.075
-0.08
-0.065
-0.06
-0.045
-0.03
-0.01
0.015
0.035
0.075
0.11
0.16
0.19
0.235
0.265
0.26
0.235
0.18
0.13
0.075
0.04
0.005
0.0
-0.01
-0.01
-0.025
-0.01
-0.02
-0.015
-0.015
-0.015
-0.015
-0.015
-0.03
-0.02
-0.025
-0.015
-0.025
-0.03
-0.035
-0.035
-0.035
-0.045
-0.04
-0.04
-0.045
-0.045
-0.055
-0.05
-0.045
-0.055
-0.055
-0.055
-0.05
-0.05
-0.06
-0.05
-0.06
-0.055
-0.055
-0.06
-0.065
-0.06
-0.065
-0.07
-0.075
-0.06
-0.08
-0.08
-0.085
-0.075
-0.03
-0.015
-0.03
-0.04
-0.05
-0.085
-0.095
-0.085
-0.075
-0.095
-0.1
-0.09
-0.105
-0.1
-0.1
-0.09
-0.13
-0.15
-0.025
0.55
1.11
0.895
0.455
0.22
0.05
-0.015
-0.04
-0.06
-0.07
-0.07
-0.08
-0.075
-0.075
-0.08
-0.075
-0.07
-0.075
-0.06
-0.07
-0.055
-0.04
-0.025
-0.015
0.005
0.025
0.065
0.095
0.135
0.17
0.205
0.235
0.24
0.21
0.17
0.11
0.055
0.025
0.0
-0.01
-0.015
-0.025
-0.025
-0.02
-0.02
-0.025
-0.015
-0.015
-0.015
-0.025
-0.025
-0.025
-0.03
-0.025
-0.025
-0.03
-0.03
-0.03
-0.03
-0.035
-0.035
-0.04
-0.04
-0.045
-0.045
-0.045
-0.05
-0.05
-0.05
-0.055
-0.055
-0.055
-0.055
-0.06
-0.065
-0.065
-0.07
-0.07
-0.075
-0.07
-0.085
-0.075
-0.085
-0.08
-0.09
-0.075
-0.065
-0.025
-0.03
-0.07
-0.02
-0.065
-0.105
-0.12
-0.085
-0.1
-0.11
-0.11
-0.115
-0.105
-0.11
-0.1
-0.115
-0.19
-0.085
0.155
0.86
1.115
0.7
0.295
0.12
-0.005
-0.04
-0.055
-0.075
-0.08
-0.09
-0.085
-0.09
-0.08
-0.085
-0.075
-0.08
-0.07
-0.065
-0.06
-0.05
-0.03
-0.025
-0.005
0.015
0.04
0.085
0.115
0.145
0.19
0.22
0.24
0.225
0.18
0.135
0.08
0.035
0.01
-0.01
-0.015
-0.015
-0.02
-0.025
-0.015
-0.025
-0.025
-0.01
-0.03
-0.02
-0.02
-0.015
-0.025
-0.015
-0.025
-0.02
-0.025
-0.025
-0.035
-0.035
-0.04
-0.04
-0.045
-0.035
-0.06
-0.045
-0.05
-0.04
-0.05
-0.05
-0.06
-0.055
-0.065
-0.06
-0.065
-0.065
-0.075
-0.065
-0.065
-0.075
-0.075
-0.075
-0.085
-0.085
-0.095
-0.085
-0.1
-0.075
-0.065
-0.015
-0.025
-0.06
-0.03
-0.065
-0.1
-0.11
-0.095
-0.1
-0.11
-0.11
-0.115
-0.095
-0.12
-0.095
-0.105
-0.16
-0.11
0.055
0.745
1.16
0.785
0.35
0.145
0.005
-0.035
-0.055
-0.07
-0.075
-0.08
-0.075
-0.08
-0.075
-0.075
-0.07
-0.07
-0.06
-0.065
-0.05
-0.04
-0.025
-0.015
-0.005
0.01
0.05
0.07
0.11
0.14
0.185
0.215
0.24
0.22
0.19
0.14
0.08
0.04
0.01
-0.005
-0.02
-0.025
-0.035
-0.025
-0.035
-0.03
-0.025
-0.03
-0.025
-0.025
-0.025
-0.035
-0.035
-0.04
-0.035
-0.035
-0.035
-0.05
-0.035
-0.045
-0.05
-0.05
-0.055
-0.045
-0.055
-0.055
-0.06
-0.06
-0.06
-0.06
-0.06
-0.065
-0.065
-0.065
-0.07
-0.07
-0.08
-0.075
-0.09
-0.085
-0.095
-0.09
-0.09
-0.09
-0.095
-0.1
-0.065
-0.03
-0.03
-0.075
-0.025
-0.07
-0.1
-0.125
-0.09
-0.1
-0.11
-0.115
-0.11
-0.105
-0.115
-0.11
-0.1
-0.15
-0.15
-0.015
0.625
1.155
0.855
0.4
0.18
0.015
-0.03
-0.06
-0.08
-0.08
-0.09
-0.09
-0.09
-0.08
-0.08
-0.07
-0.07
-0.065
-0.055
-0.055
-0.045
-0.045
-0.02
-0.005
0.02
0.045
0.075
0.11
0.155
0.175
0.21
0.235
0.23
0.195
0.145
0.095
0.05
0.015
-0.005
-0.02
-0.015
-0.025
-0.03
-0.02
-0.035
-0.025
-0.03
-0.025
-0.02
-0.03
-0.035
-0.035
-0.025
-0.04
-0.035
-0.04
-0.035
-0.04
-0.035
-0.04
-0.045
-0.05
-0.045
-0.05
-0.05
-0.05
-0.045
-0.055
-0.05
-0.05
-0.055
-0.055
-0.06
-0.065
-0.065
-0.06
-0.075
-0.065
-0.08
-0.07
-0.085
-0.075
-0.085
-0.085
-0.085
-0.085
-0.095
-0.095
-0.07
-0.02
-0.015
-0.065
-0.02
-0.06
-0.095
-0.12
-0.08
-0.095
-0.115
-0.12
-0.11
-0.11
-0.11
-0.105
-0.11
-0.15
-0.155
-0.02
0.59
1.125
0.865
0.42
0.19
0.025
-0.03
-0.055
-0.08
-0.08
-0.085
-0.08
-0.09
-0.08
-0.08
-0.08
-0.085
-0.07
-0.06
-0.07
-0.05
-0.04
-0.025
-0.015
0.01
0.03
0.07
0.1
0.14
0.165
0.21
0.22
0.23
0.2
0.145
0.1
0.045
0.02
-0.01
-0.015
-0.03
-0.03
-0.03
-0.03
-0.03
-0.025
-0.03
-0.02
-0.025
-0.015
-0.02
-0.025
-0.02
-0.025
-0.02
-0.02
-0.02
-0.03
-0.02
-0.02
-0.02
-0.035
-0.03
-0.035
-0.03
-0.035
-0.035
-0.04
-0.04
-0.035
-0.045
-0.045
-0.045
-0.045
-0.05
-0.05
-0.05
-0.055
-0.06
-0.055
-0.06
-0.07
-0.065
-0.06
-0.08
-0.07
-0.075
-0.08
-0.085
-0.085
-0.085
-0.08
-0.035
-0.015
-0.035
-0.03
-0.045
-0.08
-0.105
-0.095
-0.095
-0.105
-0.11
-0.1
-0.11
-0.1
-0.11
-0.105
-0.105
-0.195
-0.065
0.17
0.885
1.13
0.705
0.295
0.11
0.0
-0.045
-0.05
-0.075
-0.07
-0.075
-0.075
-0.08
-0.07
-0.065
-0.065
-0.05
-0.055
-0.05
-0.05
-0.04
-0.025
-0.005
0.005
0.03
0.06
0.095
0.13
0.155
0.195
0.235
0.25
0.235
0.2
0.145
0.1
0.045
0.02
0.0
-0.01
-0.015
-0.005
-0.015
-0.015
-0.005
-0.01
-0.005
-0.01
-0.01
-0.025
-0.015
-0.015
-0.015
-0.02
-0.015
-0.02
-0.02
-0.025
-0.02
-0.03
-0.03
-0.02
-0.03
-0.03
-0.03
-0.025
-0.04
-0.035
-0.04
-0.035
-0.035
-0.045
-0.045
-0.045
-0.045
-0.055
-0.065
-0.05
-0.06
-0.06
-0.065
-0.07
-0.065
-0.07
-0.08
-0.085
-0.08
-0.08
-0.09
-0.09
-0.1
-0.09
-0.06
-0.03
-0.025
-0.06
-0.03
-0.07
-0.105
-0.115
-0.085
-0.11
-0.12
-0.11
-0.11
-0.11
-0.11
-0.105
-0.11
-0.16
-0.125
0.03
0.695
1.18
0.82
0.375
0.17
0.01
-0.03
-0.045
-0.065
-0.07
-0.075
-0.08
-0.075
-0.08
-0.075
-0.065
-0.065
-0.055
-0.055
-0.04
-0.03
-0.015
0.0
0.01
0.025
0.055
0.1
0.13
0.16
0.195
0.235
0.25
0.25
0.215
0.165
0.105
0.055
0.025
0.0
-0.01
-0.02
-0.03
-0.025
-0.02
-0.03
-0.03
-0.02
-0.025
-0.015
-0.03
-0.025
-0.025
-0.025
-0.02
-0.02
-0.02
-0.025
-0.015
-0.02
-0.03
-0.035
-0.035
-0.045
-0.035
-0.04
-0.035
-0.035
-0.045
-0.045
-0.045
-0.045
-0.045
-0.045
-0.055
-0.05
-0.055
-0.06
-0.06
-0.05
-0.06
-0.065
-0.075
-0.065
-0.08
-0.07
-0.085
-0.08
-0.095
-0.085
-0.1
-0.08
-0.085
-0.095
-0.1
-0.095
-0.075
-0.04
-0.025
-0.07
-0.02
-0.065
-0.105
-0.125
-0.095
-0.1
-0.125
-0.115
-0.125
-0.105
-0.12
-0.105
-0.11
-0.18
-0.12
0.055
0.745
1.165
0.775
0.335
0.14
0.0
-0.035
-0.055
-0.075
-0.07
-0.085
-0.075
-0.08
-0.065
-0.065
-0.05
-0.06
-0.05
-0.06
-0.035
-0.035
-0.015
-0.005
0.01
0.03
0.065
0.09
0.125
0.175
0.2
0.24
0.255
0.245
0.215
0.15
0.09
0.04
0.01
-0.005
-0.01
-0.02
-0.015
-0.025
-0.02
-0.025
-0.02
-0.025
-0.025
-0.03
-0.02
-0.025
-0.015
-0.015
-0.015
-0.01
-0.02
-0.01
-0.015
-0.02
-0.01
-0.02
-0.02
-0.015
-0.02
-0.025
-0.03
-0.04
-0.045
-0.045
-0.05
-0.04
-0.05
-0.05
-0.055
-0.055
-0.055
-0.06
-0.07
-0.065
-0.075
-0.07
-0.085
-0.08
-0.09
-0.085
-0.095
-0.09
-0.095
-0.09
-0.11
-0.08
-0.065
-0.025
-0.03
-0.065
-0.025
-0.065
-0.1
-0.105
-0.085
-0.105
-0.12
-0.11
-0.12
-0.105
-0.105
-0.1
-0.11
-0.195
-0.06
0.23
0.925
1.105
0.675
0.295
0.115
-0.005
-0.04
-0.05
-0.07
-0.075
-0.085
-0.085
-0.085
-0.07
-0.075
-0.07
-0.07
-0.055
-0.045
-0.035
-0.025
-0.015
0.0
0.03
0.04
0.08
0.1
0.14
0.17
0.2
0.235
0.255
0.245
0.195
0.15
0.085
0.04
0.005
-0.005
-0.02
-0.02
-0.025
-0.03
-0.02
-0.03
-0.025
-0.025
-0.03
-0.025
-0.035
-0.03
-0.03
-0.03
-0.035
-0.035
-0.035
-0.035
-0.035
-0.03
-0.045
-0.035
-0.04
-0.04
-0.035
-0.045
-0.05
-0.04
-0.055
-0.045
-0.055
-0.055
-0.065
-0.06
-0.065
-0.07
-0.07
-0.07
-0.075
-0.065
-0.08
-0.07
-0.075
-0.07
-0.08
-0.075
-0.085
-0.075
-0.05
-0.005
-0.01
-0.045
-0.025
-0.065
-0.095
-0.105
-0.085
-0.09
-0.115
-0.105
-0.115
-0.1
-0.115
-0.095
-0.115
-0.2
-0.065
0.225
0.925
1.11
0.665
0.285
0.105
-0.005
-0.045
-0.055
-0.075
-0.07
-0.08
-0.07
-0.075
-0.07
-0.07
-0.065
-0.06
-0.05
-0.05
-0.04
-0.04
-0.015
-0.01
0.01
0.035
0.06
0.09
0.135
0.165
0.205
0.23
0.255
0.23
0.2
0.14
0.09
0.045
0.01
-0.01
-0.015
-0.02
-0.03
-0.03
-0.025
-0.02
-0.025
-0.02
-0.02
-0.02
-0.02
-0.02
-0.025
-0.03
-0.02
-0.025
-0.03
-0.03
-0.04
-0.035
-0.035
-0.035
-0.035
-0.04
-0.035
-0.035
-0.04
-0.045
-0.045
-0.04
-0.05
-0.05
-0.055
-0.055
-0.055
-0.06
-0.065
-0.065
-0.07
-0.07
-0.08
-0.075
-0.08
-0.085
-0.09
-0.085
-0.095
-0.09
-0.105
-0.095
-0.07
-0.03
-0.03
-0.07
-0.03
-0.065
-0.11
-0.12
-0.095
-0.095
-0.125
-0.115
-0.12
-0.11
-0.11
-0.11
-0.12
-0.205
-0.075
0.19
0.9
1.125
0.69
0.295
0.1
0.0
-0.04
-0.06
-0.075
-0.07
-0.085
-0.075
-0.08
-0.075
-0.08
-0.065
-0.065
-0.055
-0.055
-0.045
-0.04
-0.025
-0.015
0.0
0.03
0.06
0.095
0.13
0.165
0.205
0.24
0.26
0.25
0.22
0.16
0.105
0.05
0.025
0.0
-0.005
-0.005
-0.015
-0.015
-0.01
-0.015
-0.025
-0.02
-0.025
-0.025
-0.02
-0.02
-0.02
-0.01
-0.02
-0.02
-0.02
-0.03
-0.035
-0.025
-0.02
-0.035
-0.03
-0.03
-0.03
-0.025
-0.025
-0.025
-0.025
-0.015
-0.035
-0.025
-0.035
-0.03
-0.035
-0.035
-0.045
-0.04
-0.045
-0.05
-0.05
-0.05
-0.055
-0.06
-0.065
-0.07
-0.07
-0.06
-0.075
-0.08
-0.075
-0.075
-0.075
-0.025
-0.015
-0.05
-0.02
-0.045
-0.085
-0.105
-0.08
-0.085
-0.11
-0.11
-0.11
-0.105
-0.1
-0.11
-0.1
-0.155
-0.135
0.015
0.665
1.15
0.805
0.4
0.2
0.04
-0.025
-0.045
-0.065
-0.06
-0.075
-0.075
-0.07
-0.07
-0.075
-0.06
-0.065
-0.055
-0.055
-0.06
-0.04
-0.035
-0.02
0.0
0.005
0.035
0.07
0.1
0.135
0.175
0.2
0.235
0.25
0.225
0.18
0.12
0.07
0.04
0.0
-0.005
-0.02
-0.02
-0.025
-0.025
-0.035
-0.03
-0.03
-0.025
-0.025
-0.035
-0.035
-0.03
-0.045
-0.045
-0.045
-0.045
-0.04
-0.05
-0.055
-0.055
-0.065
-0.065
-0.055
-0.065
-0.07
-0.06
-0.06
-0.065
-0.065
-0.075
-0.07
-0.085
-0.08
-0.085
-0.08
-0.09
-0.085
-0.09
-0.085
-0.105
-0.08
-0.05
-0.02
-0.035
-0.035
-0.045
-0.08
-0.115
-0.11
-0.09
-0.105
-0.115
-0.11
-0.125
-0.105
-0.115
-0.11
-0.12
-0.205
-0.06
0.265
0.95
1.035
0.6
0.265
0.095
-0.015
-0.055
-0.06
-0.08
-0.075
-0.09
-0.08
-0.09
-0.08
-0.08
-0.08
-0.07
-0.07
-0.055
-0.06
-0.05
-0.045
-0.04
-0.01
0.01
0.04
0.075
0.11
0.14
0.18
0.21
0.235
0.22
0.18
0.125
0.075
0.03
0.01
-0.01
-0.01
-0.02
-0.025
-0.025
-0.025
-0.03
-0.03
-0.035
-0.035
-0.035
-0.035
-0.035
-0.045
-0.04
-0.045
-0.05
-0.05
-0.05
-0.055
-0.06
-0.07
-0.065
-0.07
-0.07
-0.07
-0.07
-0.07
-0.065
-0.07
-0.07
-0.065
-0.06
-0.06
-0.065
-0.06
-0.06
-0.07
-0.06
-0.07
-0.07
-0.075
-0.07
-0.08
-0.08
-0.085
-0.09
-0.095
-0.075
-0.04
-0.015
-0.05
-0.04
-0.05
-0.095
-0.12
-0.1
-0.1
-0.11
-0.12
-0.105
-0.105
-0.105
-0.105
-0.095
-0.125
-0.175
-0.025
0.455
1.09
0.965
0.515
0.24
0.06
-0.01
-0.04
-0.055
-0.065
-0.07
-0.075
-0.065
-0.075
-0.065
-0.075
-0.06
-0.065
-0.055
-0.055
-0.045
-0.04
-0.025
-0.015
0.005
0.03
0.06
0.1
0.14
0.175
0.21
0.24
0.26
0.245
0.205
0.145
0.095
0.05
0.015
0.0
-0.01
-0.015
-0.02
-0.02
-0.025
-0.025
-0.025
-0.02
-0.025
-0.025
-0.03
-0.025
-0.035
-0.035
-0.035
-0.04
-0.04
-0.045
-0.035
-0.045
-0.035
-0.035
-0.035
-0.035
-0.035
-0.035
-0.03
-0.035
-0.035
-0.035
-0.025
-0.035
-0.035
-0.035
-0.035
-0.045
-0.045
-0.055
-0.045
-0.055
-0.055
-0.06
-0.06
-0.06
-0.06
-0.07
-0.065
-0.07
-0.075
-0.08
-0.07
-0.085
-0.08
-0.09
-0.075
-0.055
-0.01
-0.015
-0.06
-0.03
-0.07
-0.105
-0.115
-0.1
-0.095
-0.115
-0.12
-0.12
-0.11
-0.12
-0.11
-0.125
-0.2
-0.07
0.235
0.935
1.095
0.635
0.265
0.085
-0.015
-0.055
-0.07
-0.09
-0.085
-0.09
-0.085
-0.09
-0.085
-0.09
-0.075
-0.085
-0.07
-0.065
-0.05
-0.055
-0.035
-0.03
-0.01
0.0
0.04
0.08
0.11
0.14
0.18
0.215
0.24
0.245
0.205
0.15
0.1
0.05
0.015
-0.005
-0.015
-0.015
-0.025
-0.02
-0.015
-0.035
-0.025
-0.025
-0.02
-0.025
-0.02
-0.015
-0.02
-0.025
-0.015
-0.02
-0.015
-0.02
-0.025
-0.02
-0.03
-0.03
-0.03
-0.03
-0.025
-0.035
-0.035
-0.035
-0.03
-0.035
-0.045
-0.04
-0.045
-0.055
-0.05
-0.055
-0.05
-0.045
-0.055
-0.055
-0.06
-0.065
-0.065
-0.06
-0.07
-0.065
-0.07
-0.07
-0.075
-0.085
-0.065
-0.025
-0.01
-0.025
-0.025
-0.03
-0.085
-0.1
-0.095
-0.09
-0.11
-0.11
-0.115
-0.115
-0.11
-0.11
-0.11
-0.165
-0.13
0.03
0.71
1.17
0.785
0.345
0.16
0.005
-0.035
-0.065
-0.07
-0.075
-0.08
-0.075
-0.075
-0.085
-0.08
-0.065
-0.06
-0.055
-0.055
-0.05
-0.045
-0.03
-0.025
-0.005
0.02
0.045
0.07
0.11
0.145
0.185
0.22
0.25
0.255
0.24
0.185
0.125
0.08
0.035
0.01
-0.005
-0.015
-0.02
-0.025
-0.025
-0.025
-0.025
-0.03
-0.03
-0.03
-0.03
-0.035
-0.03
-0.045
-0.045
-0.045
-0.05
-0.05
-0.05
-0.045
-0.055
-0.045
-0.05
-0.05
-0.05
-0.055
-0.05
-0.045
-0.045
-0.055
-0.055
-0.06
-0.055
-0.06
-0.065
-0.07
-0.07
-0.075
-0.075
-0.09
-0.08
-0.09
-0.09
-0.1
-0.08
-0.065
-0.025
-0.03
-0.07
-0.035
-0.075
-0.11
-0.12
-0.095
-0.105
-0.12
-0.105
-0.12
-0.11
-0.115
-0.1
-0.11
-0.2
-0.08
0.195
0.915
1.15
0.715
0.31
0.125
0.005
-0.035
-0.045
-0.065
-0.065
-0.08
-0.075
-0.085
-0.08
-0.085
-0.07
-0.08
-0.065
-0.065
-0.055
-0.05
-0.035
-0.025
-0.01
0.01
0.045
0.08
0.115
0.15
0.19
0.22
0.245
0.235
0.205
0.145
0.095
0.05
0.02
0.0
-0.015
-0.025
-0.02
-0.015
-0.015
-0.005
-0.02
-0.015
-0.01
-0.005
-0.01
-0.015
-0.02
-0.02
-0.025
-0.02
-0.025
-0.025
-0.03
-0.03
-0.03
-0.04
-0.03
-0.03
-0.03
-0.03
-0.03
-0.025
-0.03
-0.035
-0.035
-0.035
-0.035
-0.04
-0.045
-0.045
-0.05
-0.05
-0.055
-0.06
-0.045
-0.075
-0.05
-0.01
0.0
-0.025
-0.015
-0.025
-0.065
-0.09
-0.08
-0.065
-0.08
-0.085
-0.08
-0.08
-0.08
-0.08
-0.075
-0.105
-0.15
-0.005
0.545
1.165
1.0
0.525
0.26
0.08
0.005
-0.02
-0.035
-0.045
-0.055
-0.06
-0.06
-0.06
-0.065
-0.06
-0.055
-0.055
-0.055
-0.05
-0.04
-0.03
-0.015
-0.005
0.02
0.035
0.07
0.11
0.13
0.16
0.195
0.24
0.245
0.22
0.175
0.12
0.065
0.035
0.005
-0.01
-0.01
-0.02
-0.015
-0.025
-0.025
-0.025
-0.03
-0.025
-0.03
-0.03
-0.03
-0.03
-0.035
-0.04
-0.045
-0.04
-0.04
-0.05
-0.055
-0.05
-0.06
-0.065
-0.07
-0.055
-0.07
-0.055
-0.07
-0.07
-0.07
-0.075
-0.075
-0.08
-0.085
-0.08
-0.065
-0.015
-0.02
-0.05
-0.01
-0.05
-0.095
-0.11
-0.085
-0.095
-0.11
-0.105
-0.115
-0.1
-0.105
-0.11
-0.095
-0.14
-0.135
0.035
0.685
1.155
0.795
0.4
0.195
0.05
-0.02
-0.04
-0.07
-0.075
-0.075
-0.08
-0.075
-0.075
-0.08
-0.07
-0.075
-0.075
-0.07
-0.065
-0.06
-0.05
-0.04
-0.025
-0.01
0.01
0.03
0.07
0.095
0.13
0.16
0.185
0.19
0.155
0.115
0.06
0.02
-0.005
-0.025
-0.04
-0.045
-0.045
-0.045
-0.05
-0.055
-0.055
-0.05
-0.06
-0.06
-0.065
-0.07
-0.065
-0.07
-0.075
-0.075
-0.075
-0.08
-0.08
-0.08
-0.085
-0.085
-0.095
-0.085
-0.095
-0.09
-0.095
-0.095
-0.1
-0.095
-0.1
-0.09
-0.1
-0.09
-0.075
-0.04
-0.04
-0.07
-0.065
-0.095
-0.125
-0.135
-0.115
-0.12
-0.135
-0.125
-0.14
-0.12
-0.135
-0.12
-0.125
-0.19
-0.095
0.13
0.83
1.115
0.7
0.29
0.125
-0.01
-0.04
-0.055
-0.075
-0.07
-0.08
-0.08
-0.085
-0.07
-0.08
-0.07
-0.075
-0.07
-0.07
-0.055
-0.05
-0.045
-0.03
-0.005
0.015
0.045
0.07
0.115
0.155
0.19
0.22
0.24
0.225
0.18
0.13
0.07
0.035
0.0
-0.015
-0.03
-0.03
-0.035
-0.035
-0.035
-0.04
-0.04
-0.035
-0.04
-0.04
-0.04
-0.035
-0.04
-0.04
-0.045
-0.05
-0.045
-0.055
-0.055
-0.055
-0.065
-0.06
-0.06
-0.06
-0.06
-0.065
-0.065
-0.065
-0.07
-0.07
-0.075
-0.065
-0.08
-0.075
-0.085
-0.09
-0.09
-0.085
-0.095
-0.09
-0.105
-0.085
-0.05
-0.025
-0.04
-0.055
-0.055
-0.095
-0.12
-0.105
-0.095
-0.12
-0.13
-0.115
-0.125
-0.115
-0.13
-0.11
-0.12
-0.185
-0.1
0.1
0.825
1.155
0.735
0.3
0.125
0.0
-0.04
-0.055
-0.08
-0.08
-0.095
-0.085
-0.09
-0.085
-0.085
-0.075
-0.07
-0.07
-0.07
-0.045
-0.055
-0.03
-0.025
0.0
0.015
0.045
0.075
0.125
0.145
0.185
0.22
0.235
0.23
0.195
0.14
0.09
0.04
0.015
0.0
-0.015
-0.015
-0.015
-0.02
-0.025
-0.025
-0.025
-0.02
-0.02
-0.025
-0.02
-0.015
-0.015
-0.015
-0.02
-0.025
-0.02
-0.025
-0.02
-0.025
-0.025
-0.03
-0.03
-0.02
-0.025
-0.02
-0.03
-0.025
-0.03
-0.035
-0.035
-0.03
-0.03
-0.035
-0.045
-0.04
-0.05
-0.04
-0.045
-0.055
-0.06
-0.055
-0.065
-0.065
-0.075
-0.065
-0.08
-0.08
-0.085
-0.095
-0.09
-0.085
-0.1
-0.095
-0.105
-0.095
-0.105
-0.09
-0.08
-0.03
-0.03
-0.08
-0.03
-0.07
-0.105
-0.12
-0.095
-0.105
-0.125
-0.11
-0.13
-0.11
-0.125
-0.11
-0.115
-0.18
-0.1
0.095
0.795
1.175
0.745
0.315
0.135
0.0
-0.03
-0.055
-0.075
-0.075
-0.075
-0.07
-0.075
-0.07
-0.07
-0.065
-0.06
-0.05
-0.05
-0.045
-0.035
-0.02
-0.01
0.005
0.02
0.055
0.09
0.115
0.145
0.185
0.22
0.245
0.25
0.22
0.17
0.105
0.06
0.025
0.0
-0.01
-0.02
-0.025
-0.02
-0.03
-0.03
-0.02
-0.02
-0.025
-0.025
-0.025
-0.025
-0.025
-0.03
-0.035
-0.035
-0.035
-0.035
-0.03
-0.045
-0.035
-0.04
-0.04
-0.03
-0.04
-0.04
-0.035
-0.035
-0.04
-0.04
-0.045
-0.04
-0.04
-0.045
-0.05
-0.055
-0.055
-0.05
-0.06
-0.065
-0.07
-0.07
-0.075
-0.08
-0.09
-0.075
-0.09
-0.085
-0.095
-0.09
-0.1
-0.085
-0.045
-0.02
-0.04
-0.045
-0.05
-0.09
-0.115
-0.1
-0.1
-0.105
-0.125
-0.115
-0.115
-0.105
-0.12
-0.1
-0.125
-0.2
-0.055
0.295
1.0
1.08
0.625
0.265
0.08
-0.005
-0.045
-0.055
-0.065
-0.07
-0.075
-0.07
-0.075
-0.07
-0.06
-0.05
-0.055
-0.05
-0.05
-0.035
-0.03
-0.01
-0.005
0.02
0.04
0.065
0.1
0.14
0.16
0.2
0.235
0.24
0.235
0.185
0.13
0.085
0.04
0.01
0.0
-0.015
-0.015
-0.025
-0.025
-0.03
-0.025
-0.025
-0.02
-0.025
-0.025
-0.02
-0.03
-0.025
-0.03
-0.03
-0.03
-0.03
-0.04
-0.035
-0.035
-0.04
-0.035
-0.04
-0.04
-0.045
-0.035
-0.045
-0.045
-0.04
-0.05
-0.045
-0.045
-0.05
-0.05
-0.055
-0.055
-0.06
-0.06
-0.06
-0.07
-0.07
-0.07
-0.07
-0.08
-0.08
-0.08
-0.08
-0.09
-0.085
-0.095
-0.08
-0.04
-0.02
-0.045
-0.03
-0.065
-0.09
-0.115
-0.095
-0.095
-0.11
-0.125
-0.115
-0.12
-0.115
-0.12
-0.105
-0.12
-0.205
-0.065
0.275
0.985
1.095
0.625
0.265
0.085
-0.01
-0.045
-0.06
-0.075
-0.075
-0.075
-0.07
-0.07
-0.065
-0.07
-0.06
-0.055
-0.05
-0.05
-0.035
-0.035
-0.02
-0.01
0.005
0.025
0.07
0.1
0.13
0.155
0.2
0.235
0.25
0.235
0.19
0.135
0.085
0.045
0.015
-0.005
-0.015
-0.02
-0.02
-0.015
-0.03
-0.02
-0.025
-0.025
-0.02
-0.02
-0.03
-0.02
-0.025
-0.03
-0.025
-0.03
-0.03
-0.03
-0.035
-0.03
-0.035
-0.035
-0.03
-0.03
-0.03
-0.035
-0.035
-0.025
-0.035
-0.04
-0.035
-0.035
-0.04
-0.04
-0.04
-0.045
-0.045
-0.05
-0.05
-0.055
-0.055
-0.065
-0.075
-0.075
-0.075
-0.08
-0.08
-0.085
-0.08
-0.095
-0.095
-0.105
-0.075
-0.06
-0.025
-0.04
-0.045
-0.05
-0.08
-0.11
-0.1
-0.085
-0.105
-0.12
-0.11
-0.115
-0.1
-0.12
-0.105
-0.12
-0.2
-0.06
0.265
0.975
1.115
0.66
0.28
0.095
0.005
-0.045
-0.045
-0.065
-0.065
-0.07
-0.06
-0.065
-0.055
-0.065
-0.055
-0.05
-0.045
-0.045
-0.035
-0.025
-0.01
-0.005
0.015
0.035
0.075
0.1
0.135
0.17
0.205
0.24
0.25
0.235
0.2
0.145
0.1
0.05
0.015
0.0
-0.015
-0.015
-0.015
-0.02
-0.02
-0.02
-0.025
-0.02
-0.02
-0.03
-0.03
-0.025
-0.035
-0.035
-0.03
-0.04
-0.04
-0.04
-0.045
-0.05
-0.04
-0.045
-0.05
-0.05
-0.045
-0.05
-0.05
-0.055
-0.05
-0.055
-0.06
-0.055
-0.06
-0.065
-0.055
-0.065
-0.055
-0.08
-0.07
-0.075
-0.075
-0.08
-0.08
-0.085
-0.075
-0.065
-0.025
-0.01
-0.055
-0.02
-0.06
-0.09
-0.11
-0.085
-0.095
-0.12
-0.1
-0.115
-0.1
-0.11
-0.1
-0.105
-0.175
-0.105
0.09
0.775
1.16
0.75
0.345
0.165
0.015
-0.03
-0.035
-0.065
-0.055
-0.075
-0.07
-0.07
-0.065
-0.065
-0.065
-0.06
-0.05
-0.05
-0.045
-0.05
-0.035
-0.02
0.0
0.015
0.03
0.06
0.1
0.135
0.17
0.2
0.23
0.22
0.19
0.15
0.1
0.03
0.01
-0.005
-0.02
-0.025
-0.03
-0.03
-0.035
-0.02
-0.035
-0.02
-0.035
-0.035
-0.035
-0.04
-0.04
-0.05
-0.05
-0.045
-0.05
-0.06
-0.045
-0.06
-0.065
-0.065
-0.06
-0.065
-0.065
-0.075
-0.07
-0.08
-0.07
-0.08
-0.075
-0.09
-0.075
-0.09
-0.085
-0.1
-0.09
-0.1
-0.075
-0.06
-0.025
-0.015
-0.05
-0.03
-0.07
-0.1
-0.095
-0.085
-0.1
-0.12
-0.115
-0.12
-0.105
-0.115
-0.1
-0.105
-0.19
-0.055
0.23
0.905
1.055
0.625
0.285
0.125
0.005
-0.035
-0.055
-0.065
-0.065
-0.075
-0.07
-0.075
-0.065
-0.07
-0.06
-0.07
-0.05
-0.06
-0.045
-0.04
-0.03
-0.015
0.005
0.025
0.05
0.08
0.115
0.15
0.175
0.21
0.23
0.215
0.18
0.125
0.08
0.035
0.0
-0.01
-0.015
-0.025
-0.02
-0.035
-0.035
-0.04
-0.035
-0.04
-0.04
-0.035
-0.045
-0.04
-0.04
-0.05
-0.04
-0.05
-0.05
-0.055
-0.06
-0.055
-0.06
-0.055
-0.055
-0.065
-0.065
-0.075
-0.07
-0.07
-0.075
-0.075
-0.085
-0.075
-0.075
-0.075
-0.08
-0.085
-0.095
-0.09
-0.095
-0.095
-0.095
-0.075
-0.025
-0.01
-0.04
-0.03
-0.055
-0.09
-0.125
-0.1
-0.105
-0.115
-0.125
-0.115
-0.12
-0.12
-0.12
-0.11
-0.13
-0.175
-0.03
0.415
1.045
0.925
0.495
0.225
0.04
-0.025
-0.055
-0.065
-0.08
-0.08
-0.09
-0.08
-0.085
-0.08
-0.075
-0.07
-0.07
-0.065
-0.055
-0.055
-0.05
-0.03
-0.015
0.005
0.035
0.07
0.09
0.13
0.165
0.2
0.24
0.24
0.22
0.175
0.125
0.07
0.03
0.005
-0.005
-0.005
-0.01
-0.015
-0.015
-0.02
-0.015
-0.015
-0.02
-0.015
-0.02
-0.025
-0.025
-0.02
-0.025
-0.025
-0.025
-0.025
-0.03
-0.03
-0.03
-0.025
-0.03
-0.03
-0.035
-0.04
-0.035
-0.04
-0.025
-0.03
-0.03
-0.035
-0.03
-0.035
-0.035
-0.035
-0.035
-0.04
-0.045
-0.055
-0.06
-0.06
-0.06
-0.07
-0.075
-0.075
-0.08
-0.085
-0.085
-0.09
-0.095
-0.095
-0.105
-0.105
-0.11
-0.09
-0.04
-0.02
-0.065
-0.02
-0.065
-0.1
-0.125
-0.09
-0.1
-0.11
-0.12
-0.11
-0.12
-0.11
-0.105
-0.105
-0.115
-0.195
-0.055
0.22
0.93
1.105
0.645
0.265
0.085
-0.015
-0.045
-0.06
-0.08
-0.07
-0.085
-0.075
-0.075
-0.07
-0.075
-0.065
-0.065
-0.055
-0.055
-0.045
-0.035
-0.02
-0.01
0.015
0.03
0.065
0.095
0.135
0.165
0.21
0.23
0.255
0.245
0.195
0.15
0.085
0.05
0.02
0.0
-0.015
-0.015
-0.025
-0.025
-0.02
-0.02
-0.025
-0.02
-0.025
-0.025
-0.02
-0.03
-0.025
-0.03
-0.03
-0.035
-0.03
-0.035
-0.04
-0.04
-0.045
-0.045
-0.045
-0.04
-0.045
-0.045
-0.05
-0.05
-0.05
-0.055
-0.05
-0.05
-0.05
-0.055
-0.055
-0.055
-0.065
-0.065
-0.075
-0.07
-0.075
-0.08
-0.08
-0.075
-0.08
-0.09
-0.09
-0.095
-0.085
-0.06
-0.025
-0.015
-0.06
-0.03
-0.075
-0.1
-0.115
-0.085
-0.105
-0.11
-0.115
-0.115
-0.105
-0.11
-0.115
-0.11
-0.125
-0.195
-0.03
0.44
1.1
0.99
0.52
0.23
0.05
-0.015
-0.045
-0.055
-0.07
-0.07
-0.075
-0.065
-0.075
-0.07
-0.065
-0.06
-0.055
-0.045
-0.05
-0.03
-0.025
-0.01
0.0
0.02
0.05
0.08
0.11
0.15
0.18
0.215
0.245
0.245
0.22
0.175
0.11
0.065
0.025
0.0
-0.015
-0.02
-0.025
-0.03
-0.025
-0.035
-0.03
-0.025
-0.015
-0.03
-0.025
-0.025
-0.035
-0.025
-0.035
-0.035
-0.035
-0.04
-0.04
-0.045
-0.045
-0.045
-0.04
-0.035
-0.045
-0.045
-0.045
-0.045
-0.045
-0.055
-0.05
-0.055
-0.06
-0.06
-0.06
-0.06
-0.07
-0.075
-0.075
-0.075
-0.075
-0.075
-0.085
-0.08
-0.09
-0.085
-0.085
-0.085
-0.09
-0.08
-0.035
-0.015
-0.035
-0.03
-0.045
-0.09
-0.115
-0.095
-0.095
-0.11
-0.125
-0.12
-0.115
-0.11
-0.115
-0.115
-0.11
-0.155
-0.15
0.0
0.635
1.19
0.875
0.41
0.19
0.02
-0.025
-0.05
-0.07
-0.07
-0.075
-0.08
-0.075
-0.07
-0.065
-0.06
-0.055
-0.045
-0.045
-0.035
-0.035
-0.015
-0.015
0.0
0.03
0.06
0.085
0.13
0.16
0.19
0.225
0.245
0.24
0.205
0.15
0.095
0.045
0.015
0.0
-0.02
-0.02
-0.025
-0.035
-0.03
-0.03
-0.035
-0.035
-0.025
-0.03
-0.03
-0.035
-0.03
-0.02
-0.025
-0.025
-0.03
-0.03
-0.03
-0.03
-0.03
-0.04
-0.035
-0.04
-0.035
-0.04
-0.035
-0.035
-0.04
-0.045
-0.04
-0.05
-0.05
-0.045
-0.05
-0.06
-0.055
-0.06
-0.06
-0.065
-0.06
-0.07
-0.07
-0.08
-0.07
-0.075
-0.08
-0.09
-0.085
-0.085
-0.07
-0.04
-0.015
-0.015
-0.03
-0.03
-0.07
-0.105
-0.09
-0.085
-0.1
-0.11
-0.11
-0.11
-0.105
-0.11
-0.095
-0.11
-0.16
-0.125
0.025
0.7
1.21
0.855
0.385
0.175
0.015
-0.03
-0.04
-0.06
-0.065
-0.065
-0.065
-0.065
-0.06
-0.055
-0.06
-0.025
-0.03
-0.025
-0.03
-0.03
-0.035
-0.04
-0.045
-0.05
-0.045
-0.05
-0.055
-0.06
-0.06
-0.07
-0.065
-0.065
-0.065
-0.07
-0.075
-0.08
-0.08
-0.08
-0.07
-0.05
-0.035
-0.055
-0.095
-0.07
-0.12
-0.115
-0.1
-0.08
-0.08
-0.085
-0.085
-0.08
-0.075
-0.075
-0.07
-0.07
-0.065
-0.065
-0.075
-0.01
0.06
0.38
0.85
0.605
0.325
0.225
0.055
0.015
-0.005
-0.02
-0.03
-0.035
-0.035
-0.035
-0.04
-0.035
-0.03
-0.03
-0.025
-0.03
-0.02
-0.015
-0.015
-0.015
0.0
0.005
0.015
0.03
0.05
0.075
0.1
0.12
0.13
0.125
0.105
0.07
0.04
0.01
0.0
-0.01
-0.015
-0.015
-0.015
-0.015
-0.01
-0.01
-0.015
-0.01
-0.005
-0.005
-0.01
-0.01
-0.015
-0.015
-0.02
-0.025
-0.03
-0.035
-0.035
-0.04
-0.04
-0.045
-0.045
-0.05
-0.05
-0.055
-0.06
-0.065
-0.06
-0.07
-0.07
-0.07
-0.07
-0.08
-0.075
-0.08
-0.065
-0.035
-0.07
-0.1
-0.06
-0.125
-0.14
-0.115
-0.085
-0.085
-0.09
-0.09
-0.08
-0.08
-0.075
-0.08
-0.07
-0.075
-0.07
-0.075
-0.06
0.055
0.245
0.77
0.675
0.395
0.245
0.055
0.02
-0.005
-0.02
-0.03
-0.03
-0.04
-0.035
-0.04
-0.03
-0.035
-0.03
-0.025
-0.02
-0.02
-0.01
-0.015
-0.005
0.0
0.01
0.025
0.045
0.06
0.085
0.105
0.135
0.155
0.155
0.125
0.1
0.055
0.02
0.0
-0.015
-0.02
-0.02
-0.02
-0.025
-0.02
-0.015
-0.015
-0.015
-0.015
-0.015
-0.015
-0.02
-0.015
-0.025
-0.025
-0.035
-0.035
-0.035
-0.04
-0.05
-0.05
-0.05
-0.055
-0.065
-0.06
-0.07
-0.065
-0.07
-0.07
-0.075
-0.075
-0.075
-0.075
-0.085
-0.06
-0.045
-0.055
-0.075
-0.09
-0.095
-0.125
-0.115
-0.095
-0.075
-0.08
-0.095
-0.08
-0.08
-0.075
-0.085
-0.07
-0.075
-0.06
-0.07
-0.095
0.04
0.075
0.54
0.85
0.53
0.285
0.18
0.035
0.005
0.0
-0.025
-0.03
-0.035
-0.03
-0.04
-0.03
-0.04
-0.035
-0.04
-0.03
-0.03
-0.03
-0.025
-0.02
-0.015
-0.01
0.0
0.01
0.02
0.045
0.065
0.08
0.105
0.12
0.1
0.085
0.055
0.025
0.005
-0.01
-0.02
-0.025
-0.015
-0.015
-0.025
-0.015
-0.02
-0.015
-0.02
-0.02
-0.01
-0.03
-0.03
-0.03
-0.04
-0.04
-0.04
-0.045
-0.045
-0.055
-0.055
-0.06
-0.06
-0.07
-0.065
-0.07
-0.065
-0.07
-0.07
-0.08
-0.075
-0.085
-0.06
-0.045
-0.055
-0.075
-0.09
-0.095
-0.125
-0.12
-0.095
-0.09
-0.09
-0.095
-0.08
-0.08
-0.075
-0.08
-0.065
-0.08
-0.065
-0.055
-0.075
0.055
0.09
0.545
0.855
0.52
0.285
0.175
0.035
0.01
0.0
-0.02
-0.02
-0.025
-0.025
-0.03
-0.025
-0.025
-0.025
-0.025
-0.02
-0.02
-0.02
-0.02
-0.01
-0.005
0.0
0.01
0.025
0.035
0.055
0.075
0.1
0.12
0.125
0.11
0.085
0.055
0.025
0.005
-0.005
-0.01
-0.02
-0.02
-0.02
-0.02
-0.015
-0.015
-0.015
-0.015
-0.015
-0.015
-0.015
-0.02
-0.025
-0.025
-0.025
-0.03
-0.03
-0.03
-0.035
-0.04
-0.045
-0.045
-0.05
-0.05
-0.055
-0.055
-0.055
-0.055
-0.06
-0.06
-0.06
-0.065
-0.065
-0.07
-0.07
-0.07
-0.07
-0.035
-0.075
-0.115
-0.06
-0.115
-0.13
-0.105
-0.085
-0.08
-0.08
-0.08
-0.075
-0.075
-0.075
-0.07
-0.065
-0.065
-0.06
-0.07
-0.005
0.06
0.37
0.85
0.615
0.34
0.21
0.045
0.015
-0.005
-0.015
-0.025
-0.03
-0.03
-0.03
-0.03
-0.03
-0.025
-0.025
-0.025
-0.02
-0.02
-0.01
-0.005
0.0
0.005
0.02
0.035
0.055
0.07
0.1
0.12
0.15
0.16
0.155
0.125
0.085
0.045
0.015
0.0
-0.01
-0.02
-0.02
-0.025
-0.03
-0.025
-0.02
-0.02
-0.02
-0.015
-0.02
-0.015
-0.02
-0.025
-0.02
-0.025
-0.035
-0.035
-0.04
-0.04
-0.045
-0.045
-0.045
-0.05
-0.055
-0.055
-0.06
-0.05
-0.06
-0.06
-0.065
-0.055
-0.07
-0.065
-0.08
-0.06
-0.045
-0.075
-0.085
-0.09
-0.1
-0.125
-0.11
-0.095
-0.075
-0.075
-0.08
-0.065
-0.07
-0.055
-0.07
-0.055
-0.065
-0.05
-0.06
-0.06
0.07
0.17
0.69
0.76
0.455
0.265
0.1
0.025
0.0
-0.01
-0.02
-0.03
-0.04
-0.035
-0.04
-0.03
-0.035
-0.025
-0.03
-0.025
-0.03
-0.025
-0.02
-0.015
-0.01
0.005
0.01
0.04
0.045
0.07
0.085
0.11
0.13
0.13
0.115
0.075
0.05
0.02
0.0
-0.01
-0.025
-0.04
-0.025
-0.03
-0.035
-0.035
-0.03
-0.03
-0.03
-0.035
-0.035
-0.035
-0.035
-0.04
-0.04
-0.05
-0.05
-0.055
-0.055
-0.06
-0.06
-0.065
-0.07
-0.075
-0.065
-0.075
-0.075
-0.08
-0.075
-0.085
-0.07
-0.075
-0.055
-0.085
-0.13
-0.08
-0.13
-0.14
-0.11
-0.09
-0.085
-0.095
-0.085
-0.085
-0.08
-0.085
-0.075
-0.08
-0.07
-0.075
-0.085
0.035
0.06
0.495
0.84
0.52
0.28
0.16
0.02
0.0
-0.015
-0.03
-0.03
-0.04
-0.04
-0.045
-0.04
-0.045
-0.045
-0.045
-0.035
-0.035
-0.03
-0.025
-0.02
-0.015
-0.01
0.0
0.015
0.035
0.045
0.075
0.1
0.115
0.125
0.105
0.075
0.045
0.015
-0.005
-0.015
-0.025
-0.025
-0.03
-0.03
-0.03
-0.02
-0.025
-0.025
-0.025
-0.03
-0.03
-0.025
-0.035
-0.04
-0.04
-0.045
-0.05
-0.055
-0.065
-0.065
-0.07
-0.065
-0.07
-0.07
-0.07
-0.075
-0.075
-0.075
-0.08
-0.08
-0.085
-0.07
-0.045
-0.095
-0.11
-0.09
-0.13
-0.15
-0.12
-0.11
-0.085
-0.09
-0.085
-0.085
-0.08
-0.075
-0.075
-0.07
-0.065
-0.06
-0.075
0.005
0.05
0.405
0.835
0.585
0.315
0.19
0.04
0.01
-0.005
-0.015
-0.03
-0.035
-0.04
-0.035
-0.035
-0.035
-0.035
-0.03
-0.025
-0.025
-0.02
-0.015
-0.01
-0.005
0.0
0.015
0.03
0.05
0.07
0.095
0.12
0.14
0.15
0.125
0.095
0.055
0.02
-0.005
-0.02
-0.03
-0.035
-0.035
-0.035
-0.03
-0.03
-0.025
-0.03
-0.025
-0.025
-0.025
-0.03
-0.03
-0.035
-0.03
-0.035
-0.04
-0.05
-0.05
-0.06
-0.06
-0.07
-0.07
-0.075
-0.065
-0.075
-0.075
-0.085
-0.06
-0.05
-0.065
-0.08
-0.1
-0.105
-0.135
-0.115
-0.09
-0.085
-0.085
-0.095
-0.07
-0.075
-0.06
-0.075
-0.06
-0.07
-0.055
-0.07
-0.075
0.075
0.125
0.625
0.8
0.48
0.275
0.125
0.025
-0.005
-0.015
-0.03
-0.025
-0.04
-0.035
-0.04
-0.035
-0.04
-0.04
-0.045
-0.035
-0.035
-0.03
-0.025
-0.02
-0.02
-0.005
0.0
0.015
0.03
0.05
0.065
0.085
0.1
0.1
0.08
0.055
0.025
0.005
-0.015
-0.02
-0.03
-0.03
-0.03
-0.025
-0.03
-0.03
-0.025
-0.02
-0.025
-0.025
-0.025
-0.03
-0.03
-0.035
-0.035
-0.045
-0.045
-0.05
-0.05
-0.06
-0.055
-0.06
-0.06
-0.065
-0.06
-0.065
-0.07
-0.075
-0.045
-0.035
-0.05
-0.065
-0.08
-0.095
-0.125
-0.11
-0.085
-0.075
-0.07
-0.08
-0.065
-0.065
-0.06
-0.065
-0.055
-0.06
-0.06
-0.06
-0.075
0.06
0.095
0.555
0.835
0.53
0.295
0.135
0.03
0.01
-0.005
-0.02
-0.015
-0.025
-0.025
-0.03
-0.025
-0.025
-0.02
-0.02
-0.015
-0.015
-0.01
-0.005
0.0
0.0
0.015
0.025
0.04
0.06
0.08
0.1
0.13
0.145
0.145
0.12
0.09
0.05
0.02
0.0
-0.01
-0.02
-0.025
-0.025
-0.025
-0.025
-0.025
-0.025
-0.02
-0.015
-0.015
-0.015
-0.015
-0.015
-0.02
-0.03
-0.03
-0.035
-0.04
-0.04
-0.045
-0.045
-0.05
-0.05
-0.06
-0.055
-0.06
-0.06
-0.07
-0.065
-0.075
-0.045
-0.04
-0.055
-0.075
-0.05
-0.11
-0.12
-0.105
-0.08
-0.075
-0.08
-0.08
-0.07
-0.07
-0.06
-0.07
-0.06
-0.06
-0.055
-0.06
-0.06
0.07
0.16
0.685
0.775
0.48
0.28
0.1
0.03
0.005
-0.005
-0.02
-0.02
-0.025
-0.025
-0.03
-0.025
-0.025
-0.02
-0.02
-0.02
-0.02
-0.01
-0.01
0.0
0.0
0.015
0.025
0.045
0.06
0.085
0.11
0.135
0.145
0.145
0.115
0.08
0.05
0.015
0.0
-0.01
-0.015
-0.02
-0.02
-0.02
-0.015
-0.015
-0.015
-0.015
-0.01
-0.01
-0.01
-0.01
-0.015
-0.02
-0.02
-0.025
-0.025
-0.03
-0.035
-0.04
-0.045
-0.05
-0.05
-0.05
-0.055
-0.055
-0.055
-0.06
-0.06
-0.065
-0.07
-0.035
-0.03
-0.045
-0.075
-0.04
-0.105
-0.105
-0.095
-0.065
-0.07
-0.07
-0.07
-0.065
-0.06
-0.055
-0.06
-0.055
-0.06
-0.05
-0.055
-0.04
0.075
0.245
0.78
0.715
0.425
0.26
0.065
0.025
0.0
-0.01
-0.025
-0.025
-0.03
-0.025
-0.03
-0.025
-0.025
-0.02
-0.02
-0.015
-0.015
-0.01
-0.015
-0.005
0.0
0.01
0.02
0.045
0.06
0.085
0.1
0.13
0.14
0.13
0.105
0.07
0.03
0.0
-0.02
-0.02
-0.025
-0.03
-0.035
-0.03
-0.035
-0.03
-0.03
-0.03
-0.03
-0.025
-0.02
-0.02
-0.02
-0.035
-0.025
-0.03
-0.04
-0.045
-0.04
-0.045
-0.05
-0.05
-0.05
-0.055
-0.06
-0.065
-0.07
-0.065
-0.07
-0.07
-0.075
-0.07
-0.035
-0.035
-0.035
-0.065
-0.035
-0.095
-0.11
-0.11
-0.075
-0.08
-0.085
-0.085
-0.07
-0.07
-0.07
-0.08
-0.07
-0.07
-0.06
-0.06
-0.085
0.075
0.145
0.655
0.795
0.465
0.265
0.13
0.02
0.0
-0.01
-0.03
-0.03
-0.04
-0.025
-0.04
-0.035
-0.04
-0.035
-0.035
-0.03
-0.035
-0.03
-0.02
-0.01
-0.015
-0.005
0.0
0.015
0.025
0.045
0.06
0.085
0.1
0.1
0.085
0.06
0.035
0.01
-0.01
-0.015
-0.025
-0.025
-0.025
-0.03
-0.03
-0.025
-0.03
-0.025
-0.025
-0.025
-0.03
-0.03
-0.03
-0.03
-0.035
-0.035
-0.04
-0.045
-0.05
-0.05
-0.055
-0.055
-0.06
-0.055
-0.06
-0.065
-0.065
-0.065
-0.07
-0.07
-0.075
-0.07
-0.035
-0.025
-0.03
-0.075
-0.05
-0.1
-0.105
-0.105
-0.075
-0.09
-0.09
-0.09
-0.085
-0.085
-0.08
-0.085
-0.07
-0.075
-0.07
-0.07
-0.075
0.07
0.16
0.67
0.75
0.44
0.265
0.095
0.015
-0.005
-0.015
-0.03
-0.03
-0.035
-0.035
-0.035
-0.035
-0.03
-0.03
-0.035
-0.025
-0.025
-0.015
-0.015
-0.01
0.0
0.005
0.015
0.03
0.05
0.065
0.09
0.115
0.135
0.135
0.11
0.08
0.04
0.015
-0.005
-0.015
-0.02
-0.025
-0.025
-0.025
-0.025
-0.02
-0.02
-0.02
-0.015
-0.015
-0.015
-0.02
-0.02
-0.025
-0.03
-0.03
-0.03
-0.035
-0.04
-0.045
-0.045
-0.05
-0.05
-0.055
-0.05
-0.055
-0.06
-0.065
-0.065
-0.07
-0.07
-0.07
-0.075
-0.075
-0.08
-0.045
-0.035
-0.04
-0.075
-0.04
-0.105
-0.11
-0.115
-0.075
-0.08
-0.09
-0.085
-0.08
-0.085
-0.075
-0.075
-0.065
-0.07
-0.065
-0.065
-0.08
0.06
0.12
0.625
0.8
0.495
0.275
0.105
0.02
0.0
-0.015
-0.03
-0.03
-0.035
-0.04
-0.04
-0.035
-0.035
-0.03
-0.03
-0.03
-0.03
-0.02
-0.015
-0.005
0.0
0.01
0.025
0.045
0.065
0.085
0.105
0.135
0.15
0.155
0.13
0.095
0.06
0.025
0.005
-0.005
-0.01
-0.015
-0.02
-0.02
-0.02
-0.02
-0.02
-0.015
-0.01
-0.01
-0.01
-0.015
-0.015
-0.02
-0.02
-0.025
-0.03
-0.035
-0.04
-0.04
-0.045
-0.045
-0.05
-0.05
-0.055
-0.055
-0.06
-0.055
-0.06
-0.06
-0.065
-0.065
-0.07
-0.07
-0.08
-0.055
-0.025
-0.025
-0.05
-0.035
-0.075
-0.1
-0.1
-0.07
-0.065
-0.075
-0.08
-0.07
-0.07
-0.065
-0.07
-0.065
-0.065
-0.06
-0.065
-0.08
0.055
0.105
0.595
0.83
0.52
0.28
0.12
0.025
0.0
-0.01
-0.025
-0.025
-0.04
-0.035
-0.04
-0.035
-0.035
-0.035
-0.035
-0.03
-0.025
-0.02
-0.015
-0.01
-0.005
0.005
0.015
0.03
0.05
0.065
0.09
0.12
0.14
0.145
0.12
0.09
0.055
0.025
0.0
-0.01
-0.015
-0.02
-0.02
-0.02
-0.02
-0.02
-0.015
-0.015
-0.015
-0.02
-0.015
-0.015
-0.015
-0.02
-0.025
-0.025
-0.025
-0.03
-0.03
-0.035
-0.035
-0.035
-0.035
-0.045
-0.04
-0.045
-0.05
-0.05
-0.05
-0.06
-0.055
-0.06
-0.06
-0.065
-0.065
-0.04
-0.025
-0.025
-0.06
-0.025
-0.085
-0.1
-0.1
-0.065
-0.065
-0.08
-0.075
-0.075
-0.07
-0.065
-0.065
-0.06
-0.06
-0.06
-0.065
-0.03
0.055
0.315
0.82
0.67
0.375
0.24
0.055
0.02
0.0
-0.015
-0.035
-0.035
-0.035
-0.035
-0.04
-0.03
-0.03
-0.025
-0.025
-0.025
-0.02
-0.025
-0.015
-0.01
-0.005
0.005
0.025
0.04
0.055
0.075
0.1
0.12
0.14
0.135
0.1
0.07
0.035
0.0
-0.01
-0.015
-0.025
-0.03
-0.03
-0.03
-0.03
-0.02
-0.02
-0.025
-0.02
-0.02
-0.025
-0.03
-0.03
-0.025
-0.035
-0.035
-0.035
-0.035
-0.05
-0.05
-0.055
-0.05
-0.065
-0.06
-0.055
-0.065
-0.08
-0.07
-0.075
-0.065
-0.035
-0.02
-0.03
-0.06
-0.04
-0.1
-0.105
-0.1
-0.07
-0.075
-0.085
-0.085
-0.085
-0.08
-0.09
-0.07
-0.07
-0.065
-0.065
-0.09
0.0
0.06
0.435
0.875
0.575
0.31
0.215
0.045
0.01
-0.015
-0.035
-0.04
-0.045
-0.055
-0.045
-0.04
-0.045
-0.045
-0.055
-0.045
-0.045
-0.045
-0.04
-0.04
-0.025
-0.025
-0.015
-0.005
0.0
0.015
0.035
0.055
0.08
0.09
0.085
0.065
0.04
0.015
-0.005
-0.015
-0.025
-0.03
-0.03
-0.035
-0.03
-0.03
-0.025
-0.03
-0.035
-0.035
-0.035
-0.035
-0.035
-0.04
-0.04
-0.045
-0.045
-0.055
-0.055
-0.06
-0.055
-0.06
-0.06
-0.07
-0.065
-0.075
-0.07
-0.075
-0.06
-0.02
-0.01
-0.025
-0.025
-0.065
-0.085
-0.095
-0.08
-0.07
-0.08
-0.085
-0.08
-0.085
-0.075
-0.08
-0.075
-0.075
-0.065
-0.07
-0.075
0.065
0.135
0.62
0.775
0.455
0.27
0.1
0.01
-0.01
-0.015
-0.035
-0.035
-0.04
-0.035
-0.045
-0.035
-0.035
-0.035
-0.035
-0.03
-0.025
-0.02
-0.025
-0.01
-0.01
0.0
0.01
0.025
0.045
0.065
0.09
0.115
0.135
0.14
0.115
0.08
0.045
0.015
-0.005
-0.02
-0.03
-0.04
-0.035
-0.045
-0.035
-0.035
-0.035
-0.035
-0.03
-0.03
-0.03
-0.035
-0.035
-0.04
-0.04
-0.045
-0.045
-0.05
-0.05
-0.06
-0.055
-0.065
-0.055
-0.065
-0.065
-0.075
-0.07
-0.08
-0.065
-0.04
-0.035
-0.055
-0.07
-0.065
-0.105
-0.12
-0.09
-0.08
-0.075
-0.085
-0.075
-0.08
-0.07
-0.075
-0.07
-0.07
-0.06
-0.07
-0.045
0.06
0.23
0.75
0.685
0.405
0.25
0.055
0.015
-0.005
-0.015
-0.035
-0.03
-0.035
-0.03
-0.04
-0.035
-0.035
-0.03
-0.03
-0.03
-0.02
-0.02
-0.015
-0.005
0.0
0.015
0.025
0.04
0.06
0.085
0.105
0.13
0.14
0.135
0.1
0.07
0.03
0.005
-0.01
-0.025
-0.03
-0.035
-0.035
-0.035
-0.03
-0.03
-0.03
-0.03
-0.025
-0.03
-0.03
-0.035
-0.035
-0.035
-0.035
-0.055
-0.055
-0.055
-0.055
-0.065
-0.065
-0.065
-0.065
-0.075
-0.075
-0.07
-0.06
-0.055
-0.045
-0.06
-0.075
-0.06
-0.105
-0.115
-0.1
-0.08
-0.075
-0.09
-0.075
-0.075
-0.065
-0.075
-0.055
-0.07
-0.06
-0.065
-0.07
0.07
0.17
0.675
0.745
0.45
0.26
0.095
0.025
0.0
-0.015
-0.025
-0.03
-0.04
-0.035
-0.035
-0.035
-0.035
-0.025
-0.04
-0.035
-0.03
-0.02
-0.025
-0.015
-0.01
0.0
0.015
0.025
0.035
0.055
0.075
0.1
0.115
0.115
0.09
0.06
0.03
0.0
-0.015
-0.02
-0.035
-0.035
-0.025
-0.03
-0.035
-0.035
-0.02
-0.04
-0.03
-0.025
-0.03
-0.03
-0.035
-0.045
-0.04
-0.04
-0.05
-0.055
-0.06
-0.06
-0.06
-0.06
-0.055
-0.075
-0.05
-0.005
-0.015
-0.025
-0.015
-0.05
-0.085
-0.1
-0.06
-0.065
-0.085
-0.085
-0.06
-0.075
-0.08
-0.075
-0.07
-0.065
-0.065
-0.075
-0.04
0.08
0.32
0.79
0.635
0.355
0.245
0.065
0.01
-0.015
-0.02
-0.035
-0.04
-0.03
-0.04
-0.055
-0.045
-0.04
-0.04
-0.04
-0.035
-0.04
-0.03
-0.035
-0.02
-0.02
-0.01
0.0
0.01
0.025
0.04
0.06
0.08
0.085
0.08
0.055
0.035
0.01
-0.01
-0.015
-0.025
-0.035
-0.035
-0.03
-0.03
-0.03
-0.03
-0.03
-0.03
-0.035
-0.03
-0.035
-0.035
-0.04
-0.045
-0.055
-0.06
-0.065
-0.06
-0.07
-0.065
-0.07
-0.07
-0.075
-0.065
-0.045
-0.025
-0.005
-0.025
-0.02
-0.065
-0.08
-0.1
-0.06
-0.075
-0.085
-0.085
-0.08
-0.08
-0.08
-0.075
-0.07
-0.065
-0.06
-0.07
0.015
0.06
0.395
0.82
0.535
0.305
0.19
0.035
0.005
-0.005
-0.02
-0.03
-0.035
-0.035
-0.035
-0.03
-0.03
-0.025
-0.025
-0.025
-0.02
-0.02
-0.02
-0.01
-0.005
0.005
0.01
0.03
0.04
0.06
0.085
0.1
0.12
0.12
0.095
0.065
0.035
0.005
-0.01
-0.025
-0.035
-0.035
-0.04
-0.04
-0.04
-0.035
-0.03
-0.025
-0.02
-0.02
-0.02
-0.02
-0.02
-0.02
-0.02
-0.025
-0.03
-0.035
-0.04
-0.045
-0.045
-0.05
-0.055
-0.055
-0.06
-0.06
-0.065
-0.065
-0.06
-0.03
-0.03
-0.045
-0.075
-0.05
-0.11
-0.11
-0.095
-0.07
-0.075
-0.075
-0.08
-0.065
-0.07
-0.065
-0.065
-0.06
-0.06
-0.05
-0.06
-0.035
0.075
0.265
0.785
0.665
0.395
0.245
0.055
0.02
-0.005
-0.015
-0.03
-0.025
-0.035
-0.03
-0.035
-0.03
-0.035
-0.03
-0.025
-0.02
-0.02
-0.015
-0.01
0.0
0.005
0.02
0.035
0.055
0.07
0.1
0.12
0.14
0.14
0.125
0.095
0.06
0.025
0.005
0.0
-0.01
-0.015
-0.02
-0.015
-0.015
-0.015
-0.01
-0.015
-0.01
-0.01
-0.005
-0.005
-0.005
-0.005
-0.005
-0.005
-0.01
-0.015
-0.02
-0.025
-0.025
-0.03
-0.03
-0.035
-0.035
-0.04
-0.04
-0.05
-0.045
-0.05
-0.05
-0.055
-0.055
-0.06
-0.065
-0.065
-0.065
-0.07
-0.065
-0.075
-0.05
-0.04
-0.045
-0.065
-0.075
-0.095
-0.12
-0.11
-0.085
-0.075
-0.075
-0.08
-0.07
-0.07
-0.06
-0.065
-0.055
-0.065
-0.055
-0.06
-0.05
-0.06
-0.01
0.085
0.355
0.865
0.665
0.375
0.235
0.055
0.025
0.0
-0.01
-0.025
-0.03
-0.04
-0.025
-0.035
-0.04
-0.045
-0.03
-0.025
-0.025
-0.025
-0.015
-0.01
-0.005
-0.005
0.01
0.025
0.045
0.06
0.085
0.11
0.135
0.145
0.135
0.105
0.07
0.035
0.01
-0.005
-0.015
-0.025
-0.025
-0.015
-0.02
-0.025
-0.015
-0.01
-0.015
-0.015
-0.01
-0.015
-0.015
-0.015
-0.01
-0.02
-0.02
-0.03
-0.035
-0.035
-0.04
-0.035
-0.04
-0.045
-0.05
-0.055
-0.05
-0.07
-0.055
-0.06
-0.06
-0.06
-0.065
-0.07
-0.065
-0.07
-0.075
-0.075
-0.06
-0.04
-0.035
-0.05
-0.07
-0.075
-0.11
-0.115
-0.085
-0.07
-0.08
-0.085
-0.08
-0.07
-0.075
-0.075
-0.065
-0.06
-0.07
-0.06
-0.06
-0.055
-0.08
0.0
0.1
0.46
0.905
0.6
0.325
0.22
0.055
0.02
0.0
-0.02
-0.015
-0.03
-0.04
-0.04
-0.025
-0.035
-0.035
-0.03
-0.03
-0.03
-0.035
-0.025
-0.015
-0.01
-0.005
0.0
0.005
0.03
0.045
0.06
0.075
0.095
0.105
0.09
0.07
0.045
0.02
0.005
-0.005
-0.01
-0.02
-0.02
-0.025
-0.03
-0.015
-0.02
-0.03
-0.025
-0.015
-0.025
-0.025
-0.03
-0.025
-0.035
-0.04
-0.045
-0.05
-0.055
-0.055
-0.055
-0.055
-0.06
-0.07
-0.065
-0.065
-0.065
-0.07
-0.08
-0.08
-0.08
-0.08
-0.08
-0.08
-0.08
-0.09
-0.06
-0.04
-0.035
-0.065
-0.06
-0.095
-0.11
-0.115
-0.07
-0.085
-0.09
-0.09
-0.085
-0.085
-0.08
-0.08
-0.075
-0.075
-0.07
-0.07
-0.06
-0.06
-0.075
0.085
0.17
0.665
0.79
0.45
0.275
0.115
0.02
0.0
-0.01
-0.025
-0.03
-0.035
-0.03
-0.035
-0.025
-0.03
-0.03
-0.03
-0.02
-0.02
-0.015
-0.01
0.0
0.0
0.01
0.02
0.04
0.055
0.075
0.1
0.125
0.135
0.135
0.11
0.085
0.05
0.025
0.005
0.0
-0.01
-0.01
-0.01
-0.01
-0.01
-0.005
-0.005
0.0
0.0
0.0
0.0
0.0
0.005
0.0
0.0
-0.005
-0.005
-0.01
-0.01
-0.015
-0.015
-0.02
-0.025
-0.03
-0.03
-0.035
-0.035
-0.04
-0.04
-0.045
-0.045
-0.045
-0.045
-0.055
-0.05
-0.055
-0.055
-0.06
-0.06
-0.065
-0.065
-0.075
-0.065
-0.075
-0.075
-0.08
-0.07
-0.045
-0.02
-0.025
-0.055
-0.04
-0.085
-0.11
-0.105
-0.07
-0.08
-0.095
-0.085
-0.09
-0.075
-0.085
-0.075
-0.08
-0.07
-0.08
-0.065
-0.075
-0.055
0.065
0.28
0.79
0.65
0.37
0.235
0.045
0.01
-0.015
-0.025
-0.04
-0.04
-0.045
-0.04
-0.045
-0.04
-0.045
-0.04
-0.04
-0.035
-0.03
-0.02
-0.02
-0.01
-0.005
0.01
0.02
0.045
0.065
0.09
0.11
0.14
0.155
0.15
0.12
0.085
0.045
0.015
0.0
-0.01
-0.015
-0.015
-0.015
-0.015
-0.015
-0.01
-0.01
-0.005
-0.005
-0.005
0.0
0.0
0.0
-0.005
-0.005
-0.005
-0.01
-0.01
-0.01
-0.015
-0.01
-0.015
-0.015
-0.015
-0.02
-0.015
-0.02
-0.02
-0.025
-0.025
-0.025
-0.03
-0.03
-0.03
-0.035
-0.035
-0.035
-0.035
-0.035
-0.04
-0.035
-0.04
-0.04
-0.045
-0.04
-0.045
-0.045
-0.05
-0.05
-0.055
-0.05
-0.055
-0.055
-0.06
-0.06
-0.07
-0.065
-0.075
-0.06
-0.025
-0.02
-0.03
-0.045
-0.055
-0.09
-0.105
-0.09
-0.075
-0.08
-0.09
-0.08
-0.085
-0.075
-0.08
-0.075
-0.08
-0.07
-0.07
-0.085
0.03
0.075
0.535
0.825
0.51
0.28
0.14
0.03
0.005
-0.005
-0.015
-0.02
-0.025
-0.025
-0.025
-0.02
-0.02
-0.015
-0.015
-0.005
-0.01
0.0
0.005
0.005
0.01
0.025
0.035
0.055
0.075
0.095
0.125
0.145
0.17
0.18
0.16
0.12
0.08
0.04
0.01
-0.005
-0.015
-0.02
-0.025
-0.02
-0.02
-0.015
-0.015
-0.015
-0.01
-0.005
0.0
-0.005
-0.005
0.0
0.0
0.0
-0.005
-0.01
-0.01
-0.005
-0.01
-0.02
-0.02
-0.015
-0.02
-0.025
-0.025
-0.03
-0.025
-0.03
-0.03
-0.04
-0.035
-0.04
-0.04
-0.045
-0.045
-0.055
-0.045
-0.055
-0.05
-0.06
-0.055
-0.06
-0.06
-0.07
-0.06
-0.07
-0.06
-0.075
-0.07
-0.055
-0.025
-0.015
-0.055
-0.02
-0.065
-0.1
-0.1
-0.07
-0.065
-0.085
-0.08
-0.085
-0.07
-0.085
-0.065
-0.085
-0.07
-0.065
-0.08
0.055
0.1
0.59
0.795
0.475
0.27
0.135
0.025
0.0
-0.01
-0.02
-0.03
-0.04
-0.025
-0.04
-0.03
-0.035
-0.025
-0.03
-0.02
-0.025
-0.02
-0.015
-0.01
-0.005
0.005
0.015
0.035
0.055
0.065
0.095
0.115
0.135
0.15
0.14
0.115
0.08
0.045
0.01
0.0
-0.005
-0.01
-0.015
-0.015
-0.015
-0.005
-0.015
-0.01
-0.015
0.0
-0.015
-0.01
-0.01
-0.015
-0.025
-0.02
-0.02
-0.025
-0.03
-0.03
-0.035
-0.03
-0.04
-0.04
-0.05
-0.04
-0.055
-0.05
-0.06
-0.06
-0.06
-0.065
-0.07
-0.065
-0.07
-0.07
-0.075
-0.075
-0.08
-0.07
-0.045
-0.03
-0.045
-0.07
-0.05
-0.095
-0.11
-0.105
-0.075
-0.085
-0.1
-0.085
-0.09
-0.08
-0.09
-0.075
-0.085
-0.075
-0.09
-0.055
0.05
0.275
0.76
0.645
0.355
0.245
0.07
0.01
-0.01
-0.025
-0.035
-0.035
-0.04
-0.035
-0.04
-0.035
-0.035
-0.035
-0.035
-0.025
-0.03
-0.02
-0.02
-0.01
-0.01
0.0
0.005
0.025
0.04
0.055
0.08
0.1
0.125
0.125
0.11
0.08
0.05
0.02
0.0
-0.01
-0.015
-0.015
-0.02
-0.015
-0.015
-0.015
-0.01
-0.015
-0.015
-0.015
-0.015
-0.015
-0.02
-0.025
-0.025
-0.03
-0.035
-0.035
-0.035
-0.045
-0.04
-0.045
-0.045
-0.05
-0.05
-0.055
-0.055
-0.06
-0.06
-0.06
-0.065
-0.065
-0.07
-0.07
-0.075
-0.08
-0.06
-0.045
-0.04
-0.06
-0.085
-0.095
-0.125
-0.12
-0.095
-0.08
-0.09
-0.095
-0.085
-0.085
-0.075
-0.08
-0.07
-0.075
-0.065
-0.085
-0.01
0.04
0.39
0.845
0.575
0.31
0.195
0.035
0.01
-0.01
-0.025
-0.03
-0.035
-0.035
-0.035
-0.03
-0.03
-0.03
-0.025
-0.025
-0.02
-0.02
-0.015
-0.01
-0.005
0.005
0.015
0.03
0.055
0.08
0.1
0.13
0.16
0.17
0.165
0.135
0.095
0.05
0.015
-0.005
-0.02
-0.03
-0.035
-0.035
-0.035
-0.03
-0.035
-0.03
-0.03
-0.03
-0.02
-0.025
-0.025
-0.03
-0.03
-0.035
-0.035
-0.04
-0.04
-0.05
-0.05
-0.055
-0.055
-0.055
-0.055
-0.06
-0.06
-0.06
-0.06
-0.07
-0.065
-0.075
-0.07
-0.08
-0.06
-0.065
-0.05
-0.08
-0.11
-0.09
-0.125
-0.125
-0.1
-0.08
-0.075
-0.085
-0.075
-0.08
-0.07
-0.075
-0.06
-0.07
-0.06
-0.07
-0.06
0.06
0.21
0.74
0.72
0.425
0.26
0.075
0.02
0.0
-0.015
-0.03
-0.03
-0.035
-0.03
-0.03
-0.025
-0.03
-0.025
-0.025
-0.02
-0.02
-0.015
-0.015
-0.005
0.0
0.015
0.025
0.045
0.065
0.085
0.11
0.135
0.16
0.16
0.135
0.1
0.06
0.025
0.005
-0.01
-0.015
-0.025
-0.025
-0.025
-0.025
-0.02
-0.02
-0.02
-0.02
-0.015
-0.015
-0.015
-0.015
-0.02
-0.02
-0.025
-0.03
-0.035
-0.035
-0.035
-0.04
-0.045
-0.05
-0.045
-0.055
-0.05
-0.055
-0.06
-0.065
-0.065
-0.07
-0.07
-0.08
-0.055
-0.06
-0.06
-0.08
-0.105
-0.1
-0.13
-0.115
-0.105
-0.08
-0.075
-0.085
-0.07
-0.08
-0.07
-0.07
-0.065
-0.07
-0.065
-0.08
-0.035
0.045
0.29
0.805
0.665
0.38
0.25
0.075
0.025
0.0
-0.01
-0.025
-0.025
-0.035
-0.025
-0.04
-0.035
-0.035
-0.02
-0.025
-0.025
-0.025
-0.02
-0.025
-0.02
-0.005
0.005
0.02
0.035
0.045
0.06
0.095
0.115
0.14
0.135
0.115
0.085
0.05
0.01
0.0
-0.015
-0.03
-0.03
-0.03
-0.03
-0.03
-0.025
-0.03
-0.035
-0.035
-0.03
-0.04
-0.03
-0.04
-0.035
-0.035
-0.04
-0.06
-0.055
-0.06
-0.06
-0.065
-0.06
-0.07
-0.07
-0.07
-0.065
-0.075
-0.06
-0.065
-0.035
-0.07
-0.11
-0.075
-0.115
-0.13
-0.095
-0.085
-0.08
-0.095
-0.08
-0.085
-0.075
-0.085
-0.07
-0.07
-0.065
-0.07
-0.075
0.07
0.17
0.67
0.76
0.43
0.265
0.13
0.02
0.0
-0.01
-0.03
-0.03
-0.035
-0.03
-0.04
-0.035
-0.04
-0.035
-0.045
-0.03
-0.03
-0.04
-0.025
-0.025
-0.025
-0.01
-0.015
0.0
0.02
0.035
0.05
0.08
0.1
0.105
0.09
0.065
0.035
0.005
-0.015
-0.025
-0.035
-0.035
-0.035
-0.04
-0.035
-0.035
-0.035
-0.04
-0.04
-0.045
-0.045
-0.045
-0.045
-0.05
-0.045
-0.055
-0.055
-0.065
-0.065
-0.07
-0.07
-0.075
-0.07
-0.075
-0.07
-0.08
-0.07
-0.055
-0.03
-0.07
-0.1
-0.07
-0.12
-0.125
-0.1
-0.09
-0.085
-0.095
-0.08
-0.09
-0.075
-0.085
-0.075
-0.075
-0.07
-0.07
-0.07
0.07
0.155
0.655
0.715
0.42
0.265
0.095
0.015
-0.005
-0.015
-0.03
-0.035
-0.04
-0.035
-0.04
-0.035
-0.04
-0.03
-0.035
-0.025
-0.03
-0.02
-0.02
-0.01
0.0
0.005
0.015
0.03
0.05
0.07
0.09
0.12
0.135
0.145
0.13
0.095
0.055
0.02
0.0
-0.015
-0.02
-0.03
-0.03
-0.03
-0.03
-0.03
-0.03
-0.03
-0.025
-0.03
-0.025
-0.035
-0.03
-0.03
-0.035
-0.045
-0.045
-0.05
-0.05
-0.055
-0.055
-0.06
-0.06
-0.065
-0.065
-0.075
-0.075
-0.085
-0.065
-0.09
-0.075
-0.105
-0.15
-0.105
-0.15
-0.145
-0.115
-0.09
-0.08
-0.095
-0.08
-0.085
-0.07
-0.075
-0.065
-0.07
-0.065
-0.07
-0.055
0.065
0.205
0.71
0.705
0.425
0.26
0.07
0.02
-0.005
-0.015
-0.03
-0.025
-0.035
-0.035
-0.035
-0.03
-0.035
-0.03
-0.035
-0.025
-0.03
-0.02
-0.02
-0.01
-0.005
0.0
0.015
0.035
0.05
0.075
0.095
0.125
0.145
0.145
0.12
0.085
0.045
0.01
-0.005
-0.015
-0.025
-0.035
-0.03
-0.035
-0.03
-0.03
-0.03
-0.025
-0.025
-0.025
-0.03
-0.025
-0.03
-0.03
-0.04
-0.035
-0.045
-0.045
-0.05
-0.05
-0.06
-0.055
-0.065
-0.055
-0.065
-0.065
-0.075
-0.07
-0.065
-0.08
-0.055
-0.11
-0.14
-0.095
-0.12
-0.14
-0.105
-0.095
-0.08
-0.075
-0.08
-0.07
-0.075
-0.06
-0.065
-0.06
-0.065
-0.055
-0.065
-0.03
0.06
0.29
0.805
0.685
0.39
0.245
0.06
0.025
0.0
-0.01
-0.02
-0.025
-0.03
-0.03
-0.035
-0.035
-0.035
-0.03
-0.03
-0.025
-0.02
-0.02
-0.015
-0.01
0.0
0.005
0.025
0.04
0.055
0.08
0.105
0.13
0.14
0.135
0.11
0.075
0.035
0.005
-0.005
-0.015
-0.025
-0.025
-0.025
-0.025
-0.025
-0.025
-0.02
-0.02
-0.02
-0.02
-0.02
-0.025
-0.03
-0.025
-0.035
-0.035
-0.04
-0.04
-0.05
-0.05
-0.055
-0.05
-0.06
-0.06
-0.07
-0.06
-0.07
-0.07
-0.075
-0.07
-0.08
-0.065
-0.08
-0.1
-0.11
-0.13
-0.115
-0.155
-0.13
-0.115
-0.09
-0.08
-0.09
-0.075
-0.08
-0.07
-0.075
-0.065
-0.07
-0.06
-0.06
-0.08
0.03
0.07
0.51
0.865
0.575
0.305
0.165
0.035
0.005
0.0
-0.02
-0.02
-0.03
-0.03
-0.035
-0.03
-0.03
-0.025
-0.025
-0.025
-0.02
-0.015
-0.015
-0.01
-0.005
0.005
0.015
0.03
0.045
0.065
0.09
0.12
0.14
0.15
0.135
0.105
0.07
0.03
0.005
-0.01
-0.02
-0.02
-0.02
-0.025
-0.025
-0.02
-0.015
-0.015
-0.02
-0.02
-0.015
-0.015
-0.02
-0.015
-0.025
-0.03
-0.035
-0.035
-0.045
-0.045
-0.05
-0.045
-0.055
-0.05
-0.055
-0.05
-0.06
-0.05
-0.065
-0.06
-0.07
-0.065
-0.075
-0.065
-0.045
-0.095
-0.12
-0.095
-0.11
-0.135
-0.105
-0.095
-0.075
-0.075
-0.085
-0.065
-0.07
-0.065
-0.07
-0.055
-0.06
-0.05
-0.05
-0.07
0.08
0.12
0.6
0.85
0.52
0.29
0.165
0.045
0.015
0.005
-0.015
-0.015
-0.03
-0.03
-0.025
-0.03
-0.03
-0.02
-0.035
-0.02
-0.02
-0.02
-0.02
-0.02
-0.01
0.005
0.005
0.02
0.03
0.055
0.065
0.1
0.12
0.12
0.105
0.085
0.065
0.02
0.005
0.0
-0.01
-0.01
-0.01
-0.015
-0.02
-0.01
-0.015
-0.015
-0.01
-0.015
-0.01
-0.02
-0.02
-0.025
-0.03
-0.03
-0.025
-0.04
-0.045
-0.055
-0.045
-0.045
-0.055
-0.055
-0.055
-0.06
-0.06
-0.07
-0.065
-0.075
-0.065
-0.075
-0.07
-0.055
-0.085
-0.105
-0.12
-0.11
-0.14
-0.12
-0.105
-0.08
-0.08
-0.09
-0.08
-0.08
-0.075
-0.075
-0.07
-0.075
-0.065
-0.065
-0.09
0.015
0.075
0.485
0.875
0.54
0.29
0.205
0.04
0.005
-0.005
-0.02
-0.025
-0.035
-0.045
-0.045
-0.045
-0.05
-0.045
-0.045
-0.045
-0.045
-0.04
-0.04
-0.035
-0.035
-0.025
-0.015
-0.005
0.005
0.02
0.04
0.06
0.08
0.095
0.095
0.075
0.05
0.02
0.0
-0.005
-0.01
-0.015
-0.015
-0.015
-0.02
-0.015
-0.015
-0.015
-0.02
-0.015
-0.015
-0.02
-0.025
-0.02
-0.025
-0.03
-0.035
-0.035
-0.045
-0.04
-0.05
-0.05
-0.05
-0.05
-0.06
-0.06
-0.065
-0.06
-0.07
-0.065
-0.075
-0.07
-0.075
-0.065
-0.06
-0.09
-0.1
-0.115
-0.11
-0.145
-0.125
-0.11
-0.08
-0.075
-0.09
-0.08
-0.08
-0.07
-0.075
-0.07
-0.07
-0.065
-0.065
-0.08
0.035
0.075
0.515
0.855
0.535
0.29
0.145
0.03
0.005
-0.005
-0.015
-0.025
-0.03
-0.03
-0.03
-0.03
-0.03
-0.025
-0.025
-0.025
-0.02
-0.02
-0.015
-0.01
-0.005
0.0
0.015
0.035
0.05
0.075
0.095
0.125
0.15
0.15
0.135
0.1
0.06
0.025
0.0
-0.015
-0.025
-0.03
-0.03
-0.03
-0.035
-0.03
-0.03
-0.025
-0.025
-0.025
-0.015
-0.02
-0.02
-0.025
-0.02
-0.03
-0.035
-0.035
-0.04
-0.05
-0.045
-0.05
-0.05
-0.055
-0.055
-0.06
-0.06
-0.065
-0.065
-0.07
-0.065
-0.075
-0.075
-0.075
-0.075
-0.055
-0.1
-0.12
-0.09
-0.12
-0.145
-0.11
-0.1
-0.08
-0.08
-0.085
-0.07
-0.08
-0.07
-0.075
-0.06
-0.07
-0.055
-0.06
-0.07
0.06
0.115
0.605
0.835
0.525
0.285
0.125
0.035
0.005
-0.005
-0.025
-0.02
-0.03
-0.025
-0.03
-0.025
-0.03
-0.025
-0.03
-0.02
-0.02
-0.015
-0.015
0.0
0.0
0.015
0.025
0.045
0.06
0.085
0.105
0.125
0.145
0.155
0.135
0.1
0.06
0.03
0.005
-0.005
-0.01
-0.015
-0.02
-0.02
-0.015
-0.01
-0.01
-0.01
-0.005
-0.005
-0.005
-0.005
-0.01
-0.015
-0.015
-0.02
-0.025
-0.03
-0.03
-0.035
-0.035
-0.04
-0.04
-0.045
-0.05
-0.05
-0.05
-0.055
-0.055
-0.06
-0.06
-0.065
-0.065
-0.07
-0.065
-0.07
-0.07
-0.075
-0.08
-0.045
-0.095
-0.13
-0.08
-0.13
-0.14
-0.11
-0.095
-0.08
-0.08
-0.085
-0.07
-0.075
-0.065
-0.075
-0.065
-0.07
-0.06
-0.07
-0.025
0.055
0.32
0.82
0.65
0.365
0.225
0.045
0.015
-0.005
-0.01
-0.025
-0.025
-0.035
-0.035
-0.035
-0.035
-0.035
-0.03
-0.03
-0.025
-0.025
-0.015
-0.01
-0.005
0.0
0.015
0.03
0.05
0.07
0.09
0.115
0.145
0.16
0.15
0.125
0.095
0.055
0.025
0.0
-0.005
-0.015
-0.02
-0.015
-0.01
-0.01
-0.015
-0.015
-0.01
-0.01
-0.005
-0.01
-0.015
-0.015
-0.015
-0.015
-0.025
-0.03
-0.035
-0.04
-0.045
-0.045
-0.045
-0.045
-0.055
-0.055
-0.06
-0.06
-0.065
-0.065
-0.065
-0.065
-0.075
-0.07
-0.085
-0.06
-0.07
-0.055
-0.095
-0.135
-0.08
-0.12
-0.13
-0.11
-0.085
-0.075
-0.08
-0.075
-0.085
-0.065
-0.075
-0.07
-0.065
-0.055
-0.06
-0.08
0.05
0.08
0.55
0.85
0.53
0.295
0.18
0.035
0.01
-0.005
-0.025
-0.02
-0.03
-0.035
-0.035
-0.03
-0.035
-0.035
-0.035
-0.03
-0.035
-0.03
-0.03
-0.02
-0.01
0.0
0.0
0.015
0.03
0.045
0.07
0.09
0.11
0.125
0.115
0.08
0.055
0.025
0.0
-0.015
-0.02
-0.025
-0.02
-0.02
-0.02
-0.02
-0.025
-0.02
-0.015
-0.03
-0.035
-0.025
-0.03
-0.035
-0.035
-0.04
-0.05
-0.045
-0.055
-0.06
-0.055
-0.055
-0.06
-0.06
-0.06
-0.06
-0.07
-0.075
-0.075
-0.075
-0.075
-0.075
-0.025
-0.075
-0.115
-0.07
-0.115
-0.135
-0.11
-0.09
-0.085
-0.095
-0.09
-0.085
-0.085
-0.075
-0.08
-0.075
-0.075
-0.07
-0.085
-0.025
0.065
0.35
0.83
0.625
0.34
0.245
0.065
0.02
0.0
-0.015
-0.02
-0.025
-0.03
-0.035
-0.035
-0.035
-0.035
-0.03
-0.035
-0.03
-0.03
-0.03
-0.03
-0.025
-0.015
0.0
0.005
0.015
0.03
0.05
0.07
0.095
0.115
0.115
0.095
0.07
0.04
0.01
0.0
-0.01
-0.015
-0.02
-0.015
-0.015
-0.015
-0.02
-0.02
-0.02
-0.015
-0.015
-0.015
-0.025
-0.02
-0.025
-0.025
-0.035
-0.04
-0.045
-0.045
-0.055
-0.05
-0.06
-0.055
-0.065
-0.06
-0.07
-0.065
-0.07
-0.065
-0.075
-0.075
-0.08
-0.06
-0.065
-0.065
-0.08
-0.115
-0.095
-0.135
-0.125
-0.1
-0.085
-0.08
-0.09
-0.08
-0.08
-0.07
-0.08
-0.07
-0.075
-0.065
-0.07
-0.08
0.05
0.12
0.615
0.79
0.48
0.27
0.1
0.02
-0.005
-0.015
-0.03
-0.035
-0.04
-0.035
-0.04
-0.03
-0.035
-0.03
-0.03
-0.03
-0.025
-0.02
-0.02
-0.01
-0.005
0.0
0.01
0.03
0.05
0.07
0.095
0.12
0.145
0.15
0.13
0.1
0.055
0.02
0.0
-0.015
-0.025
-0.03
-0.035
-0.03
-0.03
-0.03
-0.025
-0.025
-0.025
-0.025
-0.02
-0.025
-0.02
-0.03
-0.025
-0.03
-0.035
-0.04
-0.045
-0.05
-0.05
-0.05
-0.05
-0.06
-0.055
-0.06
-0.06
-0.07
-0.065
-0.07
-0.07
-0.08
-0.075
-0.085
-0.065
-0.045
-0.085
-0.1
-0.08
-0.125
-0.14
-0.115
-0.095
-0.085
-0.08
-0.09
-0.08
-0.08
-0.07
-0.075
-0.065
-0.07
-0.06
-0.065
-0.075
0.06
0.155
0.675
0.79
0.485
0.275
0.1
0.025
0.0
-0.005
-0.025
-0.025
-0.035
-0.025
-0.03
-0.025
-0.03
-0.025
-0.025
-0.02
-0.02
-0.01
-0.01
-0.005
0.0
0.01
0.02
0.035
0.05
0.075
0.095
0.125
0.145
0.145
0.13
0.095
0.06
0.025
0.0
-0.01
-0.015
-0.025
-0.025
-0.02
-0.025
-0.02
-0.02
-0.015
-0.015
-0.015
-0.015
-0.015
-0.015
-0.02
-0.02
-0.025
-0.025
-0.025
-0.03
-0.035
-0.04
-0.04
-0.045
-0.045
-0.05
-0.05
-0.05
-0.055
-0.055
-0.06
-0.06
-0.065
-0.065
-0.07
-0.07
-0.075
-0.07
-0.065
-0.04
-0.08
-0.115
-0.07
-0.125
-0.125
-0.1
-0.075
-0.07
-0.075
-0.07
-0.065
-0.06
-0.055
-0.055
-0.055
-0.05
-0.05
-0.065
-0.015
0.06
0.365
0.855
0.66
0.365
0.23
0.055
0.025
0.0
-0.01
-0.02
-0.025
-0.025
-0.025
-0.025
-0.025
-0.02
-0.02
-0.02
-0.015
-0.015
-0.01
-0.005
0.0
0.005
0.015
0.03
0.045
0.07
0.09
0.115
0.14
0.16
0.155
0.125
0.085
0.05
0.025
0.0
-0.005
-0.015
-0.025
-0.02
-0.02
-0.02
-0.02
-0.015
-0.015
-0.01
-0.01
-0.015
-0.01
-0.015
-0.02
-0.02
-0.025
-0.03
-0.03
-0.035
-0.035
-0.03
-0.035
-0.04
-0.035
-0.04
-0.045
-0.045
-0.05
-0.05
-0.055
-0.055
-0.06
-0.065
-0.065
-0.065
-0.055
-0.025
-0.075
-0.105
-0.055
-0.11
-0.115
-0.09
-0.075
-0.07
-0.075
-0.07
-0.07
-0.065
-0.065
-0.06
-0.055
-0.055
-0.055
-0.07
0.0
0.06
0.39
0.855
0.62
0.355
0.24
0.06
0.025
0.005
0.0
-0.01
-0.025
-0.025
-0.025
-0.03
-0.025
-0.015
-0.02
-0.025
-0.02
-0.015
-0.015
-0.01
-0.005
0.0
0.0
0.02
0.04
0.045
0.065
0.09
0.115
0.13
0.125
0.095
0.07
0.04
0.01
0.0
-0.005
-0.015
-0.02
-0.015
-0.02
-0.025
-0.015
-0.02
-0.02
-0.015
-0.02
-0.02
-0.015
-0.025
-0.02
-0.03
-0.035
-0.04
-0.04
-0.05
-0.05
-0.05
-0.055
-0.06
-0.06
-0.07
-0.07
-0.07
-0.065
-0.075
-0.075
-0.08
-0.06
-0.045
-0.055
-0.08
-0.095
-0.1
-0.125
-0.115
-0.09
-0.08
-0.085
-0.095
-0.08
-0.085
-0.07
-0.075
-0.065
-0.07
-0.06
-0.065
-0.085
0.07
0.11
0.595
0.835
0.495
0.285
0.15
0.03
0.005
-0.005
-0.025
-0.02
-0.03
-0.02
-0.03
-0.03
-0.03
-0.025
-0.03
-0.025
-0.025
-0.02
-0.02
-0.015
-0.01
0.0
0.01
0.025
0.035
0.055
0.075
0.1
0.125
0.13
0.115
0.095
0.06
0.03
0.005
-0.005
-0.01
-0.015
-0.015
-0.015
-0.015
-0.015
-0.015
-0.01
-0.01
-0.015
-0.015
-0.02
-0.02
-0.02
-0.025
-0.03
-0.035
-0.04
-0.04
-0.045
-0.05
-0.05
-0.05
-0.055
-0.06
-0.06
-0.065
-0.065
-0.07
-0.065
-0.075
-0.07
-0.075
-0.07
-0.065
-0.035
-0.07
-0.11
-0.07
-0.125
-0.13
-0.1
-0.085
-0.075
-0.085
-0.075
-0.075
-0.07
-0.075
-0.07
-0.07
-0.065
-0.065
-0.08
0.02
0.06
0.475
0.845
0.56
0.3
0.165
0.035
0.01
-0.005
-0.025
-0.025
-0.03
-0.03
-0.03
-0.03
-0.035
-0.03
-0.025
-0.025
-0.025
-0.015
-0.015
-0.015
-0.005
0.0
0.015
0.03
0.05
0.07
0.09
0.115
0.14
0.155
0.145
0.11
0.07
0.035
0.005
-0.005
-0.025
-0.025
-0.03
-0.03
-0.03
-0.025
-0.025
-0.02
-0.02
-0.02
-0.02
-0.02
-0.02
-0.025
-0.025
-0.03
-0.035
-0.04
-0.045
-0.05
-0.05
-0.055
-0.055
-0.055
-0.06
-0.06
-0.065
-0.065
-0.07
-0.07
-0.075
-0.075
-0.075
-0.065
-0.035
-0.08
-0.12
-0.07
-0.13
-0.14
-0.11
-0.09
-0.08
-0.085
-0.085
-0.08
-0.075
-0.07
-0.07
-0.065
-0.07
-0.065
-0.075
-0.035
0.055
0.3
0.81
0.665
0.375
0.235
0.045
0.01
-0.005
-0.02
-0.03
-0.035
-0.035
-0.035
-0.04
-0.03
-0.035
-0.035
-0.035
-0.025
-0.025
-0.02
-0.02
-0.01
0.0
0.01
0.02
0.04
0.055
0.08
0.1
0.125
0.145
0.14
0.115
0.075
0.04
0.005
-0.01
-0.02
-0.025
-0.03
-0.025
-0.03
-0.025
-0.025
-0.025
-0.025
-0.02
-0.02
-0.025
-0.025
-0.025
-0.03
-0.03
-0.04
-0.04
-0.05
-0.045
-0.05
-0.045
-0.055
-0.055
-0.06
-0.055
-0.065
-0.06
-0.075
-0.065
-0.075
-0.075
-0.075
-0.06
-0.06
-0.045
-0.075
-0.105
-0.075
-0.115
-0.12
-0.1
-0.08
-0.07
-0.08
-0.07
-0.075
-0.06
-0.07
-0.06
-0.065
-0.055
-0.06
-0.08
0.04
0.065
0.505
0.865
0.56
0.3
0.185
0.035
0.005
-0.01
-0.02
-0.025
-0.025
-0.03
-0.035
-0.04
-0.04
-0.03
-0.035
-0.03
-0.035
-0.02
-0.015
-0.01
-0.01
-0.005
0.0
0.03
0.04
0.065
0.075
0.105
0.125
0.13
0.12
0.095
0.065
0.035
0.01
-0.005
-0.015
-0.025
-0.025
-0.03
-0.02
-0.025
-0.025
-0.02
-0.025
-0.02
-0.025
-0.02
-0.025
-0.025
-0.03
-0.035
-0.045
-0.04
-0.045
-0.055
-0.05
-0.055
-0.06
-0.06
-0.06
-0.07
-0.07
-0.07
-0.07
-0.07
-0.08
-0.075
-0.055
-0.025
-0.055
-0.095
-0.055
-0.11
-0.12
-0.1
-0.075
-0.075
-0.085
-0.08
-0.075
-0.075
-0.07
-0.075
-0.07
-0.07
-0.065
-0.075
-0.02
0.05
0.335
0.82
0.62
0.34
0.24
0.06
0.025
0.0
-0.01
-0.02
-0.025
-0.03
-0.03
-0.03
-0.03
-0.03
-0.025
-0.025
-0.025
-0.02
-0.02
-0.015
-0.01
-0.005
0.005
0.015
0.03
0.045
0.065
0.09
0.115
0.13
0.13
0.105
0.075
0.04
0.01
0.0
-0.01
-0.015
-0.015
-0.02
-0.02
-0.02
-0.02
-0.015
-0.015
-0.015
-0.015
-0.015
-0.02
-0.02
-0.025
-0.03
-0.03
-0.035
-0.035
-0.035
-0.035
-0.045
-0.045
-0.05
-0.05
-0.055
-0.055
-0.055
-0.055
-0.06
-0.06
-0.065
-0.065
-0.07
-0.065
-0.055
-0.03
-0.07
-0.095
-0.06
-0.115
-0.125
-0.1
-0.085
-0.07
-0.08
-0.07
-0.07
-0.065
-0.065
-0.055
-0.065
-0.055
-0.06
-0.075
0.035
0.065
0.51
0.835
0.54
0.29
0.15
0.03
0.0
-0.01
-0.025
-0.03
-0.035
-0.035
-0.04
-0.035
-0.035
-0.025
-0.03
-0.025
-0.025
-0.02
-0.02
-0.005
0.0
0.005
0.02
0.035
0.055
0.07
0.095
0.115
0.14
0.155
0.135
0.1
0.065
0.025
0.0
-0.015
-0.02
-0.025
-0.03
-0.03
-0.025
-0.02
-0.02
-0.02
-0.025
-0.02
-0.02
-0.015
-0.015
-0.02
-0.025
-0.025
-0.035
-0.035
-0.045
-0.04
-0.045
-0.05
-0.055
-0.05
-0.055
-0.055
-0.06
-0.06
-0.065
-0.06
-0.07
-0.07
-0.07
-0.065
-0.05
-0.04
-0.065
-0.09
-0.065
-0.12
-0.12
-0.095
-0.08
-0.08
-0.085
-0.085
-0.08
-0.075
-0.075
-0.07
-0.075
-0.07
-0.07
-0.085
0.0
0.055
0.43
0.855
0.59
0.315
0.2
0.035
0.01
-0.005
-0.02
-0.03
-0.035
-0.04
-0.04
-0.035
-0.035
-0.035
-0.035
-0.03
-0.03
-0.025
-0.02
-0.015
-0.01
0.0
0.005
0.025
0.035
0.055
0.075
0.105
0.125
0.14
0.135
0.105
0.07
0.035
0.01
-0.005
-0.015
-0.02
-0.025
-0.025
-0.025
-0.025
-0.025
-0.02
-0.02
-0.02
-0.02
-0.025
-0.025
-0.03
-0.03
-0.04
-0.04
-0.045
-0.045
-0.05
-0.055
-0.055
-0.055
-0.06
-0.06
-0.065
-0.065
-0.07
-0.07
-0.08
-0.075
-0.08
-0.08
-0.09
-0.07
-0.055
-0.05
-0.075
-0.085
-0.1
-0.13
-0.135
-0.105
-0.095
-0.095
-0.105
-0.095
-0.1
-0.085
-0.095
-0.08
-0.085
-0.08
-0.085
-0.085
0.045
0.09
0.59
0.795
0.5
0.275
0.115
0.02
0.0
-0.01
-0.025
-0.03
-0.035
-0.035
-0.04
-0.035
-0.035
-0.03
-0.035
-0.03
-0.03
-0.025
-0.02
-0.01
0.0
0.005
0.015
0.035
0.05
0.075
0.095
0.115
0.135
0.14
0.125
0.09
0.05
0.02
0.0
-0.015
-0.02
-0.03
-0.03
-0.03
-0.03
-0.03
-0.03
-0.02
-0.025
-0.02
-0.02
-0.025
-0.02
-0.025
-0.03
-0.035
-0.04
-0.045
-0.05
-0.05
-0.05
-0.055
-0.06
-0.06
-0.06
-0.065
-0.07
-0.07
-0.07
-0.08
-0.075
-0.085
-0.08
-0.09
-0.09
-0.095
-0.07
-0.055
-0.065
-0.085
-0.075
-0.13
-0.135
-0.13
-0.1
-0.095
-0.1
-0.105
-0.085
-0.095
-0.085
-0.09
-0.08
-0.085
-0.075
-0.08
-0.065
0.045
0.215
0.745
0.69
0.41
0.245
0.065
0.02
-0.005
-0.01
-0.025
-0.025
-0.035
-0.025
-0.03
-0.025
-0.03
-0.025
-0.03
-0.02
-0.02
-0.015
-0.02
-0.01
0.0
0.01
0.025
0.045
0.055
0.085
0.105
0.13
0.15
0.145
0.125
0.09
0.05
0.02
0.0
-0.015
-0.025
-0.025
-0.03
-0.025
-0.025
-0.025
-0.02
-0.02
-0.02
-0.02
-0.02
-0.025
-0.025
-0.025
-0.035
-0.035
-0.045
-0.045
-0.05
-0.055
-0.05
-0.065
-0.07
-0.07
-0.07
-0.075
-0.075
-0.08
-0.08
-0.08
-0.08
-0.085
-0.095
-0.07
-0.04
-0.06
-0.065
-0.06
-0.1
-0.12
-0.12
-0.1
-0.085
-0.1
-0.095
-0.095
-0.085
-0.085
-0.085
-0.085
-0.08
-0.08
-0.09
0.0
0.02
0.41
0.82
0.57
0.305
0.17
0.02
0.0
-0.015
-0.025
-0.025
-0.035
-0.035
-0.04
-0.035
-0.035
-0.025
-0.025
-0.02
-0.02
-0.015
-0.01
0.0
-0.005
0.0
0.015
0.03
0.05
0.065
0.09
0.11
0.135
0.145
0.135
0.1
0.065
0.03
0.0
-0.015
-0.025
-0.03
-0.03
-0.025
-0.03
-0.03
-0.03
-0.03
-0.03
-0.03
-0.04
-0.03
-0.035
-0.04
-0.045
-0.05
-0.06
-0.055
-0.07
-0.065
-0.075
-0.07
-0.08
-0.08
-0.085
-0.08
-0.09
-0.085
-0.09
-0.085
-0.045
-0.045
-0.04
-0.06
-0.05
-0.09
-0.1
-0.11
-0.075
-0.09
-0.095
-0.09
-0.09
-0.085
-0.085
-0.08
-0.08
-0.075
-0.095
-0.02
0.025
0.315
0.78
0.6
0.335
0.205
0.03
0.0
-0.02
-0.03
-0.045
-0.04
-0.05
-0.04
-0.045
-0.04
-0.04
-0.035
-0.035
-0.025
-0.03
-0.03
-0.02
-0.015
-0.015
0.0
0.015
0.035
0.045
0.065
0.095
0.115
0.13
0.12
0.095
0.06
0.025
0.0
-0.015
-0.025
-0.025
-0.03
-0.03
-0.025
-0.025
-0.03
-0.03
-0.03
-0.03
-0.03
-0.03
-0.035
-0.035
-0.04
-0.045
-0.055
-0.05
-0.055
-0.055
-0.06
-0.055
-0.06
-0.055
-0.065
-0.06
-0.065
-0.065
-0.07
-0.065
-0.035
-0.025
-0.04
-0.05
-0.04
-0.09
-0.11
-0.085
-0.075
-0.06
-0.085
-0.065
-0.07
-0.065
-0.075
-0.055
-0.07
-0.055
-0.065
-0.05
0.065
0.185
0.7
0.705
0.445
0.265
0.075
0.02
-0.01
-0.01
-0.025
-0.025
-0.03
-0.025
-0.035
-0.025
-0.03
-0.025
-0.035
-0.02
-0.025
-0.015
-0.01
-0.005
0.0
0.01
0.02
0.045
0.055
0.08
0.1
0.125
0.145
0.14
0.115
0.08
0.045
0.01
-0.005
-0.015
-0.02
-0.025
-0.03
-0.025
-0.025
-0.025
-0.02
-0.025
-0.025
-0.02
-0.02
-0.02
-0.03
-0.025
-0.035
-0.035
-0.04
-0.045
-0.045
-0.045
-0.055
-0.055
-0.06
-0.06
-0.06
-0.06
-0.065
-0.06
-0.05
-0.025
-0.065
-0.095
-0.06
-0.115
-0.125
-0.09
-0.08
-0.065
-0.075
-0.065
-0.07
-0.05
-0.065
-0.055
-0.06
-0.05
-0.06
-0.06
0.065
0.135
0.635
0.735
0.48
0.285
0.095
0.025
0.0
-0.005
-0.03
-0.02
-0.025
-0.025
-0.03
-0.02
-0.025
-0.02
-0.025
-0.015
-0.02
-0.01
-0.01
0.0
0.0
0.015
0.025
0.045
0.065
0.08
0.105
0.13
0.15
0.15
0.125
0.09
0.05
0.02
0.0
-0.01
-0.02
-0.015
-0.02
-0.02
-0.02
-0.015
-0.015
-0.015
-0.02
-0.015
-0.025
-0.025
-0.03
-0.03
-0.04
-0.04
-0.045
-0.05
-0.055
-0.055
-0.06
-0.06
-0.07
-0.065
-0.08
-0.07
-0.08
-0.07
-0.05
-0.045
-0.065
-0.075
-0.06
-0.12
-0.135
-0.105
-0.095
-0.075
-0.095
-0.085
-0.085
-0.075
-0.085
-0.07
-0.08
-0.065
-0.07
-0.06
0.05
0.155
0.675
0.705
0.46
0.265
0.075
0.015
-0.005
-0.01
-0.035
-0.03
-0.04
-0.03
-0.04
-0.035
-0.04
-0.03
-0.03
-0.025
-0.025
-0.02
-0.01
0.0
0.0
0.01
0.025
0.045
0.06
0.08
0.105
0.135
0.15
0.15
0.13
0.09
0.05
0.025
0.0
-0.005
-0.01
-0.02
-0.02
-0.02
-0.02
-0.02
-0.015
-0.02
-0.015
-0.02
-0.015
-0.02
-0.02
-0.025
-0.025
-0.035
-0.03
-0.04
-0.04
-0.05
-0.045
-0.05
-0.05
-0.055
-0.055
-0.06
-0.04
-0.045
-0.035
-0.065
-0.1
-0.075
-0.115
-0.11
-0.08
-0.065
-0.055
-0.065
-0.055
-0.06
-0.045
-0.06
-0.045
-0.05
-0.035
-0.045
-0.025
0.08
0.225
0.75
0.71
0.455
0.285
0.085
0.035
0.01
0.0
-0.015
-0.01
-0.025
-0.02
-0.025
-0.025
-0.025
-0.015
-0.025
-0.015
-0.02
-0.01
-0.015
-0.005
-0.005
0.005
0.015
0.035
0.05
0.075
0.095
0.12
0.135
0.135
0.11
0.07
0.035
0.005
-0.005
-0.02
-0.02
-0.025
-0.025
-0.025
-0.03
-0.025
-0.02
-0.025
-0.025
-0.02
-0.025
-0.025
-0.025
-0.035
-0.035
-0.04
-0.04
-0.045
-0.045
-0.055
-0.055
-0.06
-0.065
-0.065
-0.05
-0.035
-0.085
-0.095
-0.075
-0.115
-0.135
-0.105
-0.09
-0.07
-0.07
-0.075
-0.065
-0.06
-0.055
-0.065
-0.055
-0.055
-0.05
-0.06
0.0
0.055
0.335
0.81
0.63
0.37
0.235
0.05
0.025
0.005
-0.005
-0.015
-0.02
-0.02
-0.025
-0.02
-0.025
-0.03
-0.02
-0.025
-0.01
-0.015
-0.01
-0.01
-0.01
0.0
0.01
0.02
0.04
0.055
0.08
0.105
0.125
0.13
0.12
0.09
0.06
0.02
0.0
-0.02
-0.025
-0.03
-0.035
-0.03
-0.035
-0.03
-0.03
-0.025
-0.03
-0.02
-0.03
-0.025
-0.03
-0.035
-0.04
-0.045
-0.05
-0.05
-0.055
-0.055
-0.065
-0.055
-0.065
-0.065
-0.065
-0.055
-0.09
-0.04
-0.11
-0.155
-0.09
-0.13
-0.15
-0.1
-0.09
-0.07
-0.075
-0.065
-0.065
-0.055
-0.055
-0.045
-0.05
-0.04
-0.04
-0.05
0.08
0.11
0.59
0.79
0.54
0.315
0.14
0.05
0.02
0.01
-0.01
-0.01
-0.02
-0.01
-0.02
-0.015
-0.015
-0.01
-0.01
-0.01
-0.005
0.0
0.0
0.0
0.005
0.02
0.025
0.045
0.06
0.08
0.1
0.13
0.145
0.145
0.125
0.09
0.055
0.02
0.0
-0.01
-0.015
-0.02
-0.015
-0.02
-0.015
-0.015
-0.015
-0.01
-0.005
-0.01
-0.01
-0.015
-0.015
-0.02
-0.03
-0.035
-0.035
-0.045
-0.05
-0.05
-0.05
-0.055
-0.055
-0.06
-0.06
-0.06
-0.06
-0.06
-0.1
-0.115
-0.12
-0.09
-0.145
-0.105
-0.095
-0.065
-0.055
-0.06
-0.055
-0.05
-0.05
-0.045
-0.045
-0.04
-0.035
-0.055
0.05
0.08
0.47
0.835
0.6
0.335
0.195
0.055
0.025
0.015
0.0
-0.005
-0.01
-0.015
-0.015
-0.015
-0.015
-0.01
-0.01
-0.01
-0.01
0.0
0.0
0.0
0.01
0.02
0.03
0.05
0.065
0.08
0.1
0.13
0.15
0.15
0.13
0.1
0.065
0.03
0.01
0.0
-0.01
-0.01
-0.01
-0.01
-0.01
-0.005
-0.005
0.0
-0.005
0.0
-0.005
-0.01
-0.01
-0.02
-0.025
-0.025
-0.035
-0.035
-0.04
-0.035
-0.045
-0.045
-0.05
-0.055
-0.055
-0.05
-0.075
-0.065
-0.11
-0.13
-0.065
-0.125
-0.13
-0.09
-0.065
-0.055
-0.06
-0.055
-0.05
-0.045
-0.05
-0.04
-0.045
-0.035
-0.045
0.015
0.065
0.34
0.81
0.65
0.38
0.245
0.07
0.045
0.015
0.005
0.0
0.0
0.0
-0.005
-0.005
0.0
-0.005
0.0
-0.005
0.0
0.0
0.0
0.01
0.01
0.02
0.03
0.045
0.06
0.075
0.1
0.125
0.145
0.155
0.135
0.11
0.075
0.04
0.015
0.005
0.0
-0.005
-0.01
-0.01
-0.01
-0.005
-0.005
-0.005
0.0
0.0
-0.005
-0.005
-0.01
-0.01
-0.02
-0.02
-0.03
-0.025
-0.035
-0.035
-0.04
-0.04
-0.045
-0.05
-0.06
-0.045
-0.07
-0.075
-0.11
-0.13
-0.07
-0.12
-0.135
-0.095
-0.08
-0.065
-0.075
-0.06
-0.065
-0.055
-0.06
-0.05
-0.055
-0.04
-0.055
-0.035
0.07
0.21
0.73
0.71
0.44
0.275
0.085
0.035
0.005
0.0
-0.015
-0.01
-0.025
-0.02
-0.025
-0.02
-0.025
-0.015
-0.02
-0.015
-0.02
-0.015
-0.015
-0.01
-0.005
0.0
0.015
0.035
0.045
0.065
0.085
0.105
0.115
0.105
0.08
0.055
0.02
0.0
-0.01
-0.02
-0.03
-0.02
-0.03
-0.025
-0.02
-0.025
-0.025
-0.02
-0.03
-0.02
-0.025
-0.025
-0.035
-0.03
-0.04
-0.04
-0.05
-0.045
-0.045
-0.05
-0.06
-0.055
-0.065
-0.06
-0.065
-0.065
-0.06
-0.09
-0.125
-0.105
-0.085
-0.14
-0.115
-0.1
-0.075
-0.065
-0.075
-0.06
-0.06
-0.05
-0.06
-0.05
-0.055
-0.045
-0.06
-0.01
0.075
0.3
0.8
0.665
0.4
0.255
0.07
0.035
0.005
0.0
-0.015
-0.015
-0.02
-0.02
-0.025
-0.02
-0.025
-0.015
-0.02
-0.015
-0.015
-0.01
-0.005
0.0
0.005
0.02
0.03
0.05
0.07
0.085
0.11
0.135
0.135
0.12
0.095
0.055
0.025
0.0
-0.01
-0.015
-0.02
-0.02
-0.02
-0.02
-0.02
-0.015
-0.01
-0.01
-0.01
-0.005
-0.01
-0.01
-0.015
-0.015
-0.02
-0.025
-0.035
-0.03
-0.045
-0.04
-0.05
-0.045
-0.05
-0.055
-0.06
-0.06
-0.06
-0.06
-0.06
-0.07
-0.045
-0.105
-0.145
-0.1
-0.125
-0.145
-0.105
-0.09
-0.075
-0.07
-0.075
-0.055
-0.06
-0.05
-0.05
-0.045
-0.05
-0.04
-0.045
0.0
0.08
0.315
0.82
0.68
0.405
0.255
0.065
0.04
0.01
0.0
-0.01
-0.01
-0.015
-0.015
-0.02
-0.015
-0.015
-0.015
-0.015
-0.01
-0.01
-0.005
0.0
0.005
0.015
0.02
0.035
0.055
0.07
0.09
0.11
0.135
0.14
0.12
0.095
0.06
0.03
0.0
-0.01
-0.02
-0.02
-0.02
-0.025
-0.02
-0.025
-0.03
-0.025
-0.015
-0.01
-0.015
-0.02
-0.02
-0.025
-0.03
-0.035
-0.04
-0.04
-0.05
-0.045
-0.05
-0.055
-0.06
-0.06
-0.065
-0.065
-0.07
-0.07
-0.07
-0.06
-0.055
-0.055
-0.08
-0.125
-0.09
-0.135
-0.115
-0.1
-0.08
-0.075
-0.08
-0.075
-0.07
-0.065
-0.065
-0.06
-0.06
-0.055
-0.055
-0.07
0.0
0.065
0.355
0.835
0.655
0.36
0.235
0.06
0.025
0.005
-0.005
-0.015
-0.02
-0.025
-0.025
-0.025
-0.025
-0.025
-0.02
-0.025
-0.025
-0.02
-0.02
-0.02
-0.01
-0.005
0.0
0.015
0.03
0.045
0.065
0.085
0.105
0.11
0.1
0.075
0.05
0.025
0.0
-0.005
-0.01
-0.015
-0.015
-0.02
-0.015
-0.015
-0.015
-0.01
-0.015
-0.015
-0.015
-0.015
-0.02
-0.02
-0.025
-0.025
-0.03
-0.035
-0.035
-0.035
-0.04
-0.045
-0.05
-0.05
-0.05
-0.05
-0.055
-0.05
-0.055
-0.06
-0.065
-0.04
-0.03
-0.06
-0.075
-0.055
-0.11
-0.12
-0.1
-0.08
-0.07
-0.07
-0.075
-0.065
-0.065
-0.06
-0.055
-0.05
-0.06
-0.045
-0.05
-0.065
0.06
0.115
0.585
0.805
0.525
0.29
0.125
0.03
0.0
-0.005
-0.025
-0.025
-0.035
-0.03
-0.035
-0.04
-0.04
-0.03
-0.03
-0.03
-0.03
-0.03
-0.025
-0.015
-0.01
0.0
0.015
0.03
0.05
0.065
0.09
0.11
0.125
0.12
0.095
0.06
0.03
0.0
-0.01
-0.025
-0.03
-0.035
-0.035
-0.035
-0.03
-0.03
-0.03
-0.025
-0.03
-0.025
-0.03
-0.03
-0.03
-0.035
-0.035
-0.045
-0.045
-0.05
-0.055
-0.055
-0.06
-0.06
-0.06
-0.065
-0.065
-0.065
-0.065
-0.07
-0.07
-0.07
-0.045
-0.04
-0.065
-0.105
-0.055
-0.125
-0.115
-0.095
-0.07
-0.07
-0.07
-0.075
-0.065
-0.07
-0.06
-0.07
-0.055
-0.06
-0.05
-0.055
-0.04
0.08
0.21
0.74
0.725
0.435
0.275
0.085
0.035
0.005
-0.005
-0.02
-0.02
-0.03
-0.03
-0.03
-0.025
-0.025
-0.02
-0.025
-0.02
-0.02
-0.01
-0.015
0.0
0.0
0.015
0.025
0.045
0.065
0.085
0.105
0.125
0.135
0.12
0.095
0.065
0.03
0.01
-0.005
-0.01
-0.02
-0.02
-0.02
-0.02
-0.02
-0.015
-0.02
-0.015
-0.015
-0.015
-0.015
-0.015
-0.02
-0.025
-0.03
-0.03
-0.035
-0.04
-0.045
-0.05
-0.055
-0.05
-0.055
-0.055
-0.06
-0.06
-0.07
-0.065
-0.07
-0.07
-0.075
-0.065
-0.05
-0.04
-0.075
-0.095
-0.07
-0.12
-0.125
-0.105
-0.085
-0.08
-0.09
-0.08
-0.08
-0.075
-0.08
-0.075
-0.08
-0.07
-0.07
-0.08
0.035
0.065
0.51
0.825
0.55
0.3
0.14
0.03
0.005
0.0
-0.02
-0.015
-0.025
-0.02
-0.02
-0.02
-0.025
-0.02
-0.02
-0.015
-0.01
0.0
0.0
0.005
0.01
0.025
0.035
0.05
0.07
0.09
0.11
0.14
0.155
0.145
0.115
0.085
0.05
0.01
-0.01
-0.025
-0.03
-0.035
-0.035
-0.04
-0.04
-0.04
-0.035
-0.035
-0.035
-0.035
-0.035
-0.035
-0.04
-0.035
-0.04
-0.045
-0.045
-0.05
-0.055
-0.06
-0.06
-0.065
-0.07
-0.07
-0.07
-0.07
-0.075
-0.075
-0.08
-0.08
-0.08
-0.06
-0.045
-0.075
-0.095
-0.065
-0.125
-0.135
-0.115
-0.095
-0.085
-0.085
-0.09
-0.08
-0.08
-0.075
-0.085
-0.075
-0.08
-0.065
-0.075
-0.05
0.06
0.225
0.755
0.695
0.415
0.25
0.06
0.02
-0.005
-0.015
-0.03
-0.03
-0.035
-0.035
-0.035
-0.025
-0.03
-0.025
-0.03
-0.02
-0.02
-0.015
-0.015
-0.005
0.0
0.01
0.025
0.045
0.06
0.08
0.105
0.125
0.13
0.115
0.085
0.045
0.01
-0.005
-0.02
-0.03
-0.035
-0.035
-0.035
-0.03
-0.035
-0.03
-0.03
-0.025
-0.025
-0.025
-0.025
-0.03
-0.025
-0.025
-0.03
-0.03
-0.03
-0.035
-0.035
-0.045
-0.05
-0.05
-0.055
-0.055
-0.06
-0.06
-0.065
-0.065
-0.07
-0.07
-0.08
-0.08
-0.08
-0.065
-0.05
-0.085
-0.115
-0.065
-0.135
-0.135
-0.11
-0.09
-0.085
-0.09
-0.085
-0.08
-0.085
-0.07
-0.08
-0.07
-0.08
-0.07
-0.075
-0.07
0.055
0.175
0.71
0.725
0.445
0.26
0.07
0.02
-0.005
-0.015
-0.025
-0.025
-0.035
-0.03
-0.03
-0.03
-0.035
-0.03
-0.035
-0.025
-0.025
-0.02
-0.015
-0.005
0.0
0.01
0.02
0.04
0.06
0.085
0.105
0.13
0.135
0.125
0.095
0.055
0.02
0.0
-0.015
-0.025
-0.025
-0.03
-0.03
-0.03
-0.025
-0.025
-0.02
-0.02
-0.015
-0.02
-0.02
-0.02
-0.02
-0.025
-0.025
-0.025
-0.03
-0.035
-0.04
-0.045
-0.045
-0.055
-0.05
-0.055
-0.055
-0.06
-0.06
-0.065
-0.06
-0.065
-0.065
-0.075
-0.075
-0.075
-0.045
-0.04
-0.06
-0.075
-0.06
-0.115
-0.13
-0.11
-0.09
-0.075
-0.085
-0.085
-0.075
-0.075
-0.07
-0.075
-0.065
-0.065
-0.065
-0.06
-0.08
0.04
0.085
0.55
0.83
0.54
0.29
0.13
0.025
0.0
-0.01
-0.025
-0.03
-0.035
-0.035
-0.035
-0.025
-0.03
-0.025
-0.025
-0.025
-0.02
-0.02
-0.02
-0.005
0.0
0.01
0.025
0.04
0.055
0.075
0.105
0.125
0.14
0.135
0.11
0.075
0.04
0.015
0.0
-0.01
-0.02
-0.02
-0.02
-0.02
-0.025
-0.02
-0.02
-0.02
-0.015
-0.015
-0.02
-0.015
-0.02
-0.025
-0.03
-0.03
-0.035
-0.035
-0.04
-0.04
-0.04
-0.05
-0.045
-0.05
-0.055
-0.055
-0.05
-0.055
-0.06
-0.07
-0.065
-0.065
-0.07
-0.07
-0.075
-0.065
-0.045
-0.035
-0.05
-0.09
-0.055
-0.125
-0.11
-0.1
-0.075
-0.075
-0.085
-0.085
-0.075
-0.075
-0.07
-0.075
-0.065
-0.065
-0.06
-0.06
-0.055
0.07
0.245
0.775
0.715
0.41
0.265
0.095
0.03
0.0
-0.005
-0.025
-0.03
-0.035
-0.025
-0.03
-0.03
-0.035
-0.035
-0.025
-0.02
-0.025
-0.025
-0.015
-0.015
-0.01
0.0
0.005
0.025
0.03
0.055
0.08
0.1
0.105
0.095
0.08
0.055
0.02
0.005
-0.005
-0.015
-0.02
-0.025
-0.025
-0.025
-0.02
-0.02
-0.02
-0.015
-0.02
-0.025
-0.025
-0.02
-0.025
-0.035
-0.03
-0.035
-0.04
-0.04
-0.045
-0.045
-0.055
-0.06
-0.06
-0.055
-0.06
-0.06
-0.07
-0.07
-0.075
-0.07
-0.085
-0.075
-0.045
-0.035
-0.045
-0.1
-0.06
-0.105
-0.105
-0.1
-0.075
-0.09
-0.085
-0.09
-0.08
-0.08
-0.08
-0.085
-0.075
-0.075
-0.07
-0.075
-0.075
0.085
0.27
0.77
0.71
0.38
0.25
0.095
0.01
-0.015
-0.02
-0.035
-0.035
-0.04
-0.04
-0.05
-0.04
-0.045
-0.04
-0.04
-0.035
-0.035
-0.035
-0.03
-0.02
-0.015
-0.01
0.0
0.01
0.02
0.04
0.065
0.08
0.095
0.095
0.08
0.055
0.03
0.01
-0.005
-0.005
-0.015
-0.015
-0.02
-0.015
-0.015
-0.015
-0.015
-0.015
-0.015
-0.015
-0.015
-0.02
-0.02
-0.025
-0.025
-0.03
-0.035
-0.035
-0.035
-0.04
-0.04
-0.045
-0.045
-0.045
-0.05
-0.05
-0.055
-0.055
-0.055
-0.06
-0.06
-0.065
-0.065
-0.07
-0.05
-0.03
-0.03
-0.055
-0.06
-0.09
-0.115
-0.11
-0.085
-0.08
-0.08
-0.09
-0.08
-0.08
-0.075
-0.075
-0.07
-0.07
-0.07
-0.065
-0.075
0.06
0.125
0.615
0.775
0.47
0.285
0.11
0.03
0.005
-0.005
-0.02
-0.02
-0.025
-0.03
-0.035
-0.025
-0.03
-0.025
-0.02
-0.015
-0.015
-0.01
-0.005
0.0
0.005
0.02
0.03
0.055
0.07
0.095
0.115
0.14
0.155
0.15
0.12
0.085
0.045
0.015
-0.005
-0.02
-0.025
-0.035
-0.035
-0.035
-0.035
-0.03
-0.025
-0.025
-0.02
-0.02
-0.02
-0.02
-0.02
-0.02
-0.025
-0.03
-0.03
-0.04
-0.045
-0.05
-0.05
-0.055
-0.055
-0.055
-0.06
-0.06
-0.06
-0.06
-0.065
-0.065
-0.07
-0.07
-0.075
-0.075
-0.08
-0.05
-0.035
-0.06
-0.085
-0.055
-0.12
-0.125
-0.11
-0.08
-0.08
-0.085
-0.085
-0.075
-0.08
-0.07
-0.075
-0.07
-0.075
-0.065
-0.07
-0.065
0.06
0.18
0.715
0.73
0.435
0.26
0.07
0.015
-0.005
-0.02
-0.03
-0.03
-0.035
-0.035
-0.04
-0.03
-0.035
-0.03
-0.03
-0.025
-0.025
-0.02
-0.015
-0.005
0.0
0.01
0.025
0.045
0.06
0.085
0.11
0.135
0.145
0.135
0.105
0.07
0.04
0.01
-0.01
-0.015
-0.02
-0.02
-0.02
-0.02
-0.02
-0.02
-0.015
-0.015
-0.015
-0.01
-0.01
-0.015
-0.01
-0.01
-0.015
-0.02
-0.02
-0.025
-0.025
-0.03
-0.035
-0.035
-0.04
-0.035
-0.04
-0.045
-0.05
-0.055
-0.055
-0.055
-0.055
-0.06
-0.065
-0.065
-0.065
-0.07
-0.07
-0.075
-0.07
-0.075
-0.055
-0.035
-0.035
-0.06
-0.065
-0.09
-0.12
-0.11
-0.09
-0.075
-0.085
-0.085
-0.07
-0.075
-0.07
-0.07
-0.07
-0.075
-0.065
-0.06
-0.08
0.025
0.07
0.455
0.865
0.575
0.32
0.195
0.04
0.02
0.0
-0.01
-0.025
-0.03
-0.03
-0.03
-0.035
-0.025
-0.02
-0.03
-0.02
-0.02
-0.02
-0.025
-0.015
-0.01
0.0
0.02
0.035
0.045
0.06
0.08
0.1
0.14
0.145
0.12
0.09
0.05
0.015
-0.005
-0.01
-0.02
-0.025
-0.035
-0.035
-0.035
-0.035
-0.035
-0.025
-0.03
-0.03
-0.03
-0.025
-0.035
-0.03
-0.03
-0.03
-0.035
-0.04
-0.035
-0.045
-0.05
-0.05
-0.045
-0.05
-0.05
-0.055
-0.045
-0.05
-0.07
-0.07
-0.065
-0.06
-0.06
-0.06
-0.04
-0.02
-0.025
-0.065
-0.025
-0.095
-0.1
-0.105
-0.065
-0.07
-0.08
-0.09
-0.07
-0.08
-0.07
-0.08
-0.075
-0.09
-0.07
-0.07
-0.08
0.095
0.235
0.75
0.745
0.415
0.265
0.105
0.03
-0.005
-0.02
-0.025
-0.04
-0.04
-0.04
-0.055
-0.055
-0.065
-0.03
-0.035
-0.035
-0.015
-0.015
0.03
0.04
0.015
-0.01
0.01
0.03
0.055
0.045
0.065
0.105
0.09
0.105
0.125
0.065
0.04
0.03
0.025
0.05
-0.02
0.0
-0.015
-0.03
-0.01
-0.015
0.04
-0.01
0.005
-0.01
-0.025
0.0
-0.01
-0.025
-0.015
-0.01
-0.03
-0.015
-0.01
-0.02
0.0
-0.01
-0.025
-0.05
-0.025
0.0
-0.055
0.015
0.065
0.075
-0.005
0.015
-0.015
-0.025
-0.025
-0.03
-0.03
-0.075
0.025
-0.005
-0.075
-0.03
-0.045
-0.035
0.0
-0.03
0.0
0.135
0.34
0.77
0.69
0.38
0.265
0.12
0.055
0.0
0.01
-0.005
0.04
-0.025
-0.02
-0.045
-0.035
0.02
0.015
-0.095
0.03
-0.04
-0.05
-0.03
-0.02
-0.025
-0.015
0.055
0.01
0.005
-0.01
0.055
0.04
0.065
0.055
0.05
0.015
0.035
0.0
-0.03
-0.025
-0.025
-0.03
-0.015
-0.02
-0.005
-0.065
-0.045
-0.035
-0.07
-0.03
-0.065
-0.05
-0.04
-0.05
-0.095
-0.035
-0.035
-0.075
-0.03
-0.12
-0.085
-0.06
-0.07
-0.1
-0.07
-0.02
-0.055
0.06
-0.065
-0.015
0.0
-0.07
-0.07
-0.08
-0.06
-0.05
-0.115
-0.09
-0.065
-0.095
-0.12
-0.075
-0.065
-0.08
-0.03
-0.035
0.13
0.265
0.705
0.605
0.385
0.23
0.085
0.01
-0.005
-0.03
-0.085
0.0
-0.04
-0.06
-0.025
-0.06
-0.06
-0.035
-0.05
-0.005
-0.05
-0.025
-0.055
-0.05
-0.005
-0.03
0.015
0.0
-0.015
0.04
0.04
0.085
0.09
0.08
0.04
0.045
0.0
-0.005
0.025
-0.05
-0.035
-0.005
-0.03
-0.025
-0.035
0.0
-0.01
0.0
-0.035
-0.005
0.015
-0.055
-0.03
-0.025
-0.015
-0.04
-0.03
-0.02
-0.04
-0.035
-0.085
-0.04
-0.045
-0.075
-0.055
-0.075
-0.045
0.005
0.055
0.005
0.04
-0.01
-0.055
-0.065
-0.055
-0.075
-0.06
-0.075
-0.085
-0.08
-0.085
-0.115
-0.105
-0.045
-0.1
-0.115
0.03
0.14
0.475
0.885
0.51
0.325
0.215
-0.02
0.045
-0.02
-0.075
-0.02
-0.11
-0.015
-0.065
-0.1
-0.015
-0.08
0.04
-0.045
0.0
0.01
0.0
0.025
-0.025
-0.01
-0.025
0.035
0.015
0.04
0.045
0.065
0.085
0.125
0.085
0.035
0.025
0.01
-0.005
-0.065
-0.055
-0.005
-0.07
-0.085
-0.015
-0.07
-0.08
-0.06
-0.065
-0.065
-0.025
-0.06
-0.07
-0.055
-0.125
-0.035
-0.05
-0.055
-0.06
-0.075
-0.09
-0.1
-0.095
-0.13
-0.105
-0.1
-0.095
-0.035
-0.075
-0.045
-0.045
-0.045
-0.035
-0.07
-0.06
-0.085
-0.08
-0.09
-0.115
-0.04
-0.13
-0.145
-0.125
-0.06
-0.135
-0.115
-0.18
-0.05
0.055
0.335
0.85
0.575
0.37
0.14
0.005
0.0
0.015
-0.045
-0.035
-0.015
-0.025
-0.035
0.0
-0.015
-0.04
0.025
0.025
0.03
0.06
0.01
0.02
0.045
0.055
0.035
0.09
0.105
0.065
0.025
0.035
0.135
0.16
0.135
0.14
0.12
0.17
0.12
0.135
0.045
0.075
0.0
0.0
0.02
-0.015
0.165
-0.125
-0.185
-0.165
-0.195
-0.16
-0.135
-0.135
-0.115
-0.075
-0.075
-0.065
-0.085
-0.065
-0.04
-0.05
-0.065
-0.105
-0.105
-0.1
-0.065
-0.045
-0.08
-0.04
-0.095
0.01
0.0
-0.03
-0.135
-0.13
-0.125
-0.085
0.095
0.205
-0.23
-0.095
-0.045
0.1
-0.25
-0.025
-0.06
-0.06
0.495
0.245
0.765
0.76
0.55
0.295
0.21
0.145
0.14
-0.03
-0.165
0.445
0.12
-0.385
-0.095
-0.035
-0.025
-0.065
0.215
-0.115
0.005
-0.19
-0.145
-0.075
-0.065
0.02
-0.165
-0.04
-0.085
0.005
0.0
0.045
0.09
0.035
0.015
0.0
-0.02
-0.01
-0.06
-0.015
-0.045
0.01
-0.01
-0.105
-0.16
-0.065
-0.055
-0.055
0.04
-0.015
-0.06
-0.075
-0.02
-0.145
-0.11
-0.065
-0.085
-0.07
-0.045
-0.07
-0.11
-0.07
-0.065
-0.105
-0.105
-0.035
-0.085
-0.125
-0.075
-0.075
-0.11
-0.135
-0.095
-0.075
-0.095
-0.075
-0.075
-0.08
-0.07
-0.025
-0.105
-0.085
-0.09
-0.075
0.0
0.125
0.385
0.845
0.7
0.345
0.26
0.085
-0.005
-0.025
-0.03
-0.025
-0.08
-0.06
0.015
-0.1
-0.075
-0.05
-0.04
-0.06
-0.08
-0.06
-0.065
-0.05
-0.06
-0.07
-0.055
-0.045
-0.035
-0.035
-0.015
-0.01
0.0
0.02
0.025
0.01
-0.025
-0.015
-0.06
-0.045
-0.06
-0.065
-0.06
-0.065
-0.065
-0.065
-0.075
-0.085
-0.07
-0.075
-0.08
-0.085
-0.085
-0.075
-0.085
-0.085
-0.09
-0.09
-0.095
-0.085
-0.09
-0.095
-0.1
-0.115
-0.09
-0.09
-0.05
-0.095
-0.14
-0.09
-0.11
-0.145
-0.115
-0.1
-0.1
-0.1
-0.115
-0.1
-0.095
-0.055
-0.065
-0.095
-0.065
-0.06
-0.13
0.0
0.225
0.41
0.785
0.615
0.365
0.225
0.105
0.025
0.02
-0.125
-0.03
-0.01
-0.09
-0.035
-0.065
-0.115
-0.045
-0.03
-0.07
0.01
-0.13
-0.08
-0.145
-0.075
-0.055
0.05
0.0
-0.135
-0.05
-0.005
0.025
0.08
0.1
-0.01
0.07
-0.04
-0.05
0.105
-0.115
-0.1
-0.115
-0.105
-0.195
-0.12
-0.115
-0.08
0.1
-0.2
-0.04
0.02
-0.065
-0.095
-0.045
-0.01
0.0
0.165
0.065
0.055
0.02
0.085
0.095
0.08
0.09
0.08
0.08
0.095
0.115
0.085
0.02
-0.01
-0.04
-0.12
-0.13
-0.13
-0.115
-0.14
-0.15
-0.135
-0.125
-0.1
-0.115
-0.09
-0.085
-0.07
-0.095
0.0
0.07
0.3
0.69
0.45
0.265
0.2
0.04
0.005
-0.02
-0.03
-0.045
-0.05
-0.055
-0.04
-0.05
-0.045
-0.05
-0.04
-0.04
-0.035
-0.035
-0.03
-0.025
-0.01
-0.005
0.005
0.015
0.03
0.05
0.075
0.105
0.13
0.13
0.12
0.085
0.045
0.005
-0.01
-0.04
-0.05
-0.055
-0.055
-0.055
-0.05
-0.045
-0.055
-0.04
-0.05
-0.055
-0.04
-0.04
-0.05
-0.045
-0.06
-0.04
-0.065
-0.06
-0.065
-0.065
-0.07
-0.075
-0.07
-0.085
-0.075
-0.1
-0.085
-0.125
-0.16
-0.12
-0.105
-0.16
-0.115
-0.13
-0.085
-0.09
-0.085
-0.085
-0.08
-0.085
-0.07
-0.075
-0.07
-0.07
-0.07
0.06
0.1
0.575
0.79
0.495
0.295
0.165
0.035
0.01
0.0
-0.015
-0.015
-0.025
-0.025
-0.03
-0.02
-0.03
-0.025
-0.025
-0.02
-0.02
-0.02
-0.02
-0.015
-0.01
0.0
0.01
0.025
0.04
0.06
0.085
0.11
0.13
0.13
0.105
0.075
0.03
0.0
-0.01
-0.03
-0.035
-0.035
-0.035
-0.04
-0.035
-0.04
-0.04
-0.035
-0.035
-0.035
-0.035
-0.04
-0.04
-0.05
-0.055
-0.06
-0.06
-0.07
-0.065
-0.07
-0.07
-0.08
-0.06
-0.095
-0.11
-0.115
-0.165
-0.105
-0.115
-0.16
-0.1
-0.105
-0.075
-0.08
-0.07
-0.08
-0.07
-0.07
-0.06
-0.065
-0.05
-0.06
-0.055
0.075
0.175
0.695
0.75
0.465
0.275
0.11
0.03
0.0
-0.005
-0.015
-0.015
-0.025
-0.02
-0.025
-0.025
-0.03
-0.025
-0.03
-0.025
-0.025
-0.015
-0.025
-0.015
-0.01
-0.005
0.01
0.02
0.035
0.06
0.08
0.105
0.125
0.12
0.085
0.06
0.02
-0.01
-0.025
-0.03
-0.035
-0.04
-0.04
-0.04
-0.035
-0.035
-0.03
-0.035
-0.035
-0.035
-0.04
-0.04
-0.04
-0.05
-0.055
-0.05
-0.06
-0.06
-0.07
-0.07
-0.07
-0.065
-0.09
-0.095
-0.12
-0.15
-0.105
-0.11
-0.155
-0.11
-0.11
-0.075
-0.085
-0.07
-0.08
-0.065
-0.07
-0.06
-0.065
-0.055
-0.06
-0.07
0.07
0.135
0.645
0.78
0.5
0.275
0.12
0.03
0.005
0.0
-0.02
-0.015
-0.025
-0.025
-0.03
-0.025
-0.03
-0.025
-0.025
-0.025
-0.025
-0.02
-0.025
-0.015
-0.01
0.0
0.01
0.03
0.035
0.06
0.085
0.11
0.13
0.125
0.095
0.07
0.03
0.0
-0.015
-0.025
-0.035
-0.035
-0.035
-0.035
-0.03
-0.04
-0.035
-0.035
-0.04
-0.04
-0.045
-0.04
-0.045
-0.055
-0.055
-0.05
-0.065
-0.06
-0.055
-0.06
-0.065
-0.06
-0.075
-0.085
-0.135
-0.125
-0.12
-0.095
-0.15
-0.115
-0.105
-0.075
-0.075
-0.065
-0.06
-0.065
-0.065
-0.05
-0.055
-0.05
-0.05
-0.075
0.055
0.09
0.53
0.835
0.555
0.3
0.175
0.045
0.025
0.0
-0.01
-0.01
-0.02
-0.02
-0.03
-0.03
-0.025
-0.03
-0.025
-0.02
-0.03
-0.025
-0.025
-0.02
-0.015
-0.015
0.0
0.01
0.025
0.04
0.065
0.095
0.1
0.105
0.095
0.075
0.04
0.005
-0.01
-0.02
-0.04
-0.04
-0.03
-0.035
-0.035
-0.03
-0.035
-0.04
-0.035
-0.045
-0.04
-0.045
-0.035
-0.05
-0.05
-0.065
-0.055
-0.07
-0.07
-0.065
-0.065
-0.085
-0.075
-0.12
-0.145
-0.095
-0.105
-0.14
-0.1
-0.09
-0.07
-0.075
-0.065
-0.07
-0.06
-0.07
-0.06
-0.055
-0.05
-0.06
-0.08
0.095
0.185
0.66
0.785
0.465
0.27
0.145
0.025
0.0
-0.005
-0.015
-0.02
-0.04
-0.02
-0.04
-0.04
-0.045
-0.04
-0.045
-0.03
-0.05
-0.045
-0.03
-0.03
-0.03
-0.025
-0.015
0.0
0.0
0.025
0.05
0.055
0.085
0.09
0.065
0.04
0.02
-0.01
-0.025
-0.035
-0.04
-0.035
-0.04
-0.045
-0.055
-0.05
-0.05
-0.06
-0.055
-0.055
-0.055
-0.065
-0.065
-0.075
-0.065
-0.07
-0.08
-0.08
-0.075
-0.08
-0.08
-0.095
-0.1
-0.09
-0.15
-0.1
-0.105
-0.15
-0.115
-0.1
-0.08
-0.09
-0.085
-0.085
-0.075
-0.075
-0.075
-0.07
-0.06
-0.075
-0.025
0.1
0.32
0.78
0.63
0.365
0.255
0.085
0.02
0.005
-0.01
-0.02
-0.02
-0.03
-0.03
-0.03
-0.035
-0.035
-0.04
-0.035
-0.04
-0.04
-0.035
-0.04
-0.03
-0.03
-0.015
-0.015
0.0
0.015
0.035
0.055
0.075
0.1
0.085
0.07
0.035
0.0
-0.015
-0.03
-0.035
-0.045
-0.045
-0.04
-0.04
-0.05
-0.04
-0.045
-0.045
-0.04
-0.04
-0.045
-0.05
-0.055
-0.06
-0.06
-0.065
-0.065
-0.065
-0.07
-0.075
-0.075
-0.07
-0.06
-0.075
-0.1
-0.11
-0.07
-0.135
-0.13
-0.105
-0.085
-0.08
-0.085
-0.08
-0.07
-0.07
-0.065
-0.065
-0.065
-0.06
-0.075
0.045
0.075
0.5
0.825
0.53
0.285
0.165
0.03
0.01
0.0
-0.015
-0.02
-0.025
-0.025
-0.03
-0.03
-0.035
-0.02
-0.035
-0.025
-0.025
-0.025
-0.02
-0.015
-0.01
0.0
0.005
0.025
0.04
0.06
0.08
0.11
0.13
0.13
0.115
0.07
0.035
0.0
-0.015
-0.035
-0.045
-0.05
-0.05
-0.045
-0.045
-0.045
-0.045
-0.045
-0.045
-0.04
-0.03
-0.045
-0.045
-0.055
-0.055
-0.065
-0.06
-0.075
-0.065
-0.08
-0.06
-0.05
-0.065
-0.095
-0.09
-0.075
-0.12
-0.135
-0.105
-0.085
-0.08
-0.095
-0.08
-0.08
-0.075
-0.08
-0.065
-0.075
-0.055
-0.06
-0.065
0.075
0.215
0.73
0.725
0.425
0.26
0.08
0.01
-0.005
-0.015
-0.03
-0.035
-0.04
-0.035
-0.04
-0.035
-0.045
-0.04
-0.035
-0.04
-0.035
-0.03
-0.03
-0.02
-0.015
0.0
0.005
0.02
0.04
0.06
0.08
0.11
0.115
0.105
0.075
0.045
0.01
-0.01
-0.025
-0.035
-0.045
-0.045
-0.04
-0.04
-0.035
-0.04
-0.035
-0.04
-0.035
-0.035
-0.045
-0.05
-0.05
-0.05
-0.06
-0.06
-0.065
-0.07
-0.07
-0.075
-0.05
-0.03
-0.045
-0.075
-0.035
-0.09
-0.115
-0.115
-0.075
-0.07
-0.08
-0.08
-0.07
-0.07
-0.07
-0.07
-0.065
-0.06
-0.05
-0.065
-0.025
0.075
0.315
0.81
0.66
0.36
0.23
0.05
0.01
-0.01
-0.02
-0.025
-0.035
-0.04
-0.04
-0.04
-0.035
-0.04
-0.035
-0.035
-0.03
-0.03
-0.03
-0.02
-0.02
-0.01
0.0
0.01
0.03
0.04
0.06
0.09
0.115
0.11
0.1
0.07
0.035
0.005
-0.01
-0.025
-0.035
-0.035
-0.035
-0.035
-0.03
-0.03
-0.025
-0.03
-0.03
-0.025
-0.03
-0.035
-0.04
-0.04
-0.045
-0.055
-0.055
-0.06
-0.06
-0.065
-0.07
-0.075
-0.05
-0.025
-0.03
-0.06
-0.045
-0.075
-0.1
-0.11
-0.075
-0.07
-0.08
-0.085
-0.075
-0.075
-0.07
-0.07
-0.075
-0.07
-0.06
-0.07
-0.045
0.075
0.25
0.76
0.685
0.4
0.25
0.05
0.01
-0.01
-0.02
-0.04
-0.035
-0.05
-0.04
-0.04
-0.04
-0.04
-0.035
-0.035
-0.035
-0.03
-0.025
-0.025
-0.02
-0.015
-0.005
0.01
0.025
0.04
0.06
0.085
0.1
0.115
0.095
0.065
0.035
0.005
-0.015
-0.03
-0.04
-0.045
-0.04
-0.045
-0.05
-0.045
-0.04
-0.045
-0.045
-0.04
-0.045
-0.045
-0.05
-0.055
-0.06
-0.06
-0.065
-0.07
-0.07
-0.07
-0.08
-0.075
-0.08
-0.065
-0.05
-0.03
-0.035
-0.075
-0.04
-0.09
-0.115
-0.11
-0.08
-0.075
-0.09
-0.075
-0.09
-0.075
-0.085
-0.08
-0.075
-0.07
-0.065
-0.08
0.0
0.05
0.41
0.84
0.6
0.315
0.18
0.02
0.0
-0.025
-0.035
-0.04
-0.045
-0.045
-0.045
-0.045
-0.045
-0.04
-0.04
-0.035
-0.04
-0.04
-0.03
-0.025
-0.025
-0.01
0.0
0.01
0.03
0.045
0.07
0.09
0.11
0.115
0.09
0.06
0.03
0.0
-0.01
-0.03
-0.035
-0.03
-0.035
-0.035
-0.03
-0.03
-0.03
-0.025
-0.025
-0.03
-0.03
-0.03
-0.035
-0.04
-0.04
-0.045
-0.05
-0.055
-0.055
-0.055
-0.06
-0.06
-0.065
-0.07
-0.06
-0.05
-0.02
-0.035
-0.07
-0.045
-0.08
-0.105
-0.105
-0.065
-0.075
-0.08
-0.075
-0.08
-0.07
-0.075
-0.07
-0.06
-0.05
-0.05
-0.07
0.01
0.06
0.395
0.845
0.605
0.325
0.215
0.045
0.02
0.0
-0.015
-0.025
-0.035
-0.03
-0.03
-0.03
-0.03
-0.025
-0.025
-0.02
-0.025
-0.025
-0.015
-0.015
-0.01
0.0
0.005
0.01
0.03
0.045
0.075
0.085
0.105
0.105
0.095
0.065
0.03
0.0
-0.01
-0.01
-0.03
-0.035
-0.03
-0.03
-0.03
-0.03
-0.04
-0.03
-0.02
-0.02
-0.025
-0.045
-0.045
-0.045
-0.045
-0.045
-0.045
-0.055
-0.055
-0.06
-0.07
-0.065
-0.065
-0.065
-0.055
-0.03
-0.02
-0.02
-0.07
-0.045
-0.08
-0.1
-0.105
-0.06
-0.06
-0.085
-0.08
-0.075
-0.07
-0.07
-0.075
-0.055
-0.065
-0.05
-0.055
-0.035
0.095
0.34
0.805
0.63
0.345
0.245
0.08
0.01
0.0
-0.015
-0.035
-0.03
-0.03
-0.04
-0.035
-0.025
-0.05
-0.03
-0.04
-0.025
-0.03
-0.03
-0.03
-0.02
-0.015
0.0
0.005
0.015
0.01
0.04
0.06
0.075
0.095
0.07
0.055
0.025
0.0
-0.005
-0.015
-0.025
-0.03
-0.03
-0.035
-0.03
-0.04
-0.035
-0.035
-0.025
-0.035
-0.045
-0.035
-0.04
-0.045
-0.045
-0.055
-0.06
-0.055
-0.065
-0.065
-0.07
-0.065
-0.075
-0.08
-0.075
-0.055
-0.03
-0.04
-0.07
-0.055
-0.095
-0.105
-0.115
-0.08
-0.085
-0.085
-0.095
-0.085
-0.09
-0.08
-0.085
-0.075
-0.075
-0.065
-0.07
-0.07
0.105
0.185
0.67
0.765
0.43
0.265
0.12
0.025
0.0
-0.005
-0.02
-0.03
-0.03
-0.03
-0.035
-0.025
-0.035
-0.035
-0.035
-0.03
-0.035
-0.03
-0.03
-0.02
-0.02
-0.01
0.0
0.015
0.025
0.04
0.06
0.08
0.095
0.085
0.07
0.045
0.015
0.0
-0.015
-0.02
-0.02
-0.025
-0.025
-0.025
-0.025
-0.025
-0.02
-0.02
-0.015
-0.025
-0.02
-0.025
-0.025
-0.03
-0.035
-0.035
-0.04
-0.045
-0.055
-0.055
-0.055
-0.06
-0.06
-0.06
-0.065
-0.07
-0.07
-0.075
-0.06
-0.03
-0.035
-0.06
-0.065
-0.08
-0.115
-0.11
-0.085
-0.075
-0.085
-0.085
-0.075
-0.085
-0.075
-0.075
-0.075
-0.075
-0.07
-0.07
-0.085
0.025
0.075
0.49
0.84
0.52
0.29
0.15
0.02
0.0
-0.01
-0.025
-0.025
-0.035
-0.03
-0.04
-0.035
-0.03
-0.035
-0.03
-0.03
-0.025
-0.02
-0.01
-0.005
0.0
0.005
0.025
0.04
0.06
0.075
0.1
0.125
0.135
0.125
0.1
0.065
0.03
0.005
-0.01
-0.02
-0.03
-0.03
-0.03
-0.03
-0.025
-0.025
-0.02
-0.015
-0.015
-0.01
-0.01
-0.01
-0.015
-0.015
-0.02
-0.02
-0.025
-0.025
-0.04
-0.04
-0.045
-0.045
-0.05
-0.045
-0.05
-0.055
-0.055
-0.05
-0.06
-0.06
-0.06
-0.06
-0.075
-0.065
-0.075
-0.06
-0.045
-0.02
-0.025
-0.065
-0.035
-0.095
-0.105
-0.1
-0.075
-0.075
-0.09
-0.08
-0.085
-0.075
-0.08
-0.07
-0.08
-0.07
-0.07
-0.06
-0.08
-0.02
0.07
0.38
0.865
0.625
0.34
0.21
0.03
0.01
-0.015
-0.02
-0.035
-0.035
-0.04
-0.035
-0.035
-0.03
-0.03
-0.02
-0.03
-0.025
-0.02
-0.015
-0.01
-0.005
0.0
0.015
0.035
0.05
0.065
0.09
0.11
0.13
0.135
0.11
0.08
0.05
0.02
0.0
-0.01
-0.02
-0.02
-0.02
-0.02
-0.02
-0.015
-0.015
-0.01
-0.005
-0.005
-0.005
0.0
0.0
-0.005
-0.005
-0.01
-0.01
-0.02
-0.02
-0.025
-0.025
-0.035
-0.03
-0.03
-0.04
-0.04
-0.04
-0.045
-0.045
-0.045
-0.045
-0.05
-0.055
-0.06
-0.06
-0.065
-0.065
-0.075
-0.065
-0.075
-0.075
-0.06
-0.01
-0.02
-0.055
-0.015
-0.08
-0.1
-0.11
-0.08
-0.075
-0.09
-0.09
-0.09
-0.08
-0.085
-0.08
-0.08
-0.07
-0.07
-0.065
-0.08
-0.005
0.065
0.415
0.86
0.59
0.305
0.185
0.025
0.0
-0.02
-0.03
-0.04
-0.04
-0.045
-0.04
-0.04
-0.035
-0.04
-0.035
-0.035
-0.025
-0.02
-0.025
-0.01
-0.01
0.0
0.015
0.03
0.05
0.065
0.085
0.11
0.13
0.13
0.11
0.08
0.045
0.015
-0.005
-0.015
-0.02
-0.025
-0.025
-0.025
-0.025
-0.02
-0.015
-0.02
-0.015
-0.005
-0.01
-0.01
-0.015
-0.015
-0.015
-0.02
-0.025
-0.025
-0.025
-0.025
-0.035
-0.035
-0.035
-0.04
-0.04
-0.04
-0.045
-0.05
-0.045
-0.05
-0.055
-0.055
-0.06
-0.06
-0.065
-0.06
-0.07
-0.07
-0.07
-0.075
-0.075
-0.085
-0.08
-0.08
-0.065
-0.015
-0.015
-0.07
-0.02
-0.095
-0.1
-0.12
-0.075
-0.08
-0.085
-0.095
-0.085
-0.085
-0.08
-0.08
-0.07
-0.075
-0.07
-0.075
-0.075
0.06
0.155
0.68
0.72
0.435
0.25
0.075
0.015
-0.01
-0.015
-0.03
-0.035
-0.035
-0.03
-0.03
-0.03
-0.035
-0.03
-0.03
-0.02
-0.03
-0.015
-0.015
-0.005
0.0
0.01
0.02
0.035
0.055
0.08
0.105
0.13
0.135
0.13
0.105
0.065
0.03
0.005
-0.015
-0.02
-0.03
-0.03
-0.03
-0.025
-0.03
-0.035
-0.025
-0.025
-0.025
-0.025
-0.025
-0.01
-0.02
-0.02
-0.025
-0.025
-0.04
-0.04
-0.045
-0.035
-0.05
-0.045
-0.05
-0.05
-0.065
-0.055
-0.07
-0.065
-0.06
-0.07
-0.08
-0.08
-0.07
-0.07
-0.08
-0.07
-0.035
-0.02
-0.02
-0.05
-0.045
-0.08
-0.095
-0.085
-0.075
-0.075
-0.085
-0.09
-0.08
-0.08
-0.08
-0.065
-0.065
-0.06
-0.07
-0.075
0.065
0.135
0.655
0.785
0.445
0.265
0.13
0.025
0.0
0.0
-0.025
-0.03
-0.03
-0.035
-0.03
-0.02
-0.045
-0.04
-0.035
-0.02
-0.03
-0.01
-0.01
-0.015
-0.01
0.0
0.01
0.035
0.05
0.065
0.085
0.105
0.13
0.12
0.095
0.075
0.035
0.04
0.005
-0.005
0.0
0.01
0.015
0.0
0.01
0.0
0.015
-0.005
0.04
0.02
0.015
0.0
0.03
0.0
0.0
0.035
0.015
0.0
0.02
0.0
0.015
0.015
0.025
0.06
0.135
0.115
0.13
0.16
0.115
0.15
0.14
0.19
0.185
0.135
0.08
0.055
0.02
0.03
-0.03
-0.025
0.0
0.095
0.0
0.01
0.055
0.005
-0.1
0.035
0.095
0.125
0.06
0.155
0.43
0.885
0.68
0.44
0.485
0.405
0.305
0.375
0.37
0.39
0.285
0.37
0.4
0.29
0.305
0.385
0.325
-0.14
0.23
0.37
0.355
0.39
0.35
0.375
0.325
0.42
0.215
0.325
0.44
0.565
0.6
0.585
0.63
0.62
0.72
0.53
0.665
0.6
0.555
0.585
0.615
0.53
0.62
0.465
0.465
0.39
0.5
0.355
0.205
0.295
0.345
0.34
0.17
0.45
0.44
0.345
0.33
0.365
0.035
0.155
-0.46
0.045
0.08
-0.17
-0.25
-0.9
-0.59
-0.415
-0.725
-0.95
-0.46
-0.605
-0.76
-1.125
-1.44
-1.46
-1.39
-0.88
-0.515
-0.815
-1.33
-1.235
-1.405
-2.385
-1.79
-1.445
-0.58
0.34
0.265
-0.155
-0.09
-0.37
-1.085
-0.47
-0.085
-0.18
-0.53
-0.01
0.105
-0.22
-0.01
0.1
-0.02
-0.245
-0.495
-0.405
0.145
-0.255
-0.18
-0.135
-0.105
-0.11
0.06
0.155
0.02
0.025
0.27
0.15
0.15
0.075
0.06
0.085
-0.07
0.075
-0.115
-0.015
-0.155
-0.085
-0.09
-0.025
0.095
-0.3
-0.1
0.105
-0.31
-0.295
-0.23
0.1
-0.315
-0.345
-0.235
-0.05
-0.365
-0.27
-0.245
-0.22
-0.345
-0.16
-0.315
-0.295
-0.48
-0.145
-0.525
-0.31
-0.32
-0.33
-0.395
-0.075
-0.405
0.03
0.48
-0.305
-0.4
-0.18
0.465
0.585
-0.515
-0.61
0.65
-0.24
0.275
1.265
0.805
-0.145
0.295
1.0
-0.195
0.04
0.085
0.295
5.73
-1.19
-2.42
-0.245
-0.2
-0.025
-0.08
-0.02
3.495
0.285
-2.23
-0.325
-0.025
0.215
-0.055
-0.075
0.78
4.015
-2.935
-1.055
0.05
-0.125
0.065
0.01
0.255
-0.07
0.295
-0.01
-0.015
-0.205
-0.015
-0.16
0.03
0.03
-0.07
0.635
0.025
-0.485
-0.34
-0.2
-0.09
-0.21
-0.035
1.385
-0.355
-0.815
-0.505
-0.135
-0.28
-0.055
-0.055
0.4
-0.23
-0.49
-0.24
-0.53
-0.38
-0.19
-0.405
-0.205
-0.42
-0.255
0.17
-0.515
-0.415
-0.355
1.81
-2.05
-0.78
1.0
-0.675
-0.29
0.05
-0.9
0.27
0.615
-1.22
-0.27
0.695
0.29
-0.195
1.0
3.04
-1.82
1.265
-0.53
-0.05
-0.095
2.065
-0.19
-0.755
3.32
1.18
-2.125
-0.105
-0.43
3.485
0.445
-1.04
-1.535
0.565
5.195
0.595
-3.065
-0.68
0.71
-0.095
3.665
-0.47
3.065
-2.555
-0.375
0.58
1.505
0.93
0.24
-0.915
2.1
-0.55
-2.25
0.635
0.495
0.28
-0.04
0.09
1.46
-2.29
-0.495
0.47
-0.19
0.945
-0.525
-0.15
0.325
-0.335
-0.395
0.8
-0.425
0.37
-0.39
0.13
-0.13
0.005
-0.41
0.15
0.045
0.05
0.0
0.175
-0.055
0.17
0.0
0.0
-0.015
-0.13
-0.23
0.01
-0.155
0.08
-0.105
-0.06
-0.185
0.045
-0.05
0.685
0.785
0.435
0.285
0.25
-0.09
-0.065
0.095
0.18
-0.555
0.13
-0.2
-0.09
-0.22
-0.15
1.07
-0.75
-0.225
-0.085
0.975
-1.01
-0.22
0.185
-0.08
0.08
0.075
0.35
0.425
0.205
0.04
0.25
0.14
0.16
0.12
-0.01
0.04
0.02
-0.21
0.01
0.085
-0.35
-0.25
-0.04
-0.02
-0.23
0.065
-0.115
-0.055
-0.23
0.19
0.305
0.48
-1.23
-0.29
1.96
-1.09
-0.255
-0.645
0.8
0.525
-0.985
-0.845
-0.27
-0.1
-0.315
-0.025
1.235
-1.6
-0.635
-0.445
-0.59
0.145
-0.935
-0.305
-0.22
0.21
-0.885
-0.285
-0.405
-0.45
-0.295
-0.37
-0.275
-0.15
0.105
0.805
1.2
-0.355
-0.205
0.115
0.165
1.57
-1.38
-0.18
-0.05
-0.315
0.105
-0.24
0.47
0.415
-0.72
-0.27
0.15
-0.06
-0.035
0.375
1.085
-0.795
0.165
0.265
0.38
0.285
0.455
0.54
0.175
0.35
0.175
0.745
0.02
0.15
0.41
0.14
0.115
0.17
0.28
-0.085
0.24
0.565
0.245
0.225
0.59
0.65
0.555
0.18
0.315
0.78
0.265
-0.045
0.465
0.755
0.025
0.05
-0.225
-0.29
0.005
-0.43
-0.305
-0.125
-0.24
-0.76
-0.345
-0.71
-0.925
-0.74
-1.115
-0.83
-0.815
-1.02
-0.875
-0.83
-0.87
-0.76
-1.34
-0.39
-0.735
-0.745
-0.33
-0.055
0.52
0.46
0.065
-0.205
-0.305
0.0
-0.135
-0.675
-0.13
0.0
-0.205
-0.155
-0.335
-0.255
-0.28
-0.435
0.12
-0.055
0.0
0.015
0.135
-0.12
0.18
0.055
0.235
0.205
0.28
0.215
0.055
0.24
0.01
0.23
0.36
0.045
-0.005
0.085
-0.1
-0.075
-0.13
-0.06
-0.075
-0.105
-0.01
0.015
-0.045
-0.025
-0.095
-0.025
-0.07
-0.005
-0.04
-0.055
0.015
-0.09
-0.06
0.01
-0.125
-0.07
-0.085
-0.11
-0.11
-0.07
-0.1
-0.135
-0.16
-0.15
-0.1
-0.175
-0.125
-0.15
-0.11
-0.105
-0.145
-0.055
-0.09
-0.105
-0.045
-0.285
-0.045
0.1
0.845
0.95
0.85
0.17
0.13
-0.025
-0.01
0.62
-0.46
-0.115
0.195
0.03
0.11
-0.5
-0.03
-0.05
-0.02
-0.11
-0.05
-0.185
-0.075
0.45
0.235
-0.15
-0.315
0.345
-0.11
-0.2
0.09
0.765
-0.34
-0.255
0.065
-0.11
0.44
0.015
-0.18
-0.49
-0.15
-0.095
0.475
-0.375
-0.205
-0.075
0.155
0.525
-0.37
-0.47
-0.175
-0.185
-0.05
0.24
-0.28
0.165
-0.13
0.3
-0.5
-0.165
-0.105
-0.165
0.325
-0.25
0.015
-0.275
-0.27
-0.035
-0.2
0.17
0.015
-0.055
-0.19
0.19
-0.34
-0.21
0.055
-0.22
-0.105
0.395
0.15
0.485
0.895
0.665
0.665
0.1
0.305
-0.065
0.08
-0.08
-0.185
-0.2
-0.18
0.035
0.175
-0.42
0.15
0.05
-0.395
-0.14
-0.245
-0.085
-0.17
0.11
0.18
-0.17
0.13
-0.3
-0.095
0.165
0.055
0.0
0.035
-0.07
0.03
0.035
0.135
0.27
-0.2
-0.18
0.03
-0.235
-0.165
-0.06
0.005
-0.085
0.16
0.16
-0.415
-0.22
-0.115
-0.005
0.0
-0.085
0.205
0.0
-0.365
-0.445
-0.24
-0.21
-0.235
-0.065
-0.135
-0.115
-0.285
-0.315
-0.27
-0.025
-0.415
-0.25
-0.245
-0.145
0.015
-0.15
-0.175
-0.29
-0.175
0.06
0.685
1.005
0.69
0.485
0.21
0.115
-0.02
0.145
-0.295
-0.095
0.225
-0.32
-0.245
0.095
-0.16
-0.01
-0.19
-0.09
0.025
-0.12
0.005
-0.095
0.01
-0.29
-0.11
-0.02
-0.09
-0.01
0.29
-0.145
0.0
-0.065
-0.025
-0.03
0.225
-0.045
-0.275
-0.115
-0.12
-0.03
-0.005
-0.09
-0.245
-0.245
-0.1
-0.12
-0.125
-0.165
-0.04
0.245
-0.455
-0.225
-0.105
-0.16
-0.115
-0.12
-0.095
0.01
-0.045
-0.145
-0.29
-0.235
-0.16
-0.165
-0.115
-0.15
-0.125
-0.025
-0.25
-0.18
-0.115
-0.19
0.03
-0.145
-0.205
-0.155
0.03
0.54
0.905
0.665
0.32
0.19
0.07
-0.045
-0.075
-0.11
-0.055
-0.02
-0.13
-0.155
-0.045
-0.05
-0.07
-0.02
-0.12
-0.055
-0.025
-0.075
-0.02
-0.09
-0.075
-0.035
-0.105
-0.075
-0.05
-0.045
0.0
0.01
0.085
0.005
-0.11
-0.01
0.01
0.03
-0.055
-0.06
-0.05
-0.095
-0.015
-0.04
-0.06
-0.06
-0.005
-0.035
-0.075
-0.14
-0.04
-0.05
-0.04
-0.04
-0.09
-0.065
-0.05
-0.11
-0.04
-0.035
-0.015
0.02
-0.065
-0.035
-0.1
-0.105
-0.06
-0.075
-0.12
-0.115
-0.105
-0.04
-0.09
-0.045
-0.12
-0.165
-0.065
0.035
0.36
0.74
0.86
0.5
0.165
0.12
0.0
-0.06
-0.035
-0.06
-0.055
-0.13
-0.08
-0.035
-0.075
-0.06
-0.04
-0.085
-0.08
-0.03
-0.065
-0.025
-0.02
0.0
-0.045
-0.03
0.025
0.015
0.035
0.095
0.08
0.05
0.11
0.075
0.005
0.0
-0.035
-0.035
0.0
-0.07
-0.035
-0.055
-0.05
-0.025
-0.025
-0.055
-0.01
-0.075
-0.05
-0.015
-0.01
-0.055
-0.055
-0.065
-0.055
-0.015
-0.005
0.0
-0.025
0.015
-0.09
-0.05
-0.055
-0.045
-0.135
-0.07
-0.075
-0.105
-0.095
-0.08
-0.08
-0.09
-0.075
-0.085
-0.07
0.085
0.525
0.94
0.625
0.26
0.2
0.035
-0.01
-0.03
-0.05
-0.055
-0.055
-0.085
-0.04
-0.095
-0.05
-0.04
-0.02
-0.05
-0.035
-0.005
-0.05
-0.075
-0.07
-0.005
-0.015
0.0
0.01
0.02
0.025
0.03
0.095
0.075
0.04
-0.045
0.015
-0.04
-0.055
-0.08
-0.1
-0.05
-0.095
-0.095
-0.115
-0.12
-0.1
-0.09
-0.11
-0.145
-0.115
-0.075
-0.15
-0.13
-0.14
-0.075
-0.1
-0.01
-0.12
-0.02
-0.175
-0.11
-0.195
-0.105
-0.17
-0.17
-0.175
-0.14
-0.23
-0.14
-0.235
-0.165
-0.215
-0.18
-0.255
-0.025
0.185
0.745
0.545
0.32
0.115
-0.025
0.035
-0.24
0.585
-0.225
0.455
-0.3
-0.385
0.105
0.545
-0.195
0.05
-0.485
-0.15
0.41
0.56
-0.015
-0.29
0.385
0.325
0.04
-0.3
0.87
1.28
-1.015
0.31
0.295
-0.12
2.615
-1.125
-0.49
0.07
0.0
1.13
0.185
0.245
-0.08
-0.59
-0.12
0.03
-0.105
-0.035
0.49
-0.385
0.165
-0.485
-0.155
-0.02
-0.24
0.555
-0.325
-0.095
0.11
-0.2
-0.16
0.33
-0.665
-0.035
-0.235
-0.095
0.195
-0.64
-0.2
-0.075
0.175
-0.455
-0.295
-0.225
0.63
0.32
0.87
1.41
0.515
-0.54
-0.27
0.46
-0.44
-0.09
1.025
0.415
-1.15
-0.035
-0.085
-0.245
0.34
0.575
0.52
-0.67
-0.095
-0.325
0.16
0.43
0.445
0.545
-0.735
-0.345
0.14
0.055
0.305
1.065
-0.285
0.235
0.01
-0.42
0.18
-0.21
0.445
0.58
0.13
-0.525
0.27
0.045
-0.035
-0.14
0.53
0.06
-0.565
0.245
0.465
0.59
-0.435
-0.625
0.195
0.81
0.185
-0.025
-0.205
-0.35
0.51
-0.345
0.66
0.42
-0.145
-0.27
-0.29
-0.21
-0.095
1.595
-0.53
-0.55
-0.025
0.36
0.3
1.48
0.915
0.075
0.42
0.18
0.115
0.12
0.25
0.615
-0.5
-0.015
-0.235
0.035
0.07
0.18
0.21
-0.32
0.5
-0.17
-0.135
-0.1
-0.1
0.235
0.06
0.42
-0.07
0.035
0.615
-0.34
0.265
-0.075
0.145
0.285
0.805
-0.465
-0.315
0.095
-0.06
0.13
0.25
-0.3
0.175
0.225
0.06
-0.4
-0.115
0.165
0.01
0.315
-0.14
-0.205
-0.065
-0.185
0.0
-0.055
0.1
1.335
-0.83
0.2
-0.405
-0.265
0.105
-0.305
0.66
-0.505
0.39
-0.415
-0.275
-0.145
-0.02
0.035
0.11
0.2
0.315
0.39
1.02
0.24
0.375
0.77
0.105
0.605
-0.88
-0.3
-0.025
-0.135
0.08
0.495
-0.57
-0.145
0.575
-0.125
-0.075
-0.265
-0.075
0.055
-0.1
-0.055
-0.045
0.66
-0.085
-0.5
0.145
-0.175
0.35
0.03
0.435
0.75
-0.48
-0.315
0.215
-0.31
0.255
0.605
-0.31
-0.21
-0.145
-0.14
0.11
-0.225
-0.125
0.52
0.63
-0.595
-0.42
-0.025
-0.135
0.085
-0.145
0.43
-0.46
0.095
0.625
-0.365
-0.23
-0.215
0.21
0.23
-0.34
0.155
-0.45
-0.105
-0.25
0.015
0.15
-0.14
-0.005
-0.145
-0.155
0.985
-0.1
0.52
0.725
0.5
0.39
-0.11
0.89
-0.585
0.48
-0.465
-0.105
-0.065
-0.08
0.0
0.17
-0.24
-0.145
0.03
-0.2
0.05
0.005
-0.17
-0.06
-0.1
-0.055
0.165
0.01
-0.17
0.17
0.24
-0.185
0.0
0.085
0.14
-0.04
0.0
-0.13
-0.06
-0.1
-0.08
-0.065
-0.185
0.0
-0.12
-0.04
-0.125
-0.1
0.465
-0.33
-0.39
-0.135
-0.17
-0.04
0.02
0.335
-0.265
-0.36
0.5
-0.47
-0.23
0.31
-0.485
-0.105
0.145
-0.405
0.355
-0.23
-0.365
-0.21
-0.3
-0.185
-0.185
-0.075
-0.13
-0.265
-0.085
0.28
0.455
0.885
0.44
0.24
0.07
-0.005
-0.115
-0.02
-0.115
-0.155
-0.015
-0.235
-0.21
-0.165
-0.155
-0.17
-0.105
-0.09
-0.07
-0.04
-0.15
-0.045
0.045
0.045
0.04
0.015
0.045
0.02
0.02
0.0
0.02
-0.03
0.03
-0.01
0.045
-0.135
-0.135
-0.06
-0.18
-0.17
-0.16
0.04
-0.26
-0.18
-0.17
-0.11
-0.095
-0.17
-0.14
-0.14
-0.1
-0.215
-0.105
-0.145
-0.13
-0.15
-0.06
-0.05
-0.045
-0.15
-0.1
-0.175
-0.125
-0.16
-0.125
-0.175
0.26
0.08
-0.585
-0.39
-0.145
-0.215
-0.12
0.07
0.015
0.05
-0.18
0.54
0.78
0.5
0.32
-0.05
-0.035
0.155
-0.02
-0.305
-0.045
-0.185
0.01
0.62
-0.585
-0.345
-0.095
-0.115
-0.03
-0.065
0.24
0.19
-0.235
-0.36
0.0
0.0
-0.015
-0.06
-0.115
0.005
0.04
0.295
-0.025
-0.255
-0.07
-0.045
-0.005
-0.025
-0.095
-0.12
-0.075
-0.195
-0.07
-0.1
-0.115
-0.105
0.105
-0.285
-0.27
-0.11
-0.05
-0.14
-0.17
-0.055
-0.09
-0.245
-0.17
-0.035
-0.13
-0.165
-0.11
-0.15
-0.185
-0.19
-0.16
-0.08
-0.25
0.0
-0.275
-0.23
-0.165
0.08
-0.115
-0.16
-0.025
-0.27
0.115
0.645
1.05
0.62
0.63
0.77
0.65
0.33
0.485
0.505
0.31
0.195
0.11
0.135
0.14
0.12
0.035
0.025
0.035
0.055
-0.03
-0.005
-0.02
-0.03
-0.04
-0.045
-0.075
-0.045
-0.105
0.0
-0.045
0.0
0.0
-0.02
-0.035
-0.04
-0.045
-0.105
-0.065
-0.075
-0.03
-0.045
-0.02
-0.02
-0.065
-0.095
-0.08
-0.065
-0.03
-0.07
-0.06
-0.06
-0.085
-0.105
-0.12
-0.065
-0.09
-0.095
0.0
-0.08
0.005
-0.105
-0.06
-0.045
0.0
0.01
0.065
-0.04
-0.01
-0.005
-0.03
0.24
-0.04
-0.005
-0.15
-0.03
0.09
0.48
1.035
0.85
0.385
0.185
0.065
0.005
-0.03
-0.045
-0.04
-0.035
-0.085
-0.12
-0.05
-0.14
-0.06
-0.06
-0.06
-0.115
-0.075
-0.11
-0.035
-0.055
0.0
0.0
0.025
-0.06
0.155
-0.06
0.055
0.045
0.005
0.075
0.13
0.35
-0.16
0.145
-0.14
-0.3
-0.21
-0.24
-0.165
