signal
-0.015
-0.015
-0.02
-0.025
-0.025
-0.025
-0.025
-0.025
-0.03
-0.025
-0.03
-0.03
-0.03
0.01
0.03
0.005
0.025
0.005
-0.015
-0.04
-0.035
-0.04
-0.04
-0.035
-0.03
-0.035
-0.035
-0.035
-0.045
-0.055
-0.18
0.135
0.485
0.45
0.275
0.035
0.03
0.02
0.005
0.0
-0.005
-0.005
-0.015
-0.015
-0.015
-0.02
-0.02
-0.02
-0.02
-0.02
-0.025
-0.03
-0.035
-0.04
-0.05
-0.055
-0.05
-0.05
-0.045
-0.03
-0.01
0.01
0.02
0.02
0.015
0.01
0.005
0.0
0.005
0.005
0.0
0.005
0.005
0.005
0.005
0.0
0.0
0.0
0.0
-0.005
-0.005
-0.01
-0.01
-0.015
-0.015
-0.015
-0.02
-0.02
-0.02
-0.025
-0.02
-0.02
-0.02
0.0
0.015
0.035
0.025
0.0
0.01
-0.025
-0.02
-0.035
-0.04
-0.035
-0.03
-0.035
-0.025
-0.025
-0.02
-0.05
-0.07
-0.21
0.17
0.625
0.425
0.22
0.01
0.035
0.02
0.005
0.0
-0.005
-0.005
-0.015
-0.01
-0.015
-0.01
-0.02
-0.015
-0.02
-0.02
-0.03
-0.03
-0.04
-0.04
-0.05
-0.05
-0.05
-0.05
-0.045
-0.025
-0.005
0.01
0.02
0.02
0.015
0.015
0.01
0.01
0.01
0.005
0.005
0.005
0.005
0.005
0.0
0.005
0.0
0.0
0.0
-0.005
-0.005
-0.01
-0.01
-0.015
-0.015
-0.02
-0.02
-0.025
-0.02
-0.025
-0.025
-0.025
-0.025
0.005
0.025
0.01
0.04
0.005
-0.01
-0.04
-0.025
-0.035
-0.03
-0.035
-0.025
-0.03
-0.025
-0.025
-0.015
-0.05
-0.115
-0.09
0.25
0.62
0.385
0.145
0.015
0.04
0.02
0.005
0.005
0.0
0.0
-0.005
-0.005
-0.01
-0.005
-0.01
-0.005
-0.015
-0.015
-0.02
-0.02
-0.03
-0.03
-0.04
-0.04
-0.04
-0.035
-0.025
-0.01
0.005
0.025
0.03
0.035
0.03
0.025
0.02
0.02
0.02
0.02
0.02
0.02
0.02
0.015
0.015
0.01
0.005
0.005
0.005
0.0
0.0
0.0
-0.01
-0.02
-0.01
-0.01
-0.015
-0.015
-0.02
-0.025
-0.025
-0.015
-0.015
0.01
0.02
0.035
0.035
0.01
0.015
-0.02
-0.015
-0.03
-0.025
-0.03
-0.015
-0.015
-0.015
-0.015
-0.02
-0.05
-0.08
-0.205
0.17
0.69
0.47
0.22
0.015
0.035
0.015
0.005
0.005
-0.005
-0.01
-0.005
-0.005
-0.02
-0.015
-0.025
-0.015
-0.015
-0.02
-0.03
-0.025
-0.035
-0.03
-0.035
-0.045
-0.055
-0.04
-0.04
-0.02
-0.005
0.015
0.03
0.025
0.02
0.02
0.025
0.02
0.01
0.02
0.015
0.02
0.005
0.01
0.015
0.01
0.005
0.005
0.005
0.005
-0.01
0.005
-0.005
-0.01
-0.005
-0.01
0.0
-0.02
-0.01
-0.01
-0.005
0.015
0.04
0.025
0.04
0.035
0.0
-0.02
-0.015
-0.025
-0.03
-0.025
-0.02
-0.02
-0.015
-0.01
-0.015
-0.065
-0.16
0.01
0.46
0.58
0.375
0.11
0.0
0.035
0.015
0.005
0.0
-0.005
-0.01
-0.015
-0.02
-0.02
-0.025
-0.025
-0.025
-0.02
-0.025
-0.04
-0.045
-0.035
-0.055
-0.07
-0.06
-0.055
-0.065
-0.04
-0.03
-0.015
0.0
0.005
0.025
0.015
0.015
0.01
0.0
0.0
0.01
0.0
0.005
0.0
0.005
-0.005
-0.005
0.0
-0.01
-0.01
-0.015
-0.015
-0.015
-0.015
-0.03
-0.035
-0.03
-0.025
-0.03
-0.035
-0.005
0.015
0.02
0.035
0.005
-0.005
-0.03
-0.035
-0.05
-0.055
-0.045
-0.05
-0.055
-0.045
-0.05
-0.035
-0.08
-0.11
-0.15
0.25
0.665
0.42
0.15
-0.025
0.005
-0.005
-0.015
-0.015
-0.03
-0.03
-0.035
-0.035
-0.04
-0.04
-0.04
-0.035
-0.045
-0.035
-0.045
-0.05
-0.055
-0.055
-0.065
-0.065
-0.065
-0.06
-0.055
-0.03
-0.005
0.01
0.015
0.02
0.015
0.01
0.005
0.005
0.005
0.005
0.005
0.005
0.005
0.0
0.005
0.0
0.0
-0.005
-0.005
-0.005
-0.01
-0.015
-0.02
-0.02
-0.02
-0.025
-0.025
-0.03
-0.03
-0.03
-0.03
0.0
0.025
0.03
0.03
0.0
0.0
-0.02
-0.025
-0.045
-0.04
-0.045
-0.035
-0.04
-0.035
-0.04
-0.03
-0.045
-0.06
-0.04
0.27
0.575
0.33
0.115
0.0
0.03
0.015
0.0
0.0
-0.01
-0.005
-0.015
-0.01
-0.02
-0.01
-0.015
-0.01
-0.015
-0.015
-0.025
-0.02
-0.03
-0.035
-0.04
-0.045
-0.045
-0.035
-0.03
-0.005
0.015
0.03
0.03
0.025
0.02
0.005
0.0
0.0
-0.005
0.0
0.0
0.0
0.0
0.0
0.0
0.0
0.0
0.0
0.0
0.0
-0.005
-0.01
-0.01
-0.015
-0.015
-0.02
-0.02
-0.02
-0.02
-0.02
-0.025
0.01
0.035
0.01
0.045
0.005
-0.015
-0.04
-0.025
-0.04
-0.035
-0.035
-0.025
-0.035
-0.03
-0.03
-0.02
-0.045
-0.11
-0.03
0.265
0.55
0.34
0.105
0.01
0.03
0.015
0.0
0.0
-0.01
-0.01
-0.015
-0.015
-0.015
-0.015
-0.015
-0.015
-0.02
-0.02
-0.02
-0.025
-0.035
-0.045
-0.05
-0.05
-0.055
-0.05
-0.04
-0.02
0.0
0.015
0.02
0.015
0.01
0.005
0.005
0.005
0.005
0.005
0.005
0.005
0.005
0.005
0.005
0.005
0.0
0.0
0.0
-0.005
-0.005
-0.01
-0.01
-0.015
-0.015
-0.02
-0.02
-0.025
-0.02
-0.025
-0.01
0.015
0.03
0.005
0.015
0.01
-0.02
-0.03
-0.03
-0.04
-0.035
-0.03
-0.025
-0.03
-0.025
-0.025
-0.03
-0.05
-0.155
0.055
0.39
0.5
0.315
0.07
0.025
0.03
0.015
0.0
-0.005
-0.005
-0.01
-0.01
-0.01
-0.015
-0.01
-0.015
-0.015
-0.015
-0.02
-0.025
-0.03
-0.035
-0.04
-0.045
-0.05
-0.05
-0.045
-0.03
-0.015
0.0
0.015
0.025
0.02
0.015
0.015
0.01
0.015
0.01
0.01
0.015
0.01
0.015
0.01
0.01
0.01
0.005
0.005
0.005
0.0
0.0
0.0
-0.005
-0.005
-0.01
-0.01
-0.015
-0.015
-0.01
-0.015
0.015
0.025
0.03
0.03
0.0
0.01
-0.02
-0.015
-0.03
-0.03
-0.035
-0.025
-0.02
-0.02
-0.02
-0.015
-0.04
-0.07
-0.2
0.145
0.585
0.455
0.255
0.025
0.04
0.025
0.005
-0.005
-0.01
-0.005
-0.015
-0.015
-0.02
-0.01
-0.025
-0.025
-0.025
-0.025
-0.025
-0.025
-0.03
-0.04
-0.045
-0.045
-0.05
-0.045
-0.035
-0.025
-0.01
0.01
0.025
0.03
0.02
0.015
0.01
0.015
0.005
0.01
0.01
0.005
0.005
0.005
0.01
0.01
0.0
0.0
0.0
-0.01
0.0
0.0
-0.005
-0.015
-0.01
-0.02
-0.015
-0.02
-0.015
0.0
0.01
0.035
0.03
0.02
0.03
-0.015
-0.025
-0.025
-0.025
-0.03
-0.03
-0.015
-0.025
-0.025
-0.025
-0.035
-0.06
-0.19
0.04
0.525
0.525
0.33
0.09
0.0
0.025
0.01
-0.005
-0.01
-0.005
-0.025
-0.02
-0.03
-0.03
-0.03
-0.03
-0.035
-0.035
-0.03
-0.04
-0.045
-0.055
-0.065
-0.065
-0.055
-0.06
-0.055
-0.05
-0.025
-0.015
0.005
0.02
0.02
0.01
0.0
0.005
0.01
0.005
0.0
0.01
0.005
0.0
0.0
0.0
-0.005
-0.01
-0.02
-0.025
-0.01
-0.02
-0.025
-0.03
-0.025
-0.025
-0.035
-0.035
-0.04
0.0
0.01
0.015
0.03
0.0
-0.015
-0.04
-0.03
-0.06
-0.05
-0.06
-0.05
-0.055
-0.05
-0.05
-0.04
-0.085
-0.125
-0.17
0.235
0.67
0.41
0.15
-0.035
0.005
0.0
-0.02
-0.02
-0.03
-0.03
-0.035
-0.035
-0.045
-0.035
-0.045
-0.04
-0.04
-0.04
-0.045
-0.045
-0.05
-0.05
-0.06
-0.065
-0.07
-0.055
-0.05
-0.03
-0.01
0.005
0.015
0.015
0.015
0.01
0.005
0.005
0.005
0.01
0.01
0.015
0.0
0.01
0.005
0.0
0.0
0.0
0.0
-0.005
-0.01
-0.01
-0.015
-0.02
-0.02
-0.03
-0.025
-0.02
0.005
0.015
0.04
0.02
0.02
0.02
-0.005
-0.03
-0.03
-0.045
-0.04
-0.04
-0.035
-0.04
-0.035
-0.035
-0.035
-0.045
-0.125
0.095
0.37
0.47
0.29
0.045
0.015
0.02
0.005
-0.005
-0.01
-0.015
-0.02
-0.02
-0.02
-0.02
-0.02
-0.02
-0.02
-0.02
-0.025
-0.025
-0.03
-0.035
-0.04
-0.05
-0.05
-0.055
-0.045
-0.03
-0.01
0.005
0.02
0.02
0.015
0.01
0.005
0.0
0.0
0.0
0.0
0.0
0.0
0.0
0.0
0.0
-0.005
0.0
-0.005
-0.01
-0.005
-0.01
-0.015
-0.015
-0.02
-0.015
-0.025
-0.025
-0.025
0.0
0.01
0.03
0.01
0.01
0.01
-0.02
-0.035
-0.03
-0.045
-0.035
-0.035
-0.03
-0.035
-0.025
-0.03
-0.025
-0.045
-0.105
-0.035
0.265
0.56
0.35
0.11
0.015
0.03
0.02
0.0
0.0
-0.005
-0.005
-0.01
-0.01
-0.015
-0.01
-0.015
-0.01
-0.015
-0.015
-0.02
-0.025
-0.035
-0.035
-0.045
-0.045
-0.05
-0.045
-0.035
-0.015
0.0
0.01
0.015
0.015
0.015
0.01
0.005
0.005
0.005
0.005
0.005
0.005
0.005
0.005
0.005
0.0
0.0
0.0
-0.005
-0.005
-0.005
-0.01
-0.01
-0.015
-0.015
-0.02
-0.02
-0.025
-0.025
-0.02
0.0
0.0
0.03
0.015
-0.005
0.005
-0.025
-0.025
-0.035
-0.04
-0.035
-0.03
-0.03
-0.03
-0.025
-0.025
-0.03
-0.045
-0.175
0.1
0.45
0.48
0.295
0.055
0.035
0.025
0.01
0.0
0.0
-0.005
-0.005
-0.01
-0.01
-0.02
-0.015
-0.02
-0.02
-0.02
-0.02
-0.025
-0.03
-0.035
-0.04
-0.045
-0.045
-0.05
-0.045
-0.035
-0.015
0.0
0.015
0.02
0.02
0.02
0.015
0.01
0.015
0.01
0.01
0.015
0.015
0.015
0.01
0.005
0.005
0.005
0.005
0.0
0.0
0.0
0.0
-0.005
-0.005
-0.005
-0.005
-0.01
-0.01
-0.005
-0.01
-0.015
-0.015
-0.01
0.02
0.035
0.03
0.05
0.01
0.01
-0.02
-0.01
-0.03
-0.025
-0.025
-0.02
-0.02
-0.01
-0.02
-0.01
-0.04
-0.065
-0.185
0.185
0.645
0.42
0.205
0.005
0.04
0.025
0.01
0.005
-0.005
0.0
-0.01
-0.01
-0.02
-0.015
-0.02
-0.005
-0.015
-0.015
-0.03
-0.03
-0.03
-0.03
-0.04
-0.04
-0.035
-0.04
-0.04
-0.02
0.0
0.015
0.02
0.025
0.015
0.015
0.015
0.005
0.005
0.015
0.01
0.005
0.01
0.01
0.01
0.005
0.0
0.0
0.0
0.0
0.0
-0.005
-0.005
-0.015
-0.01
-0.01
-0.02
-0.015
-0.015
-0.02
-0.02
0.02
0.035
0.005
0.04
0.025
0.0
-0.025
-0.02
-0.04
-0.035
-0.03
-0.03
-0.035
-0.015
-0.02
-0.01
-0.065
-0.105
-0.18
0.205
0.705
0.465
0.19
-0.005
0.035
0.02
0.0
-0.005
-0.015
-0.02
-0.015
-0.02
-0.025
-0.03
-0.03
-0.035
-0.035
-0.03
-0.045
-0.035
-0.05
-0.055
-0.065
-0.07
-0.075
-0.065
-0.055
-0.04
-0.03
0.0
0.0
0.01
0.01
0.005
0.005
0.005
0.0
0.0
0.0
0.0
0.0
0.0
0.0
-0.005
-0.01
-0.02
-0.01
-0.015
-0.02
-0.02
-0.025
-0.025
-0.035
-0.025
-0.035
-0.035
-0.035
-0.035
-0.035
-0.015
0.005
0.02
0.015
0.0
0.005
-0.02
-0.035
-0.045
-0.05
-0.05
-0.045
-0.04
-0.04
-0.04
-0.04
-0.05
-0.06
-0.17
0.11
0.48
0.47
0.29
0.055
0.01
0.02
0.005
0.0
-0.01
-0.015
-0.015
-0.015
-0.02
-0.025
-0.02
-0.025
-0.025
-0.025
-0.025
-0.03
-0.03
-0.04
-0.05
-0.055
-0.055
-0.05
-0.05
-0.035
-0.015
0.0
0.015
0.02
0.015
0.01
0.005
0.0
0.0
0.0
0.0
0.0
0.0
0.0
0.0
0.0
0.0
-0.005
-0.005
-0.005
-0.005
-0.01
-0.015
-0.015
-0.02
-0.02
-0.02
-0.025
-0.025
-0.025
-0.03
-0.03
-0.03
-0.03
-0.025
0.005
0.03
0.0
0.02
0.005
-0.02
-0.035
-0.03
-0.04
-0.04
-0.035
-0.025
-0.03
-0.03
-0.03
-0.03
-0.035
-0.125
0.085
0.365
0.485
0.31
0.06
0.03
0.03
0.015
0.005
0.0
0.0
0.0
-0.005
-0.01
-0.01
-0.01
-0.01
-0.01
-0.015
-0.015
-0.02
-0.03
-0.03
-0.035
-0.04
-0.045
-0.045
-0.045
-0.03
-0.015
0.005
0.02
0.02
0.02
0.015
0.01
0.005
0.0
0.005
0.005
0.0
0.01
0.01
0.005
0.005
0.005
0.005
0.0
0.0
0.0
-0.005
-0.005
-0.01
-0.01
-0.01
-0.015
-0.015
-0.02
-0.02
-0.02
-0.02
-0.025
-0.025
-0.025
0.0
0.015
0.02
0.025
0.0
0.0
-0.025
-0.02
-0.035
-0.035
-0.03
-0.025
-0.025
-0.02
-0.02
-0.02
-0.04
-0.05
-0.19
0.17
0.57
0.43
0.245
0.025
0.045
0.03
0.015
0.01
0.0
0.0
0.0
0.0
-0.01
-0.005
-0.01
-0.005
-0.015
-0.01
-0.015
-0.02
-0.03
-0.035
-0.04
-0.045
-0.055
-0.05
-0.045
-0.025
-0.01
0.005
0.015
0.025
0.02
0.015
0.015
0.01
0.01
0.01
0.01
0.01
0.01
0.01
0.01
0.005
0.005
0.005
0.0
0.0
0.0
0.0
-0.005
-0.005
-0.01
-0.01
-0.015
-0.015
-0.015
-0.02
-0.02
-0.02
-0.02
-0.02
-0.02
-0.025
-0.025
-0.02
-0.005
0.015
0.005
0.015
-0.005
-0.01
-0.03
-0.025
-0.035
-0.035
-0.035
-0.02
-0.025
-0.02
-0.02
-0.015
-0.045
-0.075
-0.175
0.2
0.655
0.415
0.195
0.01
0.045
0.035
0.01
0.01
0.0
0.0
-0.005
-0.005
-0.01
-0.005
-0.015
-0.01
-0.015
-0.015
-0.025
-0.02
-0.03
-0.035
-0.045
-0.045
-0.05
-0.05
-0.045
-0.025
-0.005
0.01
0.02
0.025
0.02
0.02
0.015
0.015
0.015
0.015
0.015
0.015
0.015
0.01
0.015
0.01
0.01
0.01
0.01
0.005
0.005
0.0
0.0
0.0
0.0
-0.005
-0.005
-0.005
-0.01
-0.01
-0.01
-0.01
-0.015
-0.01
-0.015
-0.01
-0.015
-0.015
-0.015
-0.015
-0.005
0.02
0.005
0.025
0.005
-0.005
-0.025
-0.015
-0.03
-0.03
-0.025
-0.01
-0.025
-0.015
-0.02
-0.01
-0.06
-0.105
-0.105
0.24
0.64
0.4
0.16
0.005
0.04
0.025
0.005
0.0
-0.005
-0.005
-0.01
-0.015
-0.015
-0.01
-0.015
-0.015
-0.03
-0.025
-0.025
-0.025
-0.035
-0.035
-0.045
-0.04
-0.045
-0.035
-0.03
-0.005
0.0
0.02
0.025
0.035
0.02
0.015
0.02
0.005
0.0
0.01
0.015
0.01
0.005
0.005
0.005
0.005
0.0
0.0
0.0
-0.005
-0.01
-0.015
-0.02
-0.01
-0.01
-0.015
-0.02
-0.03
-0.02
-0.02
-0.03
-0.02
-0.03
-0.03
-0.015
-0.015
0.005
0.0
0.02
0.0
-0.01
-0.03
-0.035
-0.04
-0.04
-0.04
-0.03
-0.035
-0.025
-0.03
-0.02
-0.075
-0.115
-0.185
0.21
0.695
0.465
0.19
-0.005
0.03
0.01
0.0
0.0
-0.015
-0.01
-0.02
-0.025
-0.035
-0.03
-0.03
-0.025
-0.035
-0.025
-0.04
-0.045
-0.05
-0.05
-0.06
-0.05
-0.065
-0.065
-0.055
-0.035
-0.02
0.0
0.005
0.005
0.01
0.005
0.005
0.0
0.0
0.0
0.0
0.0
-0.005
0.0
-0.005
-0.005
-0.015
-0.01
-0.015
-0.02
-0.02
-0.02
-0.025
-0.025
-0.025
-0.03
-0.03
-0.035
-0.04
-0.035
-0.04
-0.035
-0.045
-0.04
-0.03
0.0
0.005
0.0
-0.005
-0.005
-0.025
-0.04
-0.05
-0.055
-0.055
-0.04
-0.045
-0.04
-0.04
-0.035
-0.075
-0.095
-0.195
0.195
0.665
0.41
0.19
-0.01
0.02
0.01
-0.005
-0.01
-0.02
-0.015
-0.025
-0.025
-0.03
-0.03
-0.035
-0.025
-0.04
-0.03
-0.035
-0.035
-0.045
-0.05
-0.06
-0.055
-0.055
-0.055
-0.05
-0.025
-0.005
0.01
0.02
0.025
0.02
0.01
0.0
0.005
0.0
0.0
0.005
0.0
0.005
0.0
0.0
0.0
0.0
0.0
0.0
-0.01
-0.01
-0.01
-0.015
-0.015
-0.02
-0.025
-0.015
-0.03
-0.025
-0.025
-0.025
-0.03
-0.03
-0.03
-0.03
-0.03
0.0
0.02
0.0
0.025
-0.01
-0.025
-0.045
-0.03
-0.05
-0.045
-0.04
-0.035
-0.035
-0.03
-0.03
-0.03
-0.045
-0.125
0.025
0.325
0.525
0.33
0.085
0.02
0.03
0.02
0.0
0.0
-0.005
-0.005
-0.01
-0.005
-0.01
-0.01
-0.015
-0.01
-0.015
-0.02
-0.02
-0.025
-0.03
-0.035
-0.045
-0.04
-0.045
-0.035
-0.025
-0.005
0.01
0.025
0.03
0.025
0.02
0.015
0.01
0.01
0.01
0.01
0.01
0.01
0.01
0.01
0.005
0.005
0.005
0.005
0.0
0.0
0.0
0.0
-0.005
-0.01
-0.01
-0.01
-0.015
-0.015
-0.02
-0.02
-0.02
-0.02
-0.025
-0.025
-0.025
-0.03
-0.025
-0.005
0.015
0.03
0.02
0.0
0.01
-0.025
-0.02
-0.035
-0.035
-0.03
-0.025
-0.03
-0.02
-0.02
-0.01
-0.045
-0.075
-0.16
0.21
0.645
0.405
0.185
0.005
0.04
0.025
0.01
0.005
-0.005
0.0
-0.01
-0.005
-0.01
-0.005
-0.01
-0.01
-0.015
-0.01
-0.02
-0.015
-0.03
-0.035
-0.04
-0.04
-0.045
-0.04
-0.035
-0.015
0.0
0.02
0.025
0.03
0.025
0.02
0.02
0.015
0.015
0.01
0.015
0.015
0.015
0.015
0.01
0.01
0.005
0.005
0.005
0.005
0.0
0.0
0.0
-0.005
-0.005
-0.01
-0.01
-0.01
-0.015
-0.015
-0.015
-0.02
-0.02
-0.025
-0.02
-0.025
-0.02
0.01
0.025
0.02
0.04
0.0
0.0
-0.03
-0.015
-0.035
-0.03
-0.03
-0.025
-0.03
-0.02
-0.02
-0.015
-0.045
-0.14
-0.01
0.31
0.565
0.355
0.11
0.02
0.04
0.02
0.005
0.0
-0.005
0.0
-0.01
-0.01
-0.015
-0.01
-0.015
-0.015
-0.02
-0.015
-0.02
-0.025
-0.03
-0.04
-0.045
-0.05
-0.045
-0.045
-0.035
-0.01
0.0
0.015
0.02
0.025
0.015
0.015
0.01
0.01
0.005
0.01
0.01
0.01
0.01
0.015
0.01
0.005
0.005
0.0
0.0
0.0
0.0
-0.005
-0.005
-0.01
-0.01
-0.01
-0.01
-0.015
-0.02
-0.02
-0.02
-0.02
-0.025
-0.025
-0.025
-0.025
-0.025
-0.025
0.01
0.03
0.01
0.03
0.015
-0.015
-0.035
-0.025
-0.035
-0.035
-0.03
-0.025
-0.025
-0.02
-0.02
-0.04
-0.05
-0.2
0.12
0.52
0.465
0.28
0.045
0.035
0.03
0.015
0.005
0.0
0.0
-0.005
-0.005
-0.01
-0.01
-0.015
-0.01
-0.015
-0.01
-0.015
-0.02
-0.025
-0.025
-0.035
-0.04
-0.04
-0.045
-0.035
-0.03
-0.005
0.015
0.03
0.03
0.03
0.025
0.02
0.02
0.015
0.02
0.015
0.02
0.015
0.02
0.015
0.02
0.015
0.01
0.01
0.01
0.0
0.0
0.0
0.0
0.0
-0.005
-0.005
-0.01
-0.01
-0.015
-0.02
-0.015
-0.015
-0.02
-0.015
-0.02
-0.015
0.0
0.02
0.035
0.03
0.01
0.02
-0.01
-0.02
-0.035
-0.025
-0.025
-0.02
-0.02
-0.01
-0.02
-0.015
-0.055
-0.085
-0.225
0.155
0.685
0.47
0.22
0.015
0.035
0.035
0.005
0.0
0.0
-0.01
-0.01
-0.01
-0.015
-0.01
-0.025
-0.015
-0.02
-0.025
-0.03
-0.025
-0.03
-0.05
-0.055
-0.05
-0.05
-0.04
-0.05
-0.03
-0.005
0.01
0.02
0.015
0.015
0.02
0.015
0.01
0.005
0.005
0.01
0.01
0.01
0.0
0.005
0.005
0.0
0.0
-0.005
0.0
0.0
-0.01
-0.015
-0.015
-0.01
-0.015
-0.03
-0.025
-0.025
-0.025
-0.025
-0.03
-0.035
-0.03
-0.025
-0.03
0.0
0.02
0.005
0.025
0.01
-0.01
-0.045
-0.035
-0.05
-0.045
-0.045
-0.035
-0.04
-0.04
-0.035
-0.05
-0.07
-0.195
0.025
0.46
0.51
0.325
0.085
-0.005
0.015
0.0
-0.01
-0.015
-0.02
-0.02
-0.025
-0.03
-0.03
-0.025
-0.03
-0.03
-0.03
-0.035
-0.035
-0.04
-0.05
-0.05
-0.055
-0.055
-0.055
-0.05
-0.04
-0.025
-0.005
0.01
0.02
0.025
0.02
0.015
0.015
0.01
0.01
0.01
0.01
0.005
0.01
0.005
0.0
0.005
0.0
0.0
0.0
-0.005
-0.005
-0.01
-0.01
-0.015
-0.015
-0.015
-0.02
-0.02
-0.02
-0.02
-0.025
-0.025
-0.025
-0.025
-0.025
-0.03
-0.025
-0.025
-0.01
0.015
0.01
0.005
-0.005
-0.01
-0.03
-0.03
-0.04
-0.04
-0.035
-0.025
-0.035
-0.025
-0.025
-0.02
-0.045
-0.09
-0.03
0.26
0.565
0.345
0.115
0.01
0.035
0.02
0.005
0.005
0.0
0.0
-0.005
-0.005
-0.01
-0.005
-0.01
-0.005
-0.015
-0.01
-0.02
-0.02
-0.03
-0.03
-0.04
-0.04
-0.04
-0.04
-0.03
-0.01
0.005
0.025
0.03
0.025
0.02
0.015
0.01
0.005
0.005
0.0
0.005
0.005
0.01
0.005
0.005
0.005
0.005
0.0
0.0
0.0
0.0
0.0
0.0
0.0
-0.01
-0.01
-0.01
-0.015
-0.02
-0.02
-0.02
-0.02
-0.025
-0.025
-0.025
-0.025
-0.025
-0.03
-0.03
-0.005
0.01
0.0
0.01
-0.005
-0.02
-0.04
-0.03
-0.04
-0.04
-0.04
-0.03
-0.03
-0.02
-0.025
-0.01
-0.05
-0.08
-0.13
0.21
0.625
0.385
0.165
0.015
0.04
0.03
0.01
0.005
0.0
0.0
-0.005
0.0
-0.01
-0.01
-0.015
-0.01
-0.015
-0.015
-0.025
-0.02
-0.03
-0.035
-0.045
-0.045
-0.05
-0.05
-0.04
-0.015
0.0
0.015
0.025
0.025
0.015
0.015
0.015
0.01
0.01
0.01
0.01
0.01
0.015
0.01
0.01
0.01
0.01
0.005
0.005
0.0
0.0
0.0
-0.005
-0.005
-0.01
-0.01
-0.01
-0.02
-0.015
-0.02
-0.02
-0.02
-0.025
-0.025
-0.03
-0.025
-0.03
-0.03
-0.035
-0.03
0.0
0.01
0.0
0.025
-0.005
-0.01
-0.04
-0.02
-0.04
-0.035
-0.03
-0.025
-0.025
-0.02
-0.025
-0.015
-0.045
-0.115
-0.055
0.265
0.605
0.38
0.135
0.015
0.04
0.025
0.01
0.005
0.0
0.0
-0.005
-0.005
-0.01
-0.005
-0.015
-0.01
-0.015
-0.015
-0.02
-0.02
-0.03
-0.035
-0.045
-0.045
-0.05
-0.045
-0.035
-0.02
0.0
0.02
0.025
0.025
0.02
0.015
0.015
0.01
0.01
0.01
0.015
0.01
0.015
0.01
0.01
0.005
0.005
0.005
0.0
0.0
0.0
0.0
-0.005
-0.01
-0.01
-0.015
-0.015
-0.015
-0.015
-0.02
-0.015
-0.02
-0.02
-0.025
-0.02
-0.025
-0.025
-0.025
-0.025
-0.02
0.01
-0.005
0.01
0.0
-0.025
-0.04
-0.03
-0.04
-0.035
-0.04
-0.025
-0.035
-0.02
-0.025
-0.015
-0.05
-0.115
-0.08
0.25
0.62
0.385
0.145
0.02
0.04
0.025
0.01
0.005
0.0
0.0
-0.005
0.0
-0.01
-0.005
-0.01
-0.01
-0.01
-0.015
-0.02
-0.025
-0.03
-0.035
-0.04
-0.04
-0.045
-0.04
-0.03
-0.01
0.0
0.02
0.03
0.03
0.025
0.02
0.015
0.015
0.015
0.02
0.015
0.02
0.015
0.02
0.02
0.015
0.015
0.01
0.01
0.005
0.005
0.0
0.0
0.0
0.0
0.0
-0.005
-0.005
-0.005
-0.015
-0.015
-0.01
-0.01
-0.02
-0.015
-0.02
-0.02
-0.02
0.005
0.015
0.0
0.02
-0.005
-0.02
-0.035
-0.03
-0.03
-0.035
-0.02
-0.025
-0.02
-0.015
-0.01
-0.045
-0.065
-0.22
0.145
0.64
0.485
0.25
0.03
0.035
0.03
0.015
0.005
0.0
0.0
-0.005
-0.005
-0.015
-0.02
-0.02
-0.02
-0.025
-0.015
-0.025
-0.025
-0.035
-0.035
-0.045
-0.045
-0.05
-0.045
-0.04
-0.025
-0.005
0.015
0.02
0.025
0.02
0.015
0.01
0.01
0.0
0.01
0.005
0.01
0.005
0.01
0.005
0.0
0.0
0.0
0.0
-0.005
-0.015
-0.005
-0.005
-0.015
-0.02
-0.02
-0.025
-0.02
-0.035
-0.025
-0.035
-0.03
-0.025
-0.025
-0.035
-0.015
0.005
-0.02
0.005
-0.01
-0.02
-0.045
-0.04
-0.035
-0.05
-0.045
-0.045
-0.035
-0.025
-0.03
-0.065
-0.07
-0.215
0.09
0.585
0.495
0.28
0.05
0.0
0.02
0.0
0.0
-0.015
-0.02
-0.025
-0.025
-0.03
-0.03
-0.035
-0.035
-0.035
-0.04
-0.04
-0.045
-0.055
-0.055
-0.06
-0.065
-0.065
-0.07
-0.065
-0.05
-0.035
-0.01
0.005
0.01
0.01
0.005
0.0
0.0
0.0
0.0
0.0
0.0
0.0
0.0
0.0
0.0
-0.01
-0.01
-0.01
-0.015
-0.015
-0.02
-0.025
-0.025
-0.03
-0.025
-0.03
-0.03
-0.035
-0.03
-0.04
-0.035
-0.04
-0.035
-0.04
-0.01
0.005
-0.02
0.0
-0.015
-0.035
-0.05
-0.045
-0.045
-0.05
-0.035
-0.04
-0.035
-0.035
-0.025
-0.055
-0.055
-0.195
0.195
0.605
0.4
0.22
0.005
0.035
0.025
0.005
0.0
0.0
0.0
-0.01
-0.005
-0.01
-0.005
-0.015
-0.015
-0.015
-0.015
-0.025
-0.025
-0.03
-0.035
-0.04
-0.04
-0.045
-0.04
-0.035
-0.015
0.0
0.02
0.025
0.03
0.02
0.015
0.005
0.0
0.0
0.0
0.0
0.0
0.005
0.005
0.0
0.0
0.0
0.0
0.0
0.0
-0.005
-0.005
-0.01
-0.01
-0.015
-0.015
-0.02
-0.025
-0.025
-0.025
-0.025
-0.03
-0.025
-0.03
-0.03
-0.005
0.015
-0.01
0.015
-0.01
-0.03
-0.05
-0.03
-0.04
-0.04
-0.035
-0.025
-0.03
-0.025
-0.025
-0.025
-0.045
-0.145
0.015
0.335
0.545
0.35
0.1
0.02
0.035
0.02
0.01
0.005
0.0
0.0
-0.005
-0.005
-0.01
-0.01
-0.01
-0.01
-0.02
-0.02
-0.03
-0.03
-0.04
-0.04
-0.05
-0.05
-0.045
-0.045
-0.035
-0.015
0.0
0.02
0.02
0.025
0.015
0.01
0.01
0.005
0.005
0.005
0.005
0.005
0.01
0.01
0.005
0.005
0.0
0.0
0.0
-0.005
-0.005
-0.005
-0.01
-0.015
-0.015
-0.02
-0.02
-0.02
-0.02
-0.025
-0.03
-0.025
-0.025
-0.035
-0.01
0.015
-0.015
0.015
-0.005
-0.025
-0.055
-0.03
-0.045
-0.035
-0.035
-0.025
-0.03
-0.025
-0.02
-0.02
-0.045
-0.135
-0.04
0.29
0.575
0.365
0.125
0.02
0.035
0.02
0.005
0.005
0.0
0.0
-0.005
-0.01
-0.01
-0.005
-0.015
-0.015
-0.02
-0.02
-0.03
-0.03
-0.04
-0.045
-0.05
-0.05
-0.055
-0.045
-0.035
-0.015
0.0
0.015
0.025
0.02
0.02
0.015
0.01
0.005
0.01
0.01
0.005
0.005
0.01
0.005
0.005
0.0
0.0
0.0
0.0
0.0
-0.005
-0.01
-0.01
-0.015
-0.015
-0.02
-0.02
-0.02
-0.025
-0.025
-0.03
-0.025
-0.03
-0.03
-0.005
0.015
-0.015
0.025
-0.005
-0.025
-0.05
-0.03
-0.04
-0.035
-0.035
-0.02
-0.03
-0.02
-0.02
-0.015
-0.05
-0.12
-0.095
0.245
0.625
0.39
0.15
0.015
0.04
0.025
0.005
0.005
0.0
0.0
-0.005
-0.005
-0.01
-0.005
-0.015
-0.01
-0.015
-0.015
-0.02
-0.025
-0.03
-0.035
-0.045
-0.04
-0.05
-0.04
-0.035
-0.015
0.005
0.02
0.025
0.025
0.02
0.02
0.015
0.015
0.015
0.015
0.015
0.015
0.02
0.015
0.015
0.01
0.01
0.01
0.005
0.005
0.0
0.0
0.0
0.0
-0.005
-0.005
-0.005
-0.01
-0.015
-0.01
-0.015
-0.015
-0.015
-0.015
0.005
0.03
0.0
0.025
0.005
-0.015
-0.045
-0.03
-0.04
-0.03
-0.03
-0.02
-0.025
-0.02
-0.015
-0.015
-0.05
-0.165
0.01
0.375
0.545
0.34
0.095
0.02
0.04
0.015
0.0
0.0
-0.005
0.0
-0.01
-0.015
-0.02
-0.02
-0.02
-0.015
-0.02
-0.025
-0.03
-0.03
-0.035
-0.04
-0.045
-0.05
-0.045
-0.04
-0.03
-0.015
0.0
0.025
0.025
0.025
0.01
0.015
0.01
0.005
0.005
0.005
0.01
0.005
0.005
0.0
0.0
0.0
0.0
-0.005
-0.01
-0.01
-0.01
-0.01
-0.015
-0.015
-0.02
-0.025
-0.03
-0.025
-0.025
-0.025
-0.025
-0.015
0.0
0.02
0.0
0.005
0.01
-0.03
-0.03
-0.03
-0.035
-0.04
-0.035
-0.025
-0.025
-0.02
-0.02
-0.05
-0.075
-0.21
0.065
0.55
0.51
0.3
0.07
0.01
0.025
0.0
-0.005
-0.01
-0.02
-0.025
-0.02
-0.025
-0.03
-0.03
-0.03
-0.035
-0.04
-0.045
-0.035
-0.045
-0.05
-0.055
-0.06
-0.065
-0.065
-0.06
-0.05
-0.03
-0.005
0.0
0.005
0.015
0.005
0.0
0.0
0.0
0.0
-0.005
0.0
0.0
-0.005
-0.005
-0.01
-0.015
-0.015
-0.015
-0.02
-0.02
-0.025
-0.02
-0.03
-0.035
-0.03
-0.035
-0.035
-0.04
-0.04
-0.045
-0.045
-0.005
0.01
-0.005
0.02
-0.005
-0.035
-0.055
-0.035
-0.055
-0.05
-0.05
-0.045
-0.05
-0.045
-0.045
-0.035
-0.07
-0.115
-0.15
0.21
0.64
0.395
0.17
-0.005
0.025
0.01
0.0
-0.005
-0.015
-0.01
-0.02
-0.02
-0.025
-0.02
-0.025
-0.025
-0.02
-0.025
-0.03
-0.035
-0.04
-0.045
-0.05
-0.05
-0.055
-0.05
-0.045
-0.025
-0.005
0.015
0.015
0.02
0.01
0.01
0.0
0.0
0.0
0.0
0.0
0.0
0.005
0.0
0.0
0.0
0.0
-0.005
-0.01
-0.01
-0.01
-0.01
-0.015
-0.02
-0.02
-0.025
-0.025
-0.03
-0.03
-0.03
-0.03
-0.035
-0.03
-0.035
0.0
0.025
0.0
0.025
-0.005
-0.025
-0.05
-0.03
-0.045
-0.045
-0.04
-0.03
-0.04
-0.03
-0.035
-0.025
-0.05
-0.12
-0.03
0.275
0.565
0.35
0.11
0.01
0.025
0.015
0.0
-0.005
-0.01
-0.01
-0.015
-0.01
-0.02
-0.015
-0.025
-0.015
-0.025
-0.02
-0.03
-0.03
-0.04
-0.04
-0.05
-0.05
-0.05
-0.045
-0.04
-0.02
0.0
0.015
0.025
0.02
0.015
0.01
0.005
0.0
0.005
0.0
0.0
0.0
0.0
0.0
0.0
0.0
0.0
0.0
0.0
-0.005
-0.005
-0.01
-0.015
-0.015
-0.015
-0.02
-0.02
-0.02
-0.025
-0.025
-0.025
-0.025
-0.025
-0.025
-0.025
0.005
0.025
0.0
0.02
0.01
-0.02
-0.04
-0.03
-0.04
-0.035
-0.035
-0.02
-0.03
-0.02
-0.025
-0.03
-0.05
-0.16
0.05
0.385
0.52
0.325
0.08
0.025
0.03
0.015
0.0
0.0
-0.005
-0.01
-0.015
-0.015
-0.015
-0.02
-0.025
-0.025
-0.025
-0.03
-0.025
-0.03
-0.04
-0.045
-0.05
-0.05
-0.055
-0.045
-0.035
-0.015
0.0
0.015
0.02
0.02
0.01
0.01
0.005
0.005
0.0
0.005
0.0
0.005
0.005
0.0
0.0
0.0
0.0
0.0
-0.005
-0.005
-0.01
-0.01
-0.015
-0.02
-0.02
-0.02
-0.025
-0.025
-0.03
-0.025
-0.03
-0.03
-0.03
-0.03
-0.03
0.0
0.01
0.025
0.02
-0.01
0.0
-0.03
-0.02
-0.04
-0.04
-0.04
-0.03
-0.035
-0.025
-0.025
-0.02
-0.055
-0.075
-0.21
0.175
0.645
0.43
0.22
0.01
0.03
0.02
0.005
0.0
-0.01
-0.005
-0.01
-0.01
-0.02
-0.02
-0.02
-0.02
-0.025
-0.025
-0.03
-0.03
-0.04
-0.04
-0.05
-0.05
-0.055
-0.05
-0.045
-0.03
-0.01
0.005
0.015
0.02
0.015
0.015
0.005
0.005
0.005
0.005
0.005
0.005
0.01
0.005
0.005
0.005
0.0
0.0
0.0
0.0
-0.005
-0.005
-0.005
-0.01
-0.015
-0.015
-0.015
-0.02
-0.02
-0.02
-0.02
-0.02
-0.02
-0.025
-0.025
0.0
0.02
0.015
0.03
-0.005
-0.01
-0.035
-0.02
-0.035
-0.035
-0.035
-0.025
-0.025
-0.02
-0.02
-0.01
-0.05
-0.085
-0.185
0.195
0.675
0.435
0.205
0.015
0.04
0.03
0.01
0.005
0.0
0.0
-0.005
-0.005
-0.01
-0.005
-0.01
-0.01
-0.015
-0.01
-0.025
-0.02
-0.035
-0.035
-0.045
-0.045
-0.045
-0.04
-0.04
-0.02
0.0
0.015
0.025
0.025
0.02
0.015
0.015
0.015
0.01
0.015
0.01
0.01
0.015
0.01
0.01
0.005
0.005
0.0
0.0
0.0
0.0
-0.005
-0.005
-0.005
-0.02
-0.02
-0.02
-0.02
-0.02
-0.02
-0.02
-0.02
-0.025
-0.005
0.015
0.015
0.025
0.0
0.0
-0.025
-0.025
-0.035
-0.035
-0.035
-0.02
-0.025
-0.02
-0.015
-0.015
-0.05
-0.075
-0.225
0.14
0.655
0.48
0.25
0.03
0.035
0.03
0.005
0.0
-0.005
-0.01
-0.02
-0.015
-0.025
-0.025
-0.025
-0.02
-0.03
-0.03
-0.035
-0.03
-0.04
-0.045
-0.045
-0.05
-0.06
-0.05
-0.045
-0.035
-0.01
0.005
0.02
0.02
0.02
0.015
0.01
0.005
0.01
0.005
0.005
0.005
0.0
0.005
0.0
0.0
0.005
-0.005
0.0
0.0
-0.01
-0.01
-0.015
-0.02
-0.02
-0.025
-0.035
-0.025
-0.02
-0.025
-0.03
-0.03
-0.01
0.01
-0.01
0.02
0.0
-0.025
-0.05
-0.03
-0.045
-0.045
-0.045
-0.035
-0.04
-0.035
-0.035
-0.025
-0.075
-0.115
-0.185
0.21
0.7
0.455
0.19
-0.01
0.025
0.01
0.0
-0.005
-0.02
-0.015
-0.02
-0.025
-0.03
-0.025
-0.03
-0.03
-0.035
-0.035
-0.04
-0.04
-0.05
-0.05
-0.06
-0.06
-0.07
-0.06
-0.06
-0.04
-0.025
0.0
0.005
0.015
0.01
0.005
0.0
0.005
0.0
0.005
0.0
0.005
0.005
0.0
0.005
0.0
0.0
0.0
-0.005
-0.005
-0.01
-0.01
-0.015
-0.02
-0.015
-0.025
-0.02
-0.02
-0.025
-0.03
-0.025
-0.03
-0.025
-0.03
0.0
0.015
-0.015
0.01
-0.01
-0.03
-0.045
-0.04
-0.045
-0.04
-0.035
-0.035
-0.03
-0.025
-0.025
-0.04
-0.05
-0.175
0.16
0.515
0.44
0.27
0.035
0.03
0.03
0.01
0.0
-0.005
0.0
-0.005
-0.005
-0.01
-0.015
-0.015
-0.015
-0.02
-0.02
-0.025
-0.025
-0.035
-0.035
-0.045
-0.045
-0.045
-0.045
-0.04
-0.025
-0.01
0.01
0.02
0.025
0.02
0.015
0.005
0.005
0.0
0.0
0.0
0.0
0.0
0.005
0.005
0.0
0.0
0.0
0.0
0.0
-0.005
-0.01
-0.01
-0.01
-0.02
-0.02
-0.02
-0.02
-0.025
-0.02
-0.025
-0.03
-0.03
-0.025
-0.025
0.0
0.01
-0.005
0.005
-0.015
-0.03
-0.04
-0.035
-0.04
-0.035
-0.03
-0.02
-0.025
-0.02
-0.02
-0.03
-0.05
-0.18
0.11
0.47
0.48
0.295
0.06
0.03
0.03
0.015
0.005
0.0
-0.005
-0.005
-0.01
-0.01
-0.015
-0.015
-0.02
-0.015
-0.02
-0.02
-0.03
-0.035
-0.04
-0.045
-0.055
-0.055
-0.05
-0.05
-0.035
-0.015
0.0
0.015
0.02
0.015
0.01
0.01
0.005
0.005
0.005
0.005
0.005
0.005
0.0
0.0
0.0
0.0
0.0
-0.005
-0.01
-0.01
-0.015
-0.015
-0.02
-0.02
-0.025
-0.025
-0.03
-0.03
-0.03
-0.03
-0.035
-0.03
-0.035
-0.035
-0.035
-0.015
0.005
-0.025
0.005
-0.015
-0.035
-0.055
-0.03
-0.045
-0.045
-0.045
-0.03
-0.035
-0.025
-0.025
-0.015
-0.055
-0.095
-0.185
0.19
0.665
0.425
0.195
0.01
0.04
0.025
0.005
0.0
-0.005
0.0
-0.015
-0.01
-0.015
-0.01
-0.02
-0.015
-0.025
-0.02
-0.03
-0.03
-0.04
-0.04
-0.045
-0.045
-0.05
-0.045
-0.04
-0.02
-0.005
0.01
0.02
0.025
0.02
0.015
0.01
0.01
0.01
0.01
0.005
0.01
0.01
0.005
0.005
0.0
0.0
0.0
0.0
0.0
-0.005
-0.005
-0.01
-0.015
-0.015
-0.02
-0.02
-0.025
-0.02
-0.025
-0.025
-0.025
-0.025
-0.03
-0.025
-0.025
-0.005
0.0
-0.01
0.005
-0.03
-0.03
-0.04
-0.035
-0.04
-0.035
-0.035
-0.025
-0.025
-0.02
-0.02
-0.03
-0.05
-0.19
0.095
0.485
0.505
0.305
0.07
0.035
0.035
0.02
0.005
0.0
0.0
0.0
-0.005
-0.01
-0.01
-0.015
-0.015
-0.02
-0.02
-0.025
-0.025
-0.03
-0.035
-0.04
-0.045
-0.05
-0.05
-0.04
-0.03
-0.005
0.01
0.025
0.025
0.025
0.02
0.015
0.01
0.01
0.01
0.01
0.01
0.015
0.01
0.01
0.005
0.005
0.005
0.0
0.0
0.0
-0.005
-0.005
-0.005
-0.01
-0.015
-0.015
-0.015
-0.015
-0.02
-0.02
-0.02
-0.02
-0.025
-0.02
-0.025
-0.01
0.015
-0.025
0.01
-0.005
-0.03
-0.05
-0.03
-0.035
-0.035
-0.03
-0.02
-0.025
-0.02
-0.02
-0.015
-0.045
-0.12
-0.065
0.28
0.625
0.39
0.155
0.02
0.045
0.03
0.015
0.01
0.0
0.0
-0.005
-0.005
-0.01
-0.005
-0.015
-0.01
-0.015
-0.015
-0.025
-0.025
-0.03
-0.035
-0.045
-0.045
-0.045
-0.04
-0.035
-0.015
0.0
0.025
0.025
0.025
0.02
0.02
0.02
0.015
0.015
0.015
0.015
0.015
0.015
0.015
0.01
0.015
0.01
0.01
0.005
0.005
0.0
0.0
0.0
0.0
-0.005
-0.005
-0.01
-0.01
-0.01
-0.01
-0.015
-0.015
-0.015
-0.015
-0.02
-0.01
-0.015
0.0
0.015
-0.01
0.005
-0.015
-0.02
-0.04
-0.025
-0.03
-0.025
-0.015
-0.015
-0.015
-0.01
-0.005
-0.03
-0.05
-0.205
0.15
0.58
0.485
0.28
0.055
0.045
0.045
0.02
0.015
0.005
0.005
0.0
0.0
-0.005
-0.005
-0.01
-0.015
-0.01
-0.015
-0.02
-0.025
-0.035
-0.04
-0.045
-0.045
-0.045
-0.045
-0.045
-0.025
-0.005
0.015
0.02
0.025
0.02
0.015
0.015
0.01
0.01
0.005
0.01
0.005
0.01
0.005
0.01
0.01
0.005
0.0
0.0
-0.005
0.0
0.0
-0.005
-0.01
-0.01
-0.02
-0.02
-0.02
-0.015
-0.025
-0.02
-0.025
-0.025
-0.025
-0.025
-0.025
-0.015
-0.005
-0.01
0.0
-0.02
-0.02
-0.035
-0.035
-0.035
-0.04
-0.03
-0.03
-0.02
-0.035
-0.02
-0.05
-0.07
-0.22
0.14
0.67
0.495
0.265
0.045
0.02
0.035
0.015
0.005
-0.01
-0.01
-0.01
-0.005
-0.01
-0.02
-0.025
-0.02
-0.025
-0.03
-0.035
-0.035
-0.04
-0.035
-0.055
-0.06
-0.055
-0.045
-0.055
-0.035
-0.015
0.0
0.01
0.02
0.025
0.02
0.015
0.0
0.005
0.005
0.005
0.005
0.005
0.0
0.005
0.0
0.0
0.0
0.0
-0.005
-0.01
-0.015
-0.015
-0.015
-0.02
-0.025
-0.02
-0.03
-0.03
-0.03
-0.03
-0.035
-0.03
-0.035
-0.025
0.005
-0.035
0.0
-0.005
-0.045
-0.05
-0.035
-0.045
-0.05
-0.05
-0.035
-0.04
-0.03
-0.035
-0.03
-0.075
-0.145
-0.06
0.34
0.615
0.4
0.145
-0.01
0.03
0.01
0.0
-0.005
-0.01
-0.015
-0.02
-0.015
-0.02
-0.025
-0.025
-0.03
-0.035
-0.035
-0.04
-0.045
-0.05
-0.05
-0.06
-0.06
-0.06
-0.06
-0.05
-0.03
-0.005
0.01
0.02
0.02
0.015
0.015
0.01
0.005
0.005
0.005
0.005
0.005
0.005
0.005
0.005
0.0
0.0
-0.005
-0.005
-0.01
-0.005
-0.01
-0.015
-0.02
-0.02
-0.025
-0.02
-0.025
-0.025
-0.03
-0.025
-0.03
-0.03
-0.035
-0.025
-0.035
-0.01
0.01
-0.025
0.0
-0.02
-0.04
-0.05
-0.035
-0.045
-0.045
-0.035
-0.035
-0.025
-0.025
-0.02
-0.045
-0.05
-0.17
0.205
0.6
0.41
0.235
0.015
0.04
0.03
0.01
0.01
0.0
0.0
-0.005
0.0
-0.01
-0.005
-0.01
-0.005
-0.015
-0.015
-0.02
-0.02
-0.03
-0.035
-0.04
-0.04
-0.045
-0.04
-0.035
-0.015
0.0
0.02
0.03
0.03
0.025
0.015
0.01
0.005
0.0
0.005
0.005
0.0
0.0
0.005
0.005
0.0
0.0
0.0
0.0
-0.005
0.0
-0.005
-0.01
-0.01
-0.015
-0.015
-0.025
-0.02
-0.025
-0.02
-0.025
-0.025
-0.03
-0.025
-0.025
0.0
0.0
-0.01
0.0
-0.03
-0.035
-0.04
-0.04
-0.045
-0.04
-0.03
-0.03
-0.02
-0.025
-0.015
-0.05
-0.065
-0.205
0.175
0.63
0.435
0.23
0.02
0.04
0.03
0.015
0.005
0.0
0.0
-0.005
-0.01
-0.01
-0.01
-0.015
-0.015
-0.02
-0.02
-0.025
-0.025
-0.035
-0.04
-0.05
-0.05
-0.055
-0.05
-0.045
-0.03
-0.01
0.01
0.015
0.025
0.02
0.015
0.005
0.0
0.0
0.005
0.005
0.005
0.005
0.0
0.0
0.0
0.0
0.0
0.0
-0.005
-0.005
-0.01
-0.01
-0.015
-0.015
-0.02
-0.02
-0.025
-0.025
-0.025
-0.025
-0.03
-0.025
-0.03
-0.025
-0.035
-0.005
0.01
-0.015
0.01
-0.01
-0.03
-0.05
-0.04
-0.045
-0.04
-0.035
-0.03
-0.03
-0.025
-0.025
-0.04
-0.06
-0.205
0.115
0.515
0.475
0.285
0.055
0.035
0.035
0.01
0.005
0.0
0.0
-0.005
-0.005
-0.01
-0.01
-0.015
-0.015
-0.02
-0.02
-0.025
-0.025
-0.035
-0.04
-0.045
-0.05
-0.055
-0.05
-0.045
-0.03
-0.01
0.005
0.02
0.025
0.025
0.02
0.015
0.01
0.01
0.01
0.01
0.01
0.01
0.015
0.01
0.01
0.01
0.01
0.005
0.005
0.0
0.0
0.0
-0.005
-0.005
-0.005
-0.01
-0.01
-0.01
-0.015
-0.015
-0.015
-0.015
-0.015
-0.02
0.0
0.025
-0.005
0.025
0.0
-0.015
-0.04
-0.02
-0.03
-0.025
-0.02
-0.02
-0.02
-0.01
-0.015
-0.02
-0.045
-0.17
0.05
0.41
0.535
0.335
0.095
0.04
0.04
0.025
0.015
0.005
0.0
-0.005
-0.005
-0.005
-0.01
-0.005
-0.01
-0.01
-0.02
-0.02
-0.025
-0.025
-0.035
-0.04
-0.045
-0.04
-0.045
-0.035
-0.03
-0.01
0.015
0.02
0.025
0.02
0.015
0.015
0.01
0.01
0.01
0.01
0.01
0.01
0.01
0.01
0.01
0.0
0.0
0.0
0.0
0.0
0.0
-0.01
-0.005
-0.01
-0.01
-0.01
-0.01
-0.025
-0.02
-0.025
-0.02
-0.02
-0.005
0.015
-0.015
0.03
0.0
-0.03
-0.045
-0.02
-0.035
-0.035
-0.03
-0.02
-0.03
-0.025
-0.02
-0.015
-0.065
-0.135
-0.12
0.26
0.66
0.44
0.17
0.0
0.035
0.015
0.005
0.0
-0.015
-0.005
-0.01
-0.02
-0.015
-0.015
-0.035
-0.025
-0.03
-0.025
-0.035
-0.04
-0.05
-0.05
-0.055
-0.065
-0.065
-0.05
-0.05
-0.025
-0.015
0.0
0.015
0.015
0.01
0.015
0.015
0.01
0.0
0.005
0.0
0.0
0.005
0.01
0.0
0.0
-0.005
-0.005
-0.01
-0.01
-0.015
-0.015
-0.02
-0.02
-0.025
-0.02
-0.035
-0.03
-0.035
-0.03
-0.035
-0.01
0.015
-0.02
0.015
0.0
-0.035
-0.05
-0.03
-0.05
-0.045
-0.04
-0.04
-0.04
-0.04
-0.035
-0.035
-0.075
-0.17
-0.02
0.395
0.57
0.37
0.12
-0.015
0.02
0.0
-0.005
-0.01
-0.025
-0.02
-0.025
-0.025
-0.03
-0.03
-0.035
-0.04
-0.04
-0.04
-0.05
-0.055
-0.055
-0.065
-0.07
-0.07
-0.075
-0.065
-0.06
-0.04
-0.02
0.0
0.01
0.01
0.01
0.005
0.0
0.0
0.0
0.0
0.0
0.0
0.0
0.0
0.0
0.0
-0.005
-0.005
-0.01
-0.01
-0.015
-0.015
-0.015
-0.02
-0.025
-0.02
-0.025
-0.03
-0.03
-0.03
-0.035
-0.03
-0.015
0.01
0.005
0.01
-0.005
-0.015
-0.03
-0.03
-0.045
-0.04
-0.04
-0.03
-0.035
-0.025
-0.03
-0.015
-0.045
-0.08
-0.085
0.235
0.605
0.365
0.14
0.005
0.035
0.02
0.005
0.005
-0.005
0.0
-0.01
-0.005
-0.015
-0.005
-0.015
-0.01
-0.02
-0.02
-0.03
-0.03
-0.04
-0.04
-0.045
-0.045
-0.05
-0.04
-0.035
-0.01
0.005
0.02
0.025
0.025
0.02
0.015
0.005
0.005
0.0
0.0
0.0
0.005
0.005
0.005
0.0
0.0
0.0
0.0
0.0
0.0
-0.005
-0.01
-0.01
-0.015
-0.02
-0.02
-0.02
-0.025
-0.03
-0.025
-0.03
0.0
0.02
-0.01
0.025
0.0
-0.025
-0.05
-0.03
-0.04
-0.04
-0.035
-0.03
-0.03
-0.02
-0.025
-0.02
-0.04
-0.125
-0.02
0.285
0.565
0.35
0.11
0.02
0.03
0.015
0.0
0.0
-0.005
-0.005
-0.015
-0.01
-0.015
-0.01
-0.015
-0.015
-0.015
-0.02
-0.03
-0.03
-0.04
-0.05
-0.055
-0.055
-0.055
-0.05
-0.045
-0.025
-0.005
0.005
0.015
0.015
0.01
0.005
0.005
0.0
0.0
0.0
0.0
0.0
0.0
0.0
0.0
0.0
0.0
0.0
-0.005
-0.005
-0.01
-0.01
-0.015
-0.015
-0.02
-0.02
-0.025
-0.025
-0.025
-0.025
-0.03
-0.01
0.005
0.005
0.01
0.0
-0.015
-0.035
-0.03
-0.04
-0.04
-0.035
-0.025
-0.03
-0.025
-0.025
-0.02
-0.045
-0.055
-0.205
0.15
0.58
0.44
0.245
0.025
0.035
0.025
0.01
0.0
0.0
-0.005
-0.01
-0.01
-0.015
-0.015
-0.02
-0.02
-0.025
-0.02
-0.03
-0.03
-0.04
-0.045
-0.05
-0.06
-0.06
-0.055
-0.05
-0.035
-0.015
0.0
0.01
0.015
0.015
0.01
0.005
0.005
0.005
0.005
0.005
0.005
0.005
0.005
0.005
0.0
0.005
0.0
0.0
-0.005
0.0
-0.01
-0.01
-0.01
-0.01
-0.015
-0.015
-0.015
-0.015
-0.02
-0.02
-0.02
0.005
0.03
0.0
0.04
0.005
-0.015
-0.04
-0.015
-0.03
-0.025
-0.025
-0.01
-0.02
-0.01
-0.01
-0.005
-0.035
-0.085
-0.145
0.205
0.665
0.425
0.19
0.015
0.05
0.03
0.015
0.005
0.0
0.0
-0.005
-0.005
-0.01
-0.01
-0.01
-0.01
-0.025
-0.02
-0.02
-0.025
-0.045
-0.04
-0.045
-0.045
-0.05
-0.045
-0.04
-0.025
-0.005
0.01
0.02
0.02
0.015
0.01
0.005
0.005
0.0
0.005
0.005
0.005
0.01
0.005
0.005
0.0
0.0
0.0
-0.005
0.0
-0.005
-0.01
-0.01
-0.015
-0.02
-0.02
-0.02
-0.02
-0.025
-0.03
-0.005
0.02
-0.015
0.03
0.0
-0.03
-0.05
-0.035
-0.035
-0.025
-0.03
-0.025
-0.03
-0.025
-0.03
-0.02
-0.07
-0.1
-0.21
0.165
0.71
0.47
0.205
0.005
0.03
0.01
-0.01
0.0
-0.005
-0.01
-0.025
-0.025
-0.025
-0.025
-0.04
-0.04
-0.035
-0.04
-0.045
-0.04
-0.055
-0.06
-0.07
-0.065
-0.075
-0.06
-0.055
-0.04
-0.025
0.0
0.005
0.01
0.005
0.01
0.005
0.005
0.005
0.0
0.0
0.0
0.005
0.0
-0.01
0.0
0.0
-0.01
-0.01
-0.015
-0.015
-0.02
-0.02
-0.025
-0.02
-0.03
-0.025
-0.035
-0.025
-0.02
0.0
0.0
0.0
0.0
-0.01
-0.03
-0.04
-0.045
-0.045
-0.045
-0.04
-0.035
-0.035
-0.045
-0.03
-0.06
-0.08
-0.21
0.115
0.605
0.48
0.27
0.045
0.0
0.015
0.0
-0.005
-0.02
-0.02
-0.025
-0.02
-0.035
-0.035
-0.04
-0.035
-0.04
-0.04
-0.045
-0.05
-0.06
-0.06
-0.07
-0.07
-0.08
-0.075
-0.07
-0.06
-0.04
-0.02
0.0
0.0
0.005
0.005
0.0
0.0
-0.005
-0.005
-0.005
-0.005
-0.005
-0.005
-0.01
-0.01
-0.015
-0.015
-0.02
-0.02
-0.02
-0.02
-0.025
-0.025
-0.03
-0.03
-0.035
-0.035
-0.035
-0.04
-0.04
-0.01
0.015
-0.01
0.02
-0.01
-0.04
-0.055
-0.035
-0.055
-0.05
-0.05
-0.04
-0.045
-0.04
-0.04
-0.03
-0.05
-0.1
-0.015
0.27
0.56
0.34
0.105
0.005
0.02
0.01
-0.005
-0.005
-0.015
-0.015
-0.025
-0.02
-0.025
-0.025
-0.025
-0.02
-0.025
-0.025
-0.03
-0.035
-0.04
-0.045
-0.055
-0.055
-0.055
-0.05
-0.04
-0.015
0.0
0.01
0.015
0.015
0.01
0.005
0.0
0.0
0.0
-0.005
0.0
0.0
0.0
0.0
-0.005
-0.005
0.0
-0.005
-0.005
-0.005
-0.01
-0.015
-0.02
-0.02
-0.025
-0.025
-0.03
-0.025
-0.025
-0.025
0.005
0.025
0.0
0.03
0.005
-0.02
-0.045
-0.03
-0.05
-0.04
-0.035
-0.03
-0.035
-0.03
-0.03
-0.02
-0.05
-0.1
-0.105
0.23
0.615
0.38
0.14
0.005
0.03
0.015
0.0
0.0
-0.015
-0.01
-0.015
-0.015
-0.025
-0.02
-0.025
-0.025
-0.025
-0.03
-0.035
-0.035
-0.04
-0.05
-0.055
-0.055
-0.06
-0.055
-0.045
-0.025
-0.005
0.01
0.01
0.015
0.01
0.01
0.0
0.0
0.0
0.0
0.0
0.0
0.0
0.0
0.0
0.0
-0.005
-0.005
-0.005
-0.005
-0.015
-0.015
-0.015
-0.02
-0.02
-0.025
-0.03
-0.025
-0.03
-0.005
0.005
0.025
0.015
0.0
0.0
-0.03
-0.03
-0.035
-0.05
-0.035
-0.035
-0.025
-0.035
-0.025
-0.03
-0.025
-0.05
-0.14
-0.015
0.315
0.555
0.35
0.11
0.015
0.025
0.01
0.0
0.0
-0.015
-0.01
-0.02
-0.02
-0.025
-0.02
-0.025
-0.025
-0.025
-0.03
-0.035
-0.035
-0.045
-0.05
-0.055
-0.06
-0.06
-0.055
-0.045
-0.025
-0.005
0.01
0.01
0.015
0.01
0.005
0.0
0.0
0.0
0.0
0.0
0.0
0.0
0.0
0.0
0.0
0.0
0.0
-0.005
-0.01
-0.01
-0.015
-0.015
-0.02
-0.02
-0.025
-0.025
-0.025
-0.02
0.0
0.03
0.005
0.025
0.01
-0.015
-0.04
-0.025
-0.04
-0.035
-0.035
-0.025
-0.03
-0.02
-0.025
-0.015
-0.05
-0.08
-0.19
0.19
0.655
0.425
0.2
0.005
0.035
0.02
0.0
0.0
-0.005
-0.005
-0.015
-0.01
-0.02
-0.015
-0.02
-0.015
-0.025
-0.02
-0.03
-0.03
-0.04
-0.04
-0.05
-0.055
-0.055
-0.05
-0.045
-0.025
-0.01
0.005
0.015
0.02
0.015
0.01
0.005
0.01
0.01
0.005
0.01
0.01
0.01
0.01
0.005
0.01
0.005
0.0
0.0
0.0
-0.01
-0.01
-0.01
-0.01
-0.015
-0.02
-0.025
-0.025
-0.025
-0.025
0.005
0.025
0.01
0.035
0.01
-0.015
-0.04
-0.025
-0.045
-0.035
-0.035
-0.03
-0.035
-0.025
-0.02
-0.02
-0.06
-0.085
-0.2
0.175
0.67
0.44
0.2
0.005
0.03
0.02
0.0
0.0
-0.01
-0.01
-0.02
-0.015
-0.025
-0.02
-0.02
-0.025
-0.03
-0.025
-0.04
-0.04
-0.045
-0.045
-0.05
-0.05
-0.03
-0.01
0.0
0.005
0.0
0.0
-0.005
0.0
0.0
0.0
0.0
0.0
-0.005
-0.005
-0.005
-0.01
-0.01
-0.015
-0.015
-0.02
-0.02
-0.02
0.005
0.015
0.035
0.03
0.03
0.03
0.0
-0.03
-0.025
-0.04
-0.03
-0.03
-0.025
-0.035
-0.025
-0.025
-0.025
-0.05
-0.14
-0.025
0.31
0.53
0.34
0.105
0.0
0.02
0.005
-0.005
-0.015
-0.02
-0.015
-0.025
-0.015
-0.025
-0.025
-0.03
-0.03
-0.035
-0.04
-0.045
-0.045
-0.055
-0.055
-0.06
-0.065
-0.065
-0.06
-0.055
-0.035
-0.015
0.0
0.005
0.005
0.0
0.0
0.0
0.0
-0.005
0.0
0.0
0.0
0.0
0.0
0.0
-0.005
-0.01
-0.015
-0.015
-0.015
-0.015
-0.02
-0.02
0.005
0.005
0.04
0.03
0.0
0.015
-0.025
-0.025
-0.045
-0.045
-0.035
-0.025
-0.03
-0.025
-0.025
-0.02
-0.05
-0.06
-0.205
0.145
0.62
0.44
0.23
0.01
0.025
0.02
0.005
0.0
-0.01
-0.01
-0.015
-0.015
-0.02
-0.02
-0.025
-0.025
-0.035
-0.035
-0.045
-0.04
-0.05
-0.055
-0.065
-0.065
-0.07
-0.065
-0.065
-0.055
-0.035
-0.015
0.0
0.0
0.0
0.0
0.0
-0.005
-0.005
-0.005
-0.005
-0.005
-0.005
-0.005
-0.01
-0.005
-0.015
-0.015
-0.02
-0.02
-0.02
-0.025
-0.025
-0.025
-0.015
0.005
0.015
0.02
0.03
0.01
-0.005
-0.04
-0.025
-0.04
-0.035
-0.03
-0.03
-0.03
-0.025
-0.025
-0.03
-0.045
-0.16
0.03
0.39
0.52
0.325
0.09
0.01
0.025
0.01
0.0
-0.005
-0.015
-0.015
-0.02
-0.02
-0.025
-0.025
-0.03
-0.035
-0.045
-0.05
-0.055
-0.06
-0.07
-0.07
-0.075
-0.08
-0.08
-0.075
-0.065
-0.05
-0.025
-0.015
-0.005
-0.005
-0.01
-0.01
-0.01
-0.015
-0.015
-0.015
-0.015
-0.02
-0.015
-0.02
-0.015
-0.02
-0.02
-0.02
-0.02
-0.025
-0.02
-0.02
-0.025
-0.025
-0.02
-0.02
0.01
0.015
0.03
0.045
0.01
0.0
-0.035
-0.015
-0.03
-0.03
-0.03
-0.02
-0.025
-0.02
-0.02
-0.025
-0.045
-0.155
0.03
0.395
0.515
0.325
0.085
0.01
0.025
0.005
0.0
-0.005
-0.01
-0.015
-0.015
-0.015
-0.02
-0.02
-0.025
-0.03
-0.035
-0.04
-0.045
-0.045
-0.055
-0.06
-0.065
-0.065
-0.065
-0.06
-0.055
-0.035
-0.015
-0.005
0.0
0.005
0.0
0.0
0.0
0.0
-0.005
0.0
0.0
0.0
-0.005
-0.005
-0.005
-0.01
-0.01
-0.01
-0.02
-0.02
-0.02
-0.025
-0.025
-0.025
-0.025
-0.03
-0.02
-0.005
0.005
0.03
0.025
0.0
0.015
-0.03
-0.02
-0.035
-0.03
-0.035
-0.025
-0.03
-0.02
-0.025
-0.015
-0.05
-0.08
-0.17
0.185
0.68
0.44
0.195
0.0
0.04
0.025
0.005
0.0
0.0
0.0
-0.005
-0.005
-0.01
-0.01
-0.015
-0.015
-0.025
-0.02
-0.03
-0.03
-0.04
-0.045
-0.045
-0.05
-0.055
-0.045
-0.045
-0.025
-0.005
0.01
0.015
0.015
0.005
0.005
0.0
0.0
0.0
0.0
0.0
0.0
0.0
0.0
0.0
-0.005
-0.005
-0.01
-0.01
-0.015
-0.015
-0.015
-0.015
-0.02
-0.02
-0.025
-0.02
-0.025
-0.02
-0.02
0.01
0.03
0.015
0.015
0.02
-0.01
-0.025
-0.03
-0.03
-0.03
-0.025
-0.025
-0.02
-0.025
-0.015
-0.045
-0.055
-0.2
0.16
0.645
0.465
0.235
0.015
0.035
0.03
0.01
0.005
0.0
0.0
-0.01
-0.005
-0.01
-0.015
-0.02
-0.015
-0.025
-0.025
-0.03
-0.035
-0.04
-0.045
-0.05
-0.055
-0.055
-0.05
-0.055
-0.04
-0.02
0.0
0.005
0.015
0.005
0.005
0.0
0.0
0.0
0.0
0.0
0.0
0.0
0.0
0.0
0.0
-0.005
-0.005
-0.01
-0.01
-0.015
-0.015
-0.02
-0.015
-0.02
-0.02
-0.025
-0.025
-0.02
0.0
0.005
0.025
0.03
-0.005
0.005
-0.035
-0.02
-0.035
-0.035
-0.03
-0.025
-0.025
-0.025
-0.025
-0.02
-0.045
-0.14
-0.02
0.33
0.58
0.37
0.115
0.005
0.035
0.02
0.0
0.0
-0.005
-0.005
-0.015
-0.015
-0.02
-0.015
-0.025
-0.03
-0.03
-0.035
-0.04
-0.045
-0.05
-0.055
-0.06
-0.06
-0.06
-0.06
-0.05
-0.035
-0.015
0.0
0.005
0.005
0.005
0.0
0.0
0.0
0.0
0.0
0.0
0.0
0.0
0.0
0.0
0.0
-0.005
-0.01
-0.01
-0.01
-0.015
-0.015
-0.02
-0.02
-0.02
-0.02
-0.015
-0.015
0.005
0.01
0.035
0.035
0.0
0.01
-0.025
-0.005
-0.03
-0.025
-0.02
-0.015
-0.02
-0.01
-0.015
-0.005
-0.04
-0.11
-0.09
0.25
0.625
0.4
0.155
0.005
0.045
0.025
0.01
0.0
0.0
0.0
-0.01
-0.005
-0.01
-0.01
-0.02
-0.015
-0.025
-0.025
-0.035
-0.04
-0.045
-0.05
-0.055
-0.055
-0.06
-0.055
-0.05
-0.035
-0.015
0.0
0.005
0.01
0.005
0.0
0.0
0.0
0.0
0.0
0.0
0.0
0.0
0.0
-0.005
-0.005
-0.01
-0.01
-0.015
-0.02
-0.02
-0.02
-0.025
-0.02
-0.025
-0.025
-0.03
-0.025
-0.02
0.0
0.025
0.01
0.02
0.015
-0.015
-0.03
-0.03
-0.035
-0.035
-0.025
-0.025
-0.025
-0.025
-0.02
-0.035
-0.05
-0.195
0.105
0.535
0.46
0.265
0.045
0.03
0.03
0.01
0.0
0.0
-0.005
-0.01
-0.01
-0.01
-0.015
-0.02
-0.025
-0.03
-0.03
-0.035
-0.04
-0.045
-0.05
-0.055
-0.06
-0.065
-0.065
-0.06
-0.05
-0.035
-0.015
0.0
0.0
0.0
0.0
-0.005
-0.005
-0.005
-0.005
-0.005
0.0
0.0
-0.005
-0.005
-0.01
-0.01
-0.01
-0.015
-0.015
-0.02
-0.02
-0.025
-0.02
-0.025
-0.025
-0.025
-0.03
-0.03
-0.02
0.005
0.02
0.005
0.025
0.01
-0.01
-0.04
-0.025
-0.04
-0.03
-0.035
-0.02
-0.03
-0.02
-0.02
-0.015
-0.035
-0.115
-0.06
0.27
0.565
0.36
0.125
0.015
0.04
0.02
0.005
0.005
0.0
0.0
-0.01
-0.005
-0.015
-0.015
-0.02
-0.02
-0.025
-0.025
-0.035
-0.035
-0.045
-0.05
-0.06
-0.06
-0.06
-0.055
-0.05
-0.035
-0.02
0.0
0.005
0.005
0.0
0.0
0.0
0.0
0.0
0.0
0.0
0.0
0.0
0.0
0.0
-0.005
-0.005
-0.005
-0.01
-0.01
-0.015
-0.015
-0.02
-0.015
-0.025
-0.02
-0.025
-0.025
-0.03
-0.025
-0.025
0.0
-0.005
0.01
0.0
-0.015
0.0
-0.025
-0.025
-0.03
-0.04
-0.03
-0.03
-0.02
-0.03
-0.02
-0.02
-0.015
-0.03
-0.11
-0.05
0.275
0.565
0.355
0.12
0.02
0.04
0.025
0.01
0.005
0.0
0.0
-0.005
0.0
-0.01
-0.01
-0.015
-0.015
-0.02
-0.02
-0.025
-0.03
-0.04
-0.045
-0.055
-0.055
-0.06
-0.06
-0.055
-0.035
-0.02
-0.005
0.0
0.0
0.0
0.0
0.0
0.0
-0.005
0.0
0.0
0.0
0.0
0.0
0.0
0.0
0.0
0.0
-0.005
-0.005
-0.01
-0.01
-0.015
-0.015
-0.02
-0.02
-0.025
-0.02
-0.025
-0.025
-0.03
-0.025
-0.03
-0.025
-0.025
0.0
0.0
0.0
0.0
0.0
-0.015
-0.035
-0.025
-0.03
-0.03
-0.025
-0.025
-0.015
-0.025
-0.01
-0.02
-0.005
-0.025
-0.105
-0.04
0.275
0.56
0.355
0.125
0.025
0.04
0.025
0.01
0.01
0.0
0.0
0.0
0.0
-0.005
0.0
-0.01
-0.01
-0.015
-0.015
-0.025
-0.025
-0.035
-0.04
-0.045
-0.05
-0.05
-0.05
-0.045
-0.03
-0.01
0.0
0.01
0.015
0.01
0.01
0.01
0.005
0.005
0.005
0.005
0.01
0.01
0.01
0.01
0.01
0.005
0.01
0.005
0.005
0.005
0.0
0.0
0.0
0.0
-0.005
-0.01
-0.005
-0.01
-0.01
-0.01
-0.01
-0.015
-0.01
-0.015
-0.015
-0.015
-0.015
-0.02
-0.02
-0.02
-0.015
-0.015
0.0
0.0
0.005
0.005
0.0
-0.01
-0.03
-0.025
-0.02
-0.025
-0.015
-0.02
-0.005
-0.015
-0.01
-0.01
0.0
-0.025
-0.045
-0.175
0.195
0.64
0.415
0.195
0.01
0.05
0.035
0.015
0.015
0.005
0.005
0.0
0.0
-0.005
-0.005
-0.01
-0.005
-0.01
-0.015
-0.02
-0.02
-0.03
-0.03
-0.04
-0.045
-0.045
-0.04
-0.035
-0.025
-0.01
0.0
0.015
0.025
0.02
0.015
0.0
0.005
0.005
0.01
0.01
0.01
0.005
0.01
0.01
0.0
0.005
0.01
0.01
0.005
0.0
0.0
-0.005
-0.005
-0.005
-0.01
0.0
-0.01
-0.015
-0.01
-0.015
-0.02
-0.01
-0.01
-0.02
-0.015
-0.025
-0.025
-0.02
-0.025
-0.025
-0.025
-0.025
-0.02
-0.025
-0.035
-0.03
-0.01
-0.01
-0.015
0.01
0.005
-0.02
-0.035
-0.025
-0.03
-0.035
-0.03
-0.025
-0.015
-0.03
-0.01
-0.015
-0.015
-0.06
-0.095
-0.14
0.265
0.695
0.46
0.19
0.0
0.04
0.035
0.01
0.015
0.005
0.0
-0.005
-0.005
-0.01
-0.005
-0.015
-0.015
-0.01
-0.015
-0.025
-0.04
-0.04
-0.04
-0.055
-0.045
-0.05
-0.055
-0.06
-0.045
-0.035
-0.015
0.0
0.015
0.015
0.01
0.01
0.01
0.01
0.01
0.015
0.005
0.005
0.01
0.005
0.005
0.0
-0.005
-0.005
-0.005
-0.005
-0.01
-0.005
-0.02
-0.015
-0.015
-0.02
-0.02
-0.01
-0.02
-0.04
-0.02
-0.035
-0.02
-0.03
-0.03
-0.03
-0.03
-0.04
-0.03
-0.04
-0.03
-0.005
-0.005
0.01
-0.015
-0.025
-0.045
-0.04
-0.045
-0.05
-0.045
-0.03
-0.03
-0.03
-0.035
-0.025
-0.065
-0.085
-0.195
0.175
0.685
0.49
0.225
0.015
0.025
0.02
0.0
0.0
-0.005
-0.005
-0.01
-0.005
-0.015
-0.015
-0.025
-0.02
-0.035
-0.035
-0.035
-0.035
-0.05
-0.045
-0.06
-0.065
-0.07
-0.075
-0.075
-0.065
-0.045
-0.025
0.0
0.005
0.01
0.01
0.005
0.005
0.0
0.0
0.0
0.0
0.005
0.005
0.0
0.0
0.0
0.0
0.0
-0.005
-0.005
-0.005
-0.01
-0.015
-0.015
-0.02
-0.02
-0.02
-0.02
-0.025
-0.025
-0.025
-0.025
-0.025
-0.03
-0.035
-0.035
-0.035
-0.035
-0.035
-0.035
-0.035
-0.04
-0.035
-0.04
-0.035
-0.04
-0.04
-0.035
-0.04
-0.035
-0.01
0.0
0.0
0.005
-0.015
-0.02
-0.03
-0.03
-0.04
-0.045
-0.035
-0.035
-0.035
-0.035
-0.035
-0.04
-0.035
-0.11
0.18
0.405
0.395
0.255
0.03
0.035
0.03
0.015
0.01
0.005
0.0
0.0
0.0
0.0
0.0
0.0
0.0
-0.005
-0.005
-0.01
-0.015
-0.02
-0.02
-0.025
-0.03
-0.03
-0.03
-0.03
-0.015
0.0
0.02
0.04
0.045
0.04
0.02
0.015
0.005
0.0
0.0
0.0
0.0
0.0
0.005
0.005
0.005
0.005
0.005
0.005
0.005
0.005
0.005
0.0
0.0
0.0
-0.005
-0.005
-0.01
-0.005
-0.01
-0.015
-0.015
-0.015
-0.015
-0.02
-0.02
-0.02
-0.02
-0.025
-0.025
-0.025
-0.025
-0.03
-0.025
-0.025
-0.025
-0.03
-0.025
-0.03
-0.025
-0.03
-0.03
-0.03
-0.03
-0.035
-0.03
-0.025
0.0
0.02
0.01
0.005
0.01
-0.015
-0.025
-0.035
-0.04
-0.035
-0.03
-0.03
-0.025
-0.03
-0.03
-0.04
-0.12
0.11
0.395
0.485
0.3
0.055
0.03
0.035
0.02
0.01
0.005
0.0
0.0
0.0
0.0
0.0
0.0
-0.005
-0.005
-0.01
-0.015
-0.02
-0.025
-0.03
-0.035
-0.035
-0.035
-0.035
-0.035
-0.03
-0.01
0.01
0.03
0.035
0.03
0.02
0.015
0.005
0.0
0.0
0.0
0.0
0.0
0.005
0.005
0.005
0.005
0.005
0.0
0.0
0.0
0.0
0.0
-0.005
-0.005
-0.01
-0.01
-0.01
-0.015
-0.015
-0.015
-0.02
-0.02
-0.025
-0.02
-0.02
-0.02
-0.025
-0.025
-0.025
-0.025
-0.025
-0.025
-0.025
-0.025
-0.03
-0.025
-0.035
-0.025
-0.03
0.0
0.01
0.02
0.025
0.01
-0.005
-0.03
-0.02
-0.025
-0.035
-0.025
-0.03
-0.02
-0.02
-0.01
-0.045
-0.06
-0.15
0.22
0.665
0.41
0.19
0.005
0.05
0.035
0.015
0.015
0.005
0.01
0.005
0.005
0.0
0.005
0.0
0.0
-0.005
-0.005
-0.01
-0.015
-0.02
-0.025
-0.03
-0.035
-0.035
-0.035
-0.035
-0.02
0.0
0.02
0.03
0.04
0.03
0.02
0.01
0.01
0.0
0.0
0.005
0.005
0.005
0.005
0.0
0.005
0.005
0.0
0.0
-0.005
0.0
0.0
0.0
-0.005
-0.01
-0.01
-0.015
-0.01
-0.015
-0.02
-0.02
-0.02
-0.02
-0.025
-0.015
-0.015
-0.02
-0.025
-0.025
-0.02
-0.03
-0.02
0.01
0.035
0.025
0.015
0.025
-0.01
-0.015
-0.02
-0.03
-0.03
-0.015
-0.02
-0.015
-0.02
-0.01
-0.055
-0.13
-0.06
0.33
0.64
0.43
0.165
0.0
0.04
0.025
0.005
0.005
0.0
0.0
0.0
-0.01
-0.01
-0.01
-0.01
-0.015
-0.035
-0.02
-0.025
-0.03
-0.045
-0.035
-0.05
-0.05
-0.06
-0.065
-0.06
-0.03
-0.02
0.0
0.01
0.015
0.01
0.01
0.005
0.005
0.015
0.005
0.0
0.005
0.005
0.0
0.005
0.0
0.0
0.0
-0.005
0.0
-0.005
-0.01
-0.005
0.0
-0.01
-0.015
-0.02
-0.01
-0.01
-0.005
-0.015
-0.015
-0.025
-0.025
-0.015
0.015
0.03
0.04
0.04
0.025
0.005
-0.02
-0.015
-0.02
-0.025
-0.015
-0.03
-0.02
-0.025
-0.02
-0.06
-0.065
-0.18
0.175
0.72
0.52
0.25
0.025
0.03
0.03
0.01
0.0
0.0
0.0
-0.005
-0.005
-0.01
-0.01
-0.02
-0.025
-0.025
-0.02
-0.04
-0.045
-0.055
-0.045
-0.06
-0.07
-0.065
-0.07
-0.08
-0.075
-0.05
-0.025
-0.02
0.0
0.0
0.005
0.0
-0.005
-0.01
-0.01
-0.005
0.0
-0.01
-0.015
-0.015
-0.015
-0.015
-0.015
-0.025
-0.02
-0.035
-0.025
-0.03
-0.03
-0.035
-0.03
-0.035
-0.035
-0.035
-0.035
-0.045
-0.035
-0.005
-0.005
0.045
0.03
0.0
0.015
-0.01
-0.025
-0.055
-0.045
-0.055
-0.04
-0.05
-0.045
-0.05
-0.04
-0.07
-0.13
-0.065
0.285
0.61
0.405
0.14
-0.02
0.015
0.005
-0.005
-0.015
-0.025
-0.02
-0.03
-0.025
-0.03
-0.03
-0.035
-0.03
-0.04
-0.035
-0.045
-0.045
-0.055
-0.055
-0.065
-0.07
-0.07
-0.07
-0.06
-0.045
-0.025
0.0
0.01
0.01
0.005
0.0
-0.005
-0.01
-0.01
-0.01
-0.015
-0.01
-0.005
-0.01
-0.01
-0.01
-0.01
-0.01
-0.015
-0.015
-0.015
-0.02
-0.025
-0.025
-0.025
-0.03
-0.03
-0.03
-0.03
-0.025
-0.01
0.02
0.02
0.025
0.035
0.0
0.0
-0.025
-0.03
-0.055
-0.045
-0.045
-0.04
-0.045
-0.04
-0.045
-0.035
-0.035
-0.095
0.055
0.305
0.48
0.3
0.065
0.005
0.025
0.01
0.0
0.0
-0.01
-0.01
-0.01
-0.01
-0.015
-0.015
-0.02
-0.02
-0.025
-0.025
-0.03
-0.03
-0.04
-0.04
-0.05
-0.045
-0.05
-0.05
-0.035
-0.02
0.0
0.015
0.02
0.02
0.005
0.0
-0.005
-0.015
-0.015
-0.015
-0.015
-0.01
-0.01
-0.01
-0.01
-0.005
-0.005
-0.01
-0.01
-0.01
-0.01
-0.015
-0.02
-0.02
-0.02
-0.02
-0.025
-0.025
-0.03
-0.03
-0.03
-0.025
0.005
0.02
0.005
0.03
0.005
-0.005
-0.035
-0.025
-0.045
-0.04
-0.035
-0.03
-0.035
-0.03
-0.03
-0.015
-0.035
-0.075
-0.1
0.215
0.59
0.365
0.14
0.005
0.04
0.025
0.01
0.005
0.0
0.0
-0.005
-0.005
-0.01
-0.01
-0.02
-0.015
-0.025
-0.025
-0.035
-0.03
-0.04
-0.04
-0.055
-0.05
-0.055
-0.05
-0.05
-0.035
-0.015
0.0
0.01
0.015
0.01
0.0
0.0
-0.005
-0.005
-0.005
-0.005
-0.005
0.0
0.0
0.0
0.0
0.0
0.0
-0.005
-0.005
-0.005
-0.01
-0.015
-0.015
-0.02
-0.02
-0.02
-0.02
-0.02
-0.025
-0.025
-0.02
-0.025
-0.025
-0.025
-0.025
-0.025
-0.02
0.005
0.025
0.015
0.035
0.005
0.0
-0.035
-0.02
-0.035
-0.035
-0.035
-0.025
-0.03
-0.025
-0.025
-0.015
-0.04
-0.065
-0.155
0.19
0.61
0.375
0.165
0.0
0.04
0.03
0.01
0.005
0.0
0.0
-0.005
0.0
-0.005
-0.005
-0.01
-0.01
-0.015
-0.02
-0.025
-0.025
-0.035
-0.035
-0.045
-0.045
-0.05
-0.045
-0.045
-0.03
-0.015
0.0
0.02
0.02
0.02
0.015
0.015
0.01
0.005
0.01
0.01
0.01
0.015
0.015
0.015
0.015
0.015
0.01
0.01
0.005
0.005
0.0
0.0
-0.005
0.0
0.0
-0.005
-0.01
-0.015
-0.015
-0.015
-0.015
-0.015
-0.02
-0.02
-0.02
-0.025
-0.02
-0.025
-0.02
-0.02
-0.02
-0.025
-0.01
0.0
0.025
0.015
0.015
0.015
-0.01
-0.02
-0.025
-0.035
-0.03
-0.025
-0.025
-0.025
-0.015
-0.02
-0.015
-0.035
-0.13
-0.005
0.345
0.55
0.345
0.11
0.015
0.04
0.02
0.01
0.0
-0.005
0.0
-0.005
-0.005
-0.015
-0.01
-0.02
-0.015
-0.025
-0.025
-0.035
-0.035
-0.04
-0.045
-0.045
-0.05
-0.05
-0.055
-0.055
-0.04
-0.025
0.0
0.015
0.01
0.01
0.01
0.005
0.005
0.0
0.0
0.0
0.0
0.0
0.0
0.005
0.0
0.0
0.0
0.0
-0.01
-0.01
-0.015
-0.015
-0.005
-0.01
-0.02
-0.025
-0.02
-0.02
-0.03
-0.02
-0.025
-0.025
-0.03
-0.035
-0.025
-0.02
-0.025
0.0
0.0
0.025
0.03
0.02
0.02
-0.015
-0.015
-0.025
-0.03
-0.03
-0.025
-0.025
-0.03
-0.025
-0.03
-0.02
-0.05
-0.13
-0.085
0.315
0.595
0.41
0.15
-0.005
0.04
0.025
-0.005
-0.005
0.0
-0.005
-0.01
-0.01
-0.015
-0.01
-0.02
-0.03
-0.025
-0.025
-0.045
-0.035
-0.04
-0.055
-0.06
-0.065
-0.07
-0.075
-0.07
-0.06
-0.045
-0.025
0.0
0.0
0.005
0.0
0.0
0.0
-0.005
0.0
0.0
-0.005
-0.005
-0.005
-0.005
-0.005
-0.01
-0.01
-0.01
-0.005
-0.015
-0.025
-0.025
-0.025
-0.03
-0.03
-0.03
-0.035
-0.035
-0.035
-0.04
-0.035
-0.04
-0.04
-0.04
-0.035
-0.04
-0.04
-0.04
-0.015
-0.005
0.025
0.025
0.005
0.005
-0.015
-0.03
-0.04
-0.05
-0.04
-0.045
-0.035
-0.035
-0.035
-0.035
-0.025
-0.035
-0.095
0.02
0.305
0.51
0.325
0.1
0.005
0.035
0.02
0.005
0.005
-0.005
0.0
-0.005
-0.005
-0.01
-0.005
-0.01
-0.01
-0.02
-0.015
-0.025
-0.025
-0.03
-0.035
-0.04
-0.04
-0.04
-0.04
-0.03
-0.015
0.0
0.02
0.03
0.035
0.025
0.015
0.01
0.005
0.005
0.0
0.005
0.005
0.005
0.01
0.01
0.01
0.015
0.01
0.01
0.01
0.01
0.005
0.005
0.0
0.0
0.0
0.0
0.0
0.0
-0.005
-0.005
-0.005
-0.005
-0.01
-0.005
-0.01
-0.01
-0.01
-0.01
-0.01
-0.01
-0.015
-0.01
-0.01
-0.01
-0.01
-0.015
-0.015
-0.015
-0.02
-0.02
-0.015
-0.025
-0.02
-0.02
-0.02
-0.02
-0.025
-0.025
-0.02
-0.025
-0.02
-0.025
-0.02
-0.01
0.005
0.03
0.02
0.01
0.02
-0.01
-0.02
-0.03
-0.04
-0.035
-0.03
-0.035
-0.03
-0.03
-0.025
-0.035
-0.11
0.065
0.32
0.475
0.295
0.055
0.025
0.035
0.025
0.01
0.01
0.0
0.0
0.0
0.0
0.0
-0.005
-0.005
0.0
-0.005
-0.01
-0.015
-0.02
-0.03
-0.025
-0.035
-0.035
-0.035
-0.035
-0.025
-0.01
0.005
0.025
0.035
0.035
0.03
0.02
0.015
0.01
0.005
0.005
0.005
0.005
0.01
0.01
0.01
0.015
0.015
0.015
0.01
0.01
0.01
0.005
0.0
0.005
0.0
0.0
0.0
0.0
-0.005
-0.005
-0.005
-0.005
-0.005
-0.005
-0.005
-0.01
-0.01
-0.01
-0.01
-0.01
-0.01
-0.015
-0.01
-0.015
-0.015
-0.02
-0.015
-0.02
-0.025
-0.02
-0.025
-0.025
-0.025
-0.025
-0.025
-0.025
-0.03
-0.025
-0.03
-0.03
-0.035
-0.03
-0.035
0.005
0.015
0.015
0.035
0.005
-0.015
-0.035
-0.025
-0.035
-0.04
-0.035
-0.035
-0.025
-0.025
-0.02
-0.045
-0.05
-0.16
0.205
0.61
0.38
0.185
0.0
0.04
0.03
0.01
0.015
0.0
0.0
0.005
0.005
-0.01
0.0
-0.005
-0.005
-0.015
-0.015
-0.025
-0.025
-0.03
-0.035
-0.045
-0.04
-0.045
-0.04
-0.04
-0.025
-0.01
0.01
0.025
0.03
0.02
0.015
0.01
0.0
0.0
0.0
0.0
0.0
0.005
0.01
0.005
0.01
0.005
0.0
0.0
0.0
0.0
0.0
0.0
-0.005
-0.005
-0.005
-0.005
-0.01
-0.01
-0.01
-0.01
-0.015
-0.015
-0.02
-0.015
-0.02
-0.015
-0.02
-0.025
-0.02
-0.02
-0.02
-0.02
-0.02
-0.02
-0.02
-0.025
-0.02
-0.025
-0.025
-0.025
-0.025
-0.025
-0.02
-0.03
-0.025
-0.03
-0.025
-0.03
-0.025
-0.03
0.01
0.02
0.02
0.035
0.015
-0.015
-0.03
-0.02
-0.03
-0.04
-0.025
-0.03
-0.02
-0.02
-0.01
-0.045
-0.075
-0.11
0.23
0.62
0.38
0.155
0.01
0.05
0.035
0.01
0.015
0.005
0.01
0.0
0.005
0.0
0.0
-0.005
0.0
0.0
-0.01
-0.02
-0.02
-0.025
-0.03
-0.035
-0.03
-0.03
-0.04
-0.025
-0.01
0.0
0.03
0.045
0.045
0.035
0.02
0.015
0.005
0.005
0.01
0.005
0.01
0.005
0.005
0.005
0.005
0.005
0.01
0.01
0.005
0.0
0.0
0.0
0.0
0.0
0.0
0.0
-0.005
-0.005
-0.01
-0.01
-0.005
-0.015
-0.015
0.0
-0.01
-0.015
-0.015
-0.005
-0.02
-0.015
-0.02
-0.025
-0.02
-0.01
-0.02
-0.025
-0.02
-0.025
-0.025
-0.015
-0.04
-0.005
0.02
0.0
0.03
0.01
-0.025
-0.03
-0.02
-0.035
-0.04
-0.025
-0.03
-0.02
-0.02
-0.015
-0.065
-0.115
-0.1
0.29
0.645
0.44
0.165
0.0
0.04
0.025
0.015
0.01
0.0
0.0
0.0
0.0
-0.005
-0.005
-0.015
-0.015
-0.015
-0.025
-0.02
-0.025
-0.05
-0.04
-0.04
-0.045
-0.06
-0.055
-0.04
-0.035
-0.025
0.0
0.01
0.015
0.015
0.01
0.01
0.005
0.0
0.0
0.0
0.005
0.0
-0.005
-0.005
0.005
0.01
0.0
-0.005
-0.015
-0.01
-0.005
-0.01
-0.02
-0.015
-0.02
-0.025
-0.03
-0.025
-0.03
-0.03
-0.035
-0.045
-0.035
-0.035
-0.04
-0.035
-0.04
-0.04
-0.045
-0.04
-0.045
-0.03
-0.005
-0.03
0.005
0.0
-0.045
-0.05
-0.04
-0.05
-0.05
-0.045
-0.04
-0.045
-0.04
-0.04
-0.05
-0.065
-0.185
0.085
0.495
0.48
0.3
0.07
0.0
0.025
0.005
0.0
0.0
-0.005
0.0
-0.005
-0.005
-0.01
-0.005
-0.01
-0.015
-0.015
-0.02
-0.025
-0.03
-0.035
-0.04
-0.045
-0.05
-0.045
-0.045
-0.04
-0.025
-0.005
0.015
0.03
0.025
0.02
0.01
0.0
0.0
0.0
0.0
0.0
0.0
0.0
0.0
0.0
0.0
0.0
0.0
0.0
-0.005
0.0
-0.01
-0.01
-0.01
-0.015
-0.015
-0.02
-0.025
-0.02
-0.025
-0.025
-0.03
-0.025
-0.03
-0.025
-0.03
-0.025
-0.035
-0.03
-0.035
-0.025
-0.03
0.0
0.0
-0.015
0.0
-0.015
-0.035
-0.045
-0.035
-0.04
-0.045
-0.03
-0.03
-0.02
-0.025
-0.015
-0.04
-0.055
-0.135
0.22
0.6
0.365
0.16
0.0
0.04
0.035
0.015
0.015
0.0
0.005
0.0
0.005
0.0
0.0
-0.005
0.0
-0.01
-0.01
-0.015
-0.02
-0.025
-0.03
-0.035
-0.04
-0.04
-0.035
-0.035
-0.02
0.0
0.02
0.035
0.04
0.03
0.02
0.005
0.0
0.0
0.0
0.0
-0.005
0.0
0.0
0.0
0.0
0.0
0.0
0.0
0.0
-0.005
0.0
-0.01
-0.005
-0.01
-0.01
-0.015
-0.015
-0.02
-0.02
-0.025
-0.025
-0.025
-0.025
-0.025
-0.025
-0.03
-0.025
-0.03
-0.03
-0.03
-0.03
-0.035
-0.02
0.01
-0.035
0.0
0.0
-0.04
-0.05
-0.025
-0.035
-0.04
-0.035
-0.025
-0.03
-0.02
-0.025
-0.02
-0.03
-0.12
0.0
0.31
0.53
0.33
0.09
0.02
0.04
0.025
0.015
0.01
0.005
0.005
0.0
0.0
0.0
0.0
0.0
-0.005
-0.01
-0.015
-0.02
-0.02
-0.035
-0.035
-0.04
-0.045
-0.045
-0.04
-0.035
-0.02
0.0
0.02
0.025
0.03
0.02
0.015
0.005
0.0
0.0
0.0
0.0
0.0
0.0
0.0
0.005
0.0
0.0
0.0
0.0
0.0
0.0
0.0
-0.005
-0.01
-0.005
-0.01
-0.01
-0.015
-0.015
-0.02
-0.02
-0.025
-0.02
-0.03
-0.03
-0.03
-0.03
-0.03
-0.03
-0.03
-0.03
-0.03
-0.015
0.0
-0.03
-0.005
-0.02
-0.03
-0.05
-0.03
-0.04
-0.035
-0.025
-0.02
-0.025
-0.02
-0.02
-0.02
-0.03
-0.15
0.04
0.38
0.5
0.31
0.075
0.025
0.04
0.025
0.02
0.01
0.005
0.0
0.0
0.0
-0.005
-0.005
-0.01
-0.015
-0.015
-0.02
-0.03
-0.03
-0.04
-0.04
-0.045
-0.05
-0.05
-0.045
-0.04
-0.025
0.0
0.01
0.025
0.025
0.015
0.005
0.0
0.0
0.0
0.0
0.0
0.0
0.0
0.0
0.0
0.0
0.0
0.0
0.0
0.0
-0.005
-0.005
-0.005
-0.01
-0.01
-0.015
-0.015
-0.015
-0.02
-0.02
-0.02
-0.025
-0.025
-0.025
-0.03
-0.03
-0.03
-0.03
-0.025
-0.03
-0.03
-0.03
-0.025
-0.025
-0.005
0.0
-0.015
0.0
-0.02
-0.025
-0.04
-0.035
-0.04
-0.035
-0.03
-0.025
-0.025
-0.02
-0.015
-0.03
-0.04
-0.185
0.11
0.49
0.455
0.275
0.045
0.035
0.04
0.02
0.015
0.005
0.005
0.0
0.0
0.0
0.0
-0.005
-0.005
-0.01
-0.015
-0.025
-0.02
-0.025
-0.03
-0.04
-0.04
-0.045
-0.04
-0.04
-0.03
-0.015
0.005
0.025
0.03
0.03
0.025
0.015
0.005
0.005
0.005
0.005
0.005
0.005
0.005
0.01
0.01
0.01
0.005
0.005
0.005
0.0
0.0
0.0
0.0
0.0
-0.005
-0.005
-0.01
-0.01
-0.015
-0.015
-0.015
-0.015
-0.02
-0.02
-0.02
-0.02
-0.02
-0.025
-0.02
-0.02
-0.02
-0.025
-0.025
-0.02
-0.02
-0.02
0.0
0.0
0.0
0.005
-0.015
-0.025
-0.03
-0.025
-0.025
-0.03
-0.02
-0.02
-0.015
-0.015
-0.01
-0.035
-0.05
-0.2
0.155
0.585
0.44
0.25
0.025
0.04
0.04
0.02
0.01
0.01
0.01
0.005
0.0
0.0
0.0
-0.005
-0.005
-0.01
-0.01
-0.015
-0.02
-0.03
-0.03
-0.03
-0.035
-0.04
-0.035
-0.03
-0.02
-0.01
0.015
0.03
0.04
0.035
0.03
0.01
0.005
0.0
0.0
0.0
0.0
0.0
0.0
0.0
0.005
0.005
0.0
0.0
0.0
-0.005
0.0
0.0
-0.01
-0.01
-0.015
-0.01
-0.015
-0.02
-0.02
-0.02
-0.02
-0.025
-0.02
-0.025
-0.03
-0.025
-0.025
-0.03
-0.03
-0.03
-0.02
-0.025
-0.01
-0.005
0.0
0.0
-0.02
-0.025
-0.03
-0.03
-0.03
-0.03
-0.02
-0.02
-0.02
-0.015
-0.01
-0.04
-0.055
-0.205
0.095
0.6
0.505
0.305
0.06
0.01
0.04
0.015
0.01
0.0
0.01
0.005
0.0
-0.01
-0.01
-0.02
-0.015
-0.02
-0.02
-0.02
-0.025
-0.04
-0.035
-0.045
-0.05
-0.05
-0.05
-0.045
-0.045
-0.025
-0.01
0.01
0.015
0.015
0.015
0.01
0.005
0.0
0.0
0.005
0.005
0.0
0.0
0.0
0.0
0.0
-0.005
-0.005
0.0
-0.01
-0.01
-0.015
-0.015
-0.02
-0.025
-0.02
-0.02
-0.025
-0.025
-0.02
-0.025
-0.025
-0.03
-0.03
-0.025
-0.03
-0.03
-0.03
0.0
-0.005
0.01
0.0
-0.03
-0.02
-0.025
-0.04
-0.04
-0.04
-0.02
-0.025
-0.035
-0.025
-0.015
-0.075
-0.08
-0.21
0.155
0.68
0.475
0.235
0.01
0.01
0.02
0.0
0.0
-0.01
-0.015
-0.015
-0.015
-0.02
-0.02
-0.025
-0.025
-0.03
-0.035
-0.04
-0.045
-0.055
-0.055
-0.065
-0.065
-0.07
-0.07
-0.07
-0.06
-0.045
-0.02
0.0
0.01
0.01
0.01
0.005
0.0
0.0
0.0
0.0
0.0
0.0
0.005
0.005
0.0
0.0
0.0
0.0
0.0
0.0
-0.005
-0.005
-0.015
-0.015
-0.015
-0.02
-0.02
-0.02
-0.025
-0.025
-0.025
-0.025
-0.03
-0.03
-0.035
-0.03
-0.035
-0.03
-0.035
-0.035
-0.04
-0.015
0.015
-0.03
0.0
-0.015
-0.04
-0.055
-0.035
-0.05
-0.045
-0.04
-0.04
-0.035
-0.035
-0.035
-0.045
-0.035
-0.155
0.19
0.5
0.38
0.235
0.0
0.03
0.03
0.01
0.005
0.0
0.0
0.0
0.0
-0.005
0.0
-0.01
-0.01
-0.015
-0.015
-0.02
-0.02
-0.03
-0.03
-0.035
-0.035
-0.04
-0.04
-0.035
-0.02
-0.005
0.02
0.035
0.035
0.03
0.02
0.005
0.0
0.0
-0.005
-0.005
-0.005
0.0
0.0
0.0
0.0
0.0
0.0
0.0
0.0
-0.005
-0.01
-0.01
-0.005
-0.015
-0.015
-0.02
-0.02
-0.025
-0.025
-0.025
-0.03
-0.03
-0.03
-0.03
-0.03
-0.03
-0.03
-0.035
-0.03
-0.035
-0.03
-0.035
-0.015
0.01
-0.025
0.0
-0.01
-0.03
-0.055
-0.025
-0.04
-0.04
-0.035
-0.025
-0.03
-0.025
-0.025
-0.02
-0.035
-0.125
0.02
0.33
0.525
0.33
0.085
0.02
0.04
0.025
0.01
0.01
0.0
0.0
0.0
0.0
-0.005
0.0
-0.01
-0.01
-0.015
-0.015
-0.025
-0.025
-0.035
-0.035
-0.04
-0.045
-0.045
-0.045
-0.035
-0.02
0.0
0.02
0.03
0.03
0.02
0.01
0.0
0.0
0.0
0.0
-0.005
0.0
0.0
0.0
0.005
0.0
0.0
0.0
0.0
0.0
0.0
-0.005
-0.01
-0.01
-0.01
-0.015
-0.015
-0.015
-0.02
-0.02
-0.025
-0.02
-0.02
-0.025
-0.025
-0.025
-0.03
-0.03
-0.03
-0.03
-0.03
-0.03
-0.03
-0.03
-0.035
-0.015
0.005
-0.025
0.01
-0.005
-0.03
-0.055
-0.025
-0.04
-0.04
-0.035
-0.03
-0.03
-0.025
-0.025
-0.015
-0.045
-0.09
-0.115
0.23
0.625
0.385
0.155
0.0
0.04
0.03
0.01
0.005
0.0
0.0
0.0
0.0
-0.005
-0.005
-0.01
-0.01
-0.02
-0.015
-0.025
-0.025
-0.03
-0.035
-0.045
-0.04
-0.045
-0.04
-0.035
-0.02
0.0
0.02
0.03
0.035
0.025
0.02
0.005
0.005
0.0
0.0
0.0
0.0
0.005
0.005
0.005
0.0
0.0
0.0
0.0
-0.005
0.0
-0.005
-0.005
-0.01
-0.015
-0.015
-0.015
-0.015
-0.02
-0.02
-0.02
-0.025
-0.025
-0.025
-0.03
-0.03
-0.025
-0.03
-0.03
-0.03
-0.03
-0.03
-0.03
-0.035
-0.03
-0.02
0.0
-0.005
0.0
0.0
-0.02
-0.035
-0.03
-0.04
-0.035
-0.04
-0.025
-0.03
-0.02
-0.025
-0.015
-0.05
-0.065
-0.205
0.18
0.645
0.42
0.215
0.005
0.04
0.035
0.01
0.01
0.0
0.005
0.0
0.0
-0.005
0.0
-0.01
-0.005
-0.015
-0.015
-0.02
-0.02
-0.03
-0.035
-0.04
-0.04
-0.045
-0.035
-0.035
-0.02
-0.005
0.02
0.035
0.04
0.035
0.025
0.015
0.01
0.005
0.005
0.005
0.005
0.0
0.005
0.005
0.005
0.0
0.005
0.005
0.0
0.0
-0.005
-0.005
-0.005
-0.005
-0.005
-0.01
-0.01
-0.015
-0.015
-0.02
-0.02
-0.025
-0.025
-0.02
-0.02
-0.025
-0.02
-0.03
-0.03
-0.025
-0.025
-0.025
-0.01
0.005
-0.01
0.02
0.005
-0.02
-0.035
-0.015
-0.04
-0.035
-0.035
-0.02
-0.03
-0.025
-0.02
-0.005
-0.05
-0.095
-0.175
0.2
0.68
0.44
0.185
-0.005
0.04
0.03
0.015
0.0
-0.005
-0.005
-0.015
-0.005
-0.01
-0.01
-0.015
-0.01
-0.025
-0.025
-0.035
-0.03
-0.035
-0.03
-0.05
-0.045
-0.04
-0.03
-0.04
-0.025
-0.005
0.01
0.025
0.035
0.025
0.015
0.015
0.01
0.0
0.0
0.0
0.0
0.0
0.0
0.0
0.005
0.0
0.0
-0.005
0.0
0.0
0.0
-0.01
-0.015
-0.01
-0.015
-0.015
-0.02
-0.02
-0.02
-0.02
-0.025
-0.03
-0.02
-0.035
-0.025
-0.025
-0.025
-0.02
0.0
0.0
0.01
0.01
-0.005
-0.015
-0.03
-0.03
-0.03
-0.03
-0.03
-0.03
-0.02
-0.01
-0.01
-0.045
-0.065
-0.21
0.11
0.625
0.49
0.28
0.06
0.02
0.04
0.005
0.0
-0.01
0.0
-0.01
-0.005
-0.015
-0.02
-0.025
-0.025
-0.025
-0.025
-0.045
-0.04
-0.04
-0.045
-0.055
-0.06
-0.065
-0.065
-0.065
-0.055
-0.04
-0.02
-0.01
0.005
0.01
0.005
-0.005
-0.005
-0.01
-0.005
-0.005
-0.01
-0.005
-0.005
-0.005
-0.01
-0.015
-0.015
-0.015
-0.015
-0.02
-0.02
-0.025
-0.025
-0.03
-0.03
-0.035
-0.035
-0.035
-0.04
-0.04
-0.04
-0.035
-0.04
-0.04
-0.045
-0.04
-0.015
0.005
0.0
0.015
-0.005
-0.02
-0.03
-0.025
-0.045
-0.045
-0.04
-0.035
-0.035
-0.03
-0.035
-0.025
-0.055
-0.07
-0.185
0.19
0.63
0.41
0.21
0.0
0.035
0.02
0.005
0.005
0.0
0.0
-0.005
-0.005
-0.01
-0.005
-0.015
-0.015
-0.02
-0.02
-0.03
-0.03
-0.04
-0.035
-0.045
-0.045
-0.05
-0.045
-0.04
-0.025
-0.005
0.015
0.035
0.035
0.025
0.02
0.005
0.0
-0.005
-0.005
-0.005
-0.005
0.0
0.0
0.0
0.0
0.0
0.0
0.0
-0.005
-0.005
-0.01
-0.01
-0.015
-0.015
-0.02
-0.015
-0.02
-0.025
-0.025
-0.03
-0.03
-0.03
-0.035
-0.03
-0.04
-0.035
-0.035
-0.035
-0.035
-0.015
0.0
0.005
0.0
-0.005
-0.015
-0.03
-0.035
-0.04
-0.045
-0.04
-0.035
-0.035
-0.035
-0.03
-0.025
-0.045
-0.045
-0.185
0.155
0.535
0.41
0.24
0.01
0.035
0.025
0.01
0.005
0.0
0.0
-0.005
-0.005
-0.01
-0.01
-0.015
-0.015
-0.02
-0.02
-0.025
-0.03
-0.035
-0.04
-0.045
-0.045
-0.045
-0.05
-0.045
-0.035
-0.015
0.005
0.02
0.03
0.02
0.015
0.0
0.0
-0.005
-0.005
-0.01
-0.01
-0.01
-0.005
-0.005
-0.005
-0.005
-0.005
-0.005
-0.005
-0.01
-0.005
-0.015
-0.01
-0.015
-0.02
-0.02
-0.02
-0.02
-0.025
-0.025
-0.03
-0.03
-0.03
-0.03
-0.03
-0.03
-0.03
-0.03
-0.03
-0.03
-0.01
0.01
-0.015
0.015
-0.005
-0.025
-0.045
-0.025
-0.04
-0.035
-0.035
-0.025
-0.03
-0.02
-0.02
-0.015
-0.045
-0.085
-0.145
0.205
0.625
0.38
0.16
0.0
0.04
0.025
0.01
0.005
0.0
0.0
-0.005
0.0
-0.01
-0.005
-0.01
-0.01
-0.02
-0.02
-0.03
-0.03
-0.04
-0.04
-0.05
-0.045
-0.055
-0.05
-0.045
-0.03
-0.01
0.01
0.025
0.025
0.015
0.005
0.0
0.0
-0.005
-0.005
-0.005
-0.005
0.0
0.0
0.0
-0.005
0.0
-0.005
-0.005
-0.005
-0.005
-0.01
-0.01
-0.015
-0.015
-0.02
-0.02
-0.02
-0.02
-0.025
-0.02
-0.025
-0.025
-0.03
-0.025
-0.025
0.0
0.015
0.02
0.025
0.0
0.0
-0.02
-0.02
-0.03
-0.035
-0.025
-0.025
-0.02
-0.025
-0.015
-0.015
-0.02
-0.035
-0.165
0.06
0.43
0.495
0.31
0.07
0.025
0.035
0.02
0.01
0.005
0.0
0.0
0.0
0.0
-0.005
-0.01
-0.01
-0.015
-0.015
-0.02
-0.025
-0.03
-0.035
-0.04
-0.04
-0.045
-0.04
-0.035
-0.03
-0.015
0.005
0.02
0.03
0.03
0.02
0.01
0.0
0.0
0.0
0.0
0.0
-0.005
0.0
0.0
0.0
0.0
0.0
0.0
0.0
-0.005
-0.005
-0.005
-0.015
-0.015
-0.015
-0.01
-0.01
-0.01
-0.02
-0.02
-0.02
-0.02
-0.02
0.0
0.01
0.04
0.015
0.025
0.03
0.0
-0.01
-0.025
-0.035
-0.03
-0.025
-0.01
-0.02
-0.015
-0.02
-0.01
-0.055
-0.115
-0.15
0.25
0.675
0.445
0.175
0.0
0.035
0.03
0.01
0.01
0.0
0.0
-0.005
-0.01
-0.02
-0.01
-0.02
-0.025
-0.025
-0.025
-0.03
-0.035
-0.04
-0.045
-0.05
-0.055
-0.06
-0.06
-0.06
-0.04
-0.025
0.0
0.01
0.02
0.015
0.015
0.0
0.0
0.0
0.0
0.005
0.0
0.0
0.0
0.0
-0.005
0.0
-0.005
0.0
-0.01
-0.01
-0.01
-0.02
-0.02
-0.025
-0.03
-0.02
-0.015
-0.03
-0.025
-0.03
-0.025
-0.03
-0.02
0.0
0.03
0.015
0.03
0.025
-0.005
-0.03
-0.03
-0.04
-0.04
-0.035
-0.03
-0.035
-0.03
-0.03
-0.025
-0.065
-0.1
-0.175
0.215
0.68
0.44
0.18
-0.015
0.025
0.015
0.0
-0.005
-0.015
-0.01
-0.015
-0.015
-0.025
-0.02
-0.03
-0.025
-0.03
-0.035
-0.04
-0.045
-0.05
-0.05
-0.065
-0.065
-0.07
-0.07
-0.065
-0.05
-0.035
-0.01
0.0
0.01
0.01
0.005
0.0
0.0
-0.005
-0.005
0.0
0.0
0.0
0.0
0.0
0.0
-0.005
-0.005
-0.005
-0.01
-0.015
-0.02
-0.015
-0.025
-0.02
-0.025
-0.025
-0.03
-0.025
-0.03
-0.03
-0.03
-0.03
-0.03
-0.03
-0.035
0.005
0.02
0.025
0.03
-0.005
0.0
-0.025
-0.025
-0.04
-0.045
-0.035
-0.035
-0.03
-0.03
-0.025
-0.03
-0.04
-0.03
-0.15
0.14
0.465
0.425
0.265
0.025
0.025
0.03
0.015
0.005
0.0
0.0
0.0
-0.005
-0.01
-0.005
-0.015
-0.015
-0.015
-0.015
-0.02
-0.025
-0.03
-0.035
-0.04
-0.045
-0.045
-0.045
-0.04
-0.03
-0.015
0.005
0.025
0.03
0.025
0.015
0.005
0.0
0.0
0.0
0.0
-0.005
-0.005
0.0
0.0
0.0
0.0
0.0
0.0
0.0
0.0
-0.005
-0.005
-0.01
-0.015
-0.015
-0.015
-0.02
-0.02
-0.02
-0.02
-0.025
-0.025
-0.03
-0.03
-0.025
-0.01
0.01
0.03
0.015
0.01
0.02
-0.01
-0.025
-0.025
-0.035
-0.03
-0.03
-0.02
-0.025
-0.02
-0.025
-0.015
-0.035
-0.04
-0.195
0.17
0.59
0.415
0.225
0.01
0.04
0.03
0.015
0.01
0.0
0.0
0.0
0.0
-0.01
-0.01
-0.015
-0.015
-0.015
-0.015
-0.025
-0.025
-0.03
-0.035
-0.04
-0.04
-0.05
-0.045
-0.045
-0.035
-0.015
0.005
0.02
0.025
0.025
0.015
0.005
0.0
0.0
0.0
0.0
0.0
0.0
0.0
0.0
0.0
0.005
0.0
0.0
0.0
0.0
-0.005
-0.005
-0.015
-0.015
-0.015
-0.02
-0.02
-0.02
-0.025
-0.02
-0.025
-0.02
-0.025
-0.02
-0.03
-0.03
-0.035
-0.03
-0.035
0.005
0.015
0.0
0.025
0.005
-0.02
-0.04
-0.02
-0.03
-0.04
-0.03
-0.03
-0.02
-0.03
-0.015
-0.025
-0.02
-0.04
-0.13
0.04
0.37
0.52
0.325
0.085
0.025
0.04
0.02
0.005
0.005
0.0
0.0
0.0
0.0
-0.005
-0.005
-0.01
-0.01
-0.015
-0.015
-0.02
-0.025
-0.03
-0.035
-0.04
-0.045
-0.045
-0.045
-0.035
-0.02
0.0
0.02
0.025
0.02
0.015
0.01
0.005
0.0
0.0
0.0
0.0
0.0
0.0
0.005
0.005
0.005
0.0
0.0
0.0
0.0
-0.005
-0.005
-0.005
-0.01
-0.01
-0.015
-0.015
-0.02
-0.02
-0.025
-0.02
-0.025
-0.02
-0.025
-0.025
-0.03
-0.025
-0.03
-0.025
-0.03
-0.025
-0.03
0.0
0.01
0.01
0.02
0.0
-0.01
-0.035
-0.025
-0.025
-0.04
-0.025
-0.03
-0.02
-0.025
-0.015
-0.02
-0.015
-0.04
-0.125
0.015
0.355
0.545
0.34
0.1
0.02
0.04
0.025
0.01
0.005
0.0
0.0
-0.005
0.0
-0.005
-0.005
-0.01
-0.01
-0.02
-0.02
-0.025
-0.03
-0.035
-0.04
-0.045
-0.04
-0.045
-0.04
-0.035
-0.02
0.0
0.02
0.03
0.03
0.02
0.015
0.005
0.0
0.0
0.005
0.0
0.005
0.0
0.005
0.005
0.005
0.0
0.0
0.0
0.0
0.0
0.0
-0.005
-0.005
-0.01
-0.01
-0.015
-0.015
-0.015
-0.015
-0.02
-0.015
-0.02
-0.02
-0.02
-0.02
-0.025
-0.025
-0.03
-0.025
-0.03
-0.025
-0.03
0.0
0.015
0.0
0.03
0.0
-0.015
-0.045
-0.02
-0.035
-0.03
-0.03
-0.02
-0.025
-0.025
-0.02
-0.015
-0.045
-0.055
-0.205
0.16
0.62
0.44
0.24
0.02
0.035
0.03
0.015
0.005
0.0
0.0
-0.01
-0.005
-0.015
-0.015
-0.015
-0.015
-0.02
-0.02
-0.025
-0.025
-0.035
-0.035
-0.035
-0.04
-0.045
-0.04
-0.035
-0.025
-0.005
0.015
0.03
0.035
0.03
0.02
0.01
0.005
0.005
0.0
0.0
0.0
0.0
0.005
0.005
0.0
0.0
0.0
0.0
-0.005
-0.01
-0.01
-0.005
-0.01
-0.01
-0.015
-0.02
-0.02
-0.02
-0.03
-0.025
-0.02
-0.025
-0.03
-0.03
-0.03
-0.02
-0.03
-0.025
-0.03
-0.03
-0.035
-0.01
0.01
-0.015
0.03
0.01
-0.015
-0.045
-0.02
-0.025
-0.04
-0.035
-0.025
-0.02
-0.03
-0.025
-0.015
-0.05
-0.075
-0.215
0.165
0.715
0.48
0.235
0.02
0.025
0.03
0.01
0.005
-0.005
0.0
-0.005
0.0
-0.015
-0.01
-0.015
-0.02
-0.02
-0.02
-0.03
-0.035
-0.035
-0.04
-0.045
-0.055
-0.055
-0.05
-0.05
-0.04
-0.03
0.0
0.01
0.02
0.025
0.02
0.005
0.0
0.005
0.005
0.0
0.0
0.0
0.0
-0.005
0.0
0.0
0.0
-0.005
-0.01
-0.015
-0.02
-0.02
-0.02
-0.025
-0.015
-0.02
-0.02
-0.02
-0.035
-0.025
-0.03
-0.035
-0.025
-0.025
-0.03
-0.03
-0.035
-0.035
-0.03
0.0
-0.005
0.01
0.0
-0.03
-0.035
-0.035
-0.045
-0.05
-0.045
-0.035
-0.035
-0.03
-0.035
-0.02
-0.06
-0.08
-0.21
0.125
0.65
0.48
0.265
0.04
0.005
0.02
0.005
0.0
-0.01
-0.01
-0.02
-0.015
-0.02
-0.02
-0.03
-0.025
-0.03
-0.03
-0.04
-0.045
-0.045
-0.05
-0.055
-0.06
-0.065
-0.065
-0.065
-0.055
-0.04
-0.015
0.0
0.015
0.015
0.01
0.0
0.0
0.0
0.0
0.0
0.0
0.0
0.0
0.0
0.0
0.0
0.0
-0.005
-0.005
-0.01
-0.01
-0.015
-0.015
-0.02
-0.02
-0.015
-0.02
-0.02
-0.025
-0.025
-0.025
-0.025
-0.025
-0.025
-0.03
-0.03
-0.035
-0.03
-0.035
-0.035
-0.02
0.005
0.005
0.0
0.0
-0.005
-0.03
-0.035
-0.04
-0.045
-0.045
-0.035
-0.035
-0.03
-0.035
-0.025
-0.05
-0.055
-0.17
0.21
0.61
0.37
0.2
0.0
0.035
0.025
0.005
0.005
0.0
0.0
-0.005
0.0
-0.01
-0.005
-0.015
-0.01
-0.02
-0.015
-0.025
-0.025
-0.035
-0.035
-0.04
-0.04
-0.04
-0.035
-0.035
-0.015
0.0
0.025
0.04
0.04
0.03
0.02
0.005
0.0
-0.005
-0.005
-0.005
-0.005
-0.005
0.0
0.0
0.0
0.0
0.0
-0.005
-0.005
-0.005
-0.01
-0.01
-0.015
-0.015
-0.015
-0.02
-0.02
-0.02
-0.025
-0.025
-0.03
-0.03
-0.03
-0.03
-0.03
-0.03
-0.03
-0.03
-0.03
-0.02
0.0
0.015
0.0
0.0
0.0
-0.02
-0.04
-0.035
-0.04
-0.04
-0.03
-0.025
-0.025
-0.025
-0.02
-0.03
-0.04
-0.16
0.08
0.435
0.49
0.305
0.065
0.025
0.035
0.02
0.005
0.0
0.0
0.0
-0.005
-0.005
-0.005
-0.01
-0.01
-0.015
-0.015
-0.02
-0.025
-0.035
-0.035
-0.04
-0.04
-0.045
-0.04
-0.04
-0.035
-0.015
0.005
0.025
0.035
0.03
0.015
0.01
0.0
0.0
0.0
-0.005
-0.005
0.0
0.0
0.0
0.0
0.0
0.0
0.0
-0.005
-0.005
-0.01
-0.01
-0.01
-0.01
-0.02
-0.02
-0.02
-0.02
-0.025
-0.02
-0.025
-0.03
-0.025
-0.025
-0.03
-0.025
-0.03
-0.03
-0.035
0.0
0.02
-0.005
0.025
0.0
-0.015
-0.045
-0.025
-0.04
-0.035
-0.03
-0.025
-0.025
-0.02
-0.02
-0.015
-0.05
-0.065
-0.205
0.175
0.655
0.42
0.21
0.0
0.04
0.025
0.01
0.005
-0.005
0.0
-0.005
-0.005
-0.01
-0.01
-0.015
-0.015
-0.02
-0.02
-0.025
-0.025
-0.035
-0.04
-0.045
-0.045
-0.05
-0.045
-0.04
-0.03
-0.01
0.01
0.025
0.03
0.025
0.015
0.005
0.005
0.0
0.0
0.0
0.0
0.0
0.0
0.0
0.0
0.0
0.0
0.0
0.0
-0.005
-0.005
-0.005
-0.01
-0.01
-0.015
-0.015
-0.015
-0.01
-0.015
-0.015
-0.02
-0.015
-0.02
-0.015
-0.02
-0.02
-0.03
0.005
0.015
0.03
0.025
0.0
0.0
-0.02
-0.015
-0.025
-0.03
-0.03
-0.025
-0.02
-0.025
-0.015
-0.02
-0.02
-0.045
-0.155
0.005
0.39
0.545
0.345
0.1
0.005
0.04
0.02
0.005
0.0
0.0
0.0
-0.01
-0.01
-0.01
-0.015
-0.015
-0.015
-0.025
-0.025
-0.04
-0.03
-0.04
-0.035
-0.045
-0.05
-0.045
-0.04
-0.035
-0.03
0.0
0.01
0.03
0.03
0.02
0.01
0.005
0.0
0.0
0.0
0.0
0.0
0.0
0.0
0.0
-0.005
-0.005
-0.005
0.0
-0.01
-0.01
-0.015
-0.01
-0.015
-0.015
-0.02
-0.02
-0.025
-0.025
-0.03
-0.025
-0.03
-0.02
-0.025
-0.03
-0.03
-0.005
0.0
0.025
0.035
0.015
0.01
-0.02
-0.02
-0.025
-0.04
-0.025
-0.035
-0.02
-0.03
-0.02
-0.025
-0.01
-0.055
-0.115
-0.15
0.245
0.685
0.44
0.175
0.0
0.035
0.025
0.0
0.005
-0.005
-0.005
-0.005
-0.005
-0.015
-0.01
-0.02
-0.025
-0.03
-0.03
-0.03
-0.035
-0.04
-0.045
-0.06
-0.055
-0.06
-0.055
-0.05
-0.045
-0.035
-0.005
0.0
0.01
0.015
0.01
0.005
0.0
0.0
-0.005
0.0
0.0
0.0
0.0
0.0
-0.005
-0.005
-0.005
-0.01
-0.01
-0.02
-0.015
-0.01
-0.025
-0.025
-0.025
-0.03
-0.03
-0.03
-0.03
-0.035
-0.035
-0.04
-0.035
-0.04
-0.035
-0.035
-0.025
-0.005
0.025
0.015
0.02
0.015
-0.005
-0.03
-0.035
-0.045
-0.04
-0.04
-0.035
-0.035
-0.03
-0.035
-0.025
-0.055
-0.065
-0.205
0.165
0.655
0.46
0.245
0.03
0.02
0.03
0.01
0.005
-0.005
0.0
-0.01
-0.005
-0.01
-0.01
-0.015
-0.015
-0.02
-0.02
-0.025
-0.03
-0.035
-0.04
-0.045
-0.05
-0.055
-0.055
-0.05
-0.04
-0.025
0.0
0.01
0.025
0.02
0.015
0.01
0.005
0.0
0.0
0.0
0.0
0.0
0.005
0.0
0.005
0.0
0.0
0.0
0.0
0.0
-0.005
-0.005
-0.01
-0.01
-0.015
-0.015
-0.02
-0.02
-0.02
-0.02
-0.02
-0.025
-0.025
-0.025
-0.03
-0.025
-0.03
-0.03
-0.03
-0.025
-0.035
-0.03
-0.035
-0.01
0.005
0.03
0.01
0.01
0.01
-0.015
-0.03
-0.025
-0.04
-0.035
-0.035
-0.025
-0.035
-0.025
-0.03
-0.02
-0.04
-0.07
-0.09
0.23
0.575
0.34
0.13
0.0
0.035
0.02
0.005
0.005
0.0
0.0
-0.005
-0.005
-0.01
-0.005
-0.01
-0.01
-0.015
-0.015
-0.02
-0.02
-0.03
-0.03
-0.035
-0.035
-0.04
-0.035
-0.035
-0.02
0.0
0.02
0.03
0.03
0.025
0.015
0.01
0.0
0.0
0.0
0.0
0.0
0.0
0.0
0.005
0.005
0.005
0.005
0.005
0.0
0.005
0.0
0.0
0.0
-0.005
-0.005
-0.01
-0.01
-0.015
-0.02
-0.02
-0.02
-0.02
-0.025
-0.025
-0.025
-0.025
-0.025
-0.025
-0.025
-0.03
-0.03
-0.025
-0.03
-0.025
-0.03
-0.03
-0.03
-0.03
-0.03
0.0
0.025
0.01
0.025
0.015
-0.01
-0.035
-0.025
-0.04
-0.04
-0.035
-0.03
-0.025
-0.03
-0.025
-0.025
-0.03
-0.04
-0.175
0.16
0.51
0.43
0.26
0.03
0.04
0.035
0.015
0.01
0.005
0.0
0.0
0.0
0.0
0.0
-0.005
-0.005
-0.01
-0.015
-0.02
-0.02
-0.025
-0.025
-0.035
-0.035
-0.04
-0.04
-0.035
-0.025
-0.01
0.01
0.03
0.035
0.035
0.025
0.02
0.01
0.005
0.005
0.0
0.005
0.0
0.0
0.005
0.0
0.005
0.005
0.005
0.0
0.0
0.0
0.0
0.0
0.0
-0.005
-0.005
-0.01
-0.01
-0.01
-0.015
-0.015
-0.015
-0.02
-0.02
-0.02
-0.015
-0.02
-0.025
-0.025
-0.02
-0.025
-0.025
-0.025
-0.02
-0.025
-0.025
-0.03
-0.025
-0.03
-0.03
-0.035
-0.03
-0.035
-0.005
0.0
0.02
0.02
0.0
0.0
-0.02
-0.02
-0.035
-0.04
-0.035
-0.035
-0.025
-0.035
-0.025
-0.025
-0.015
-0.045
-0.065
-0.165
0.21
0.63
0.385
0.175
0.0
0.04
0.025
0.01
0.005
0.0
0.0
-0.005
0.0
-0.01
-0.005
-0.01
-0.01
-0.015
-0.01
-0.02
-0.02
-0.025
-0.03
-0.035
-0.035
-0.04
-0.04
-0.035
-0.02
-0.005
0.02
0.035
0.04
0.035
0.03
0.015
0.01
0.005
0.005
0.005
0.01
0.01
0.01
0.01
0.01
0.01
0.01
0.005
0.01
0.005
0.005
0.0
0.0
0.0
0.0
-0.005
-0.005
-0.01
-0.01
-0.015
-0.01
-0.015
-0.015
-0.015
-0.015
-0.02
-0.02
-0.02
-0.03
-0.02
-0.02
-0.025
-0.03
-0.025
-0.025
-0.03
-0.03
-0.03
-0.03
-0.035
-0.03
-0.03
-0.03
-0.03
-0.04
-0.01
0.0
0.02
0.035
0.0
0.0
-0.025
-0.02
-0.04
-0.04
-0.035
-0.035
-0.025
-0.035
-0.03
-0.025
-0.03
-0.055
-0.18
0.075
0.49
0.51
0.31
0.07
0.01
0.03
0.015
0.0
0.0
-0.005
-0.01
-0.015
-0.01
-0.02
-0.02
-0.01
-0.02
-0.015
-0.035
-0.04
-0.045
-0.035
-0.04
-0.045
-0.05
-0.05
-0.035
-0.03
-0.02
0.0
0.015
0.025
0.03
0.03
0.025
-0.05
-0.09
-0.1
-0.09
-0.055
-0.07
-0.095
-0.085
-0.095
-0.08
-0.09
-0.03
-0.01
-0.02
-0.03
0.005
-0.05
-0.005
-0.02
-0.045
-0.055
-0.01
-0.065
-0.055
-0.03
-0.015
-0.055
-0.035
-0.03
-0.05
-0.03
-0.02
-0.06
-0.08
-0.02
-0.035
-0.01
0.0
0.065
0.075
0.075
0.1
0.015
-0.025
-0.06
-0.075
-0.07
-0.095
-0.05
-0.085
-0.09
-0.085
-0.05
-0.1
-0.15
0.32
0.875
0.655
0.26
0.015
0.01
0.005
-0.02
-0.025
-0.03
-0.065
-0.03
-0.05
-0.085
0.0
-0.035
-0.055
-0.055
-0.045
-0.05
-0.055
-0.065
-0.07
-0.05
-0.065
-0.08
-0.055
-0.07
-0.035
-0.025
0.0
0.0
0.025
0.02
0.015
-0.015
0.0
-0.025
-0.01
0.0
-0.015
-0.005
-0.005
0.0
0.005
0.01
-0.01
-0.02
0.015
-0.02
0.02
-0.025
-0.005
0.065
0.04
0.11
0.14
0.17
0.17
0.045
0.045
-0.015
-0.04
0.02
-0.02
-0.04
-0.04
-0.015
0.035
-0.06
-0.075
0.045
0.5
0.93
0.63
0.28
0.005
0.095
0.005
0.005
0.005
0.015
0.05
0.06
-0.04
0.005
0.01
0.005
0.005
-0.035
0.04
0.005
0.02
-0.095
0.0
-0.02
-0.08
-0.055
-0.02
0.015
0.01
0.035
0.07
0.0
0.075
0.045
0.01
-0.02
-0.035
-0.01
0.045
0.04
0.05
0.005
0.02
-0.08
-0.01
0.01
-0.16
-0.05
-0.07
-0.025
-0.025
-0.06
-0.04
0.035
0.135
0.09
0.06
0.085
0.045
-0.04
-0.09
-0.045
-0.12
-0.055
-0.02
-0.015
-0.07
-0.075
-0.12
-0.05
0.215
0.61
0.725
0.375
0.125
0.01
0.0
0.03
0.0
-0.01
-0.005
0.005
-0.04
0.0
0.04
-0.005
-0.03
-0.03
0.0
-0.03
-0.01
-0.035
-0.005
-0.035
-0.005
-0.06
-0.03
-0.005
0.0
-0.015
0.025
0.07
0.045
0.04
0.015
0.005
-0.005
0.025
-0.015
0.015
-0.005
0.005
0.0
-0.01
0.01
-0.005
0.02
0.0
-0.04
-0.005
0.0
0.015
0.01
0.1
0.085
0.095
0.13
0.05
-0.01
-0.05
-0.04
-0.06
-0.085
-0.055
-0.105
-0.09
-0.07
-0.1
-0.125
-0.155
0.315
0.67
0.605
0.28
-0.01
-0.025
-0.04
-0.06
-0.04
-0.085
-0.09
-0.095
-0.105
-0.07
-0.065
-0.08
-0.105
-0.085
-0.085
-0.1
-0.125
-0.13
-0.135
-0.12
-0.125
-0.155
-0.115
-0.16
-0.155
-0.1
-0.075
-0.08
-0.065
-0.075
-0.09
-0.065
-0.08
-0.085
-0.11
-0.075
-0.075
-0.09
-0.1
-0.09
-0.075
-0.075
-0.105
-0.09
-0.075
-0.06
-0.02
-0.015
0.025
0.085
0.055
0.02
-0.07
-0.09
-0.105
-0.1
-0.125
-0.1
-0.13
-0.12
-0.125
-0.11
-0.135
-0.175
0.195
0.6
0.75
0.335
0.055
-0.045
-0.04
-0.05
-0.075
-0.055
-0.09
-0.075
-0.065
-0.085
-0.07
-0.085
-0.085
-0.065
-0.08
-0.075
-0.08
-0.09
-0.105
-0.09
-0.09
-0.1
-0.12
-0.095
-0.09
-0.08
-0.035
-0.03
-0.02
-0.01
-0.015
-0.015
-0.04
-0.04
-0.025
-0.03
-0.025
-0.03
-0.015
-0.03
-0.025
-0.015
-0.03
-0.04
0.0
0.015
0.055
0.075
0.125
0.125
0.065
-0.015
-0.035
-0.055
-0.05
-0.06
-0.06
-0.075
-0.06
-0.07
-0.07
-0.1
-0.16
0.14
0.61
0.77
0.425
0.095
-0.025
0.0
-0.025
-0.04
-0.055
-0.055
-0.06
-0.055
-0.05
-0.07
-0.065
-0.07
-0.06
-0.075
-0.075
-0.07
-0.085
-0.09
-0.095
-0.115
-0.1
-0.115
-0.11
-0.1
-0.08
-0.055
-0.02
-0.005
-0.015
-0.01
-0.01
-0.015
-0.01
-0.03
-0.02
-0.01
-0.01
-0.02
-0.02
-0.015
-0.015
-0.01
-0.025
0.01
0.04
0.07
0.09
0.14
0.125
0.07
-0.01
-0.025
-0.04
-0.04
-0.05
-0.055
-0.04
-0.055
-0.045
-0.065
-0.07
-0.145
0.3
0.78
0.695
0.34
0.04
0.005
0.01
-0.015
-0.035
-0.025
-0.04
-0.035
-0.04
-0.045
-0.045
-0.04
-0.05
-0.055
-0.055
-0.06
-0.065
-0.075
-0.07
-0.075
-0.08
-0.08
-0.08
-0.07
-0.055
-0.03
-0.005
0.01
0.0
0.0
-0.01
-0.015
-0.025
-0.025
-0.035
-0.03
-0.025
-0.015
-0.025
-0.025
-0.025
-0.015
-0.035
-0.04
0.01
0.02
0.08
0.09
0.105
0.115
0.03
-0.03
-0.065
-0.055
-0.07
-0.065
-0.075
-0.065
-0.075
-0.065
-0.1
-0.1
-0.05
0.42
0.895
0.535
0.175
-0.02
0.0
-0.025
-0.04
-0.045
-0.06
-0.055
-0.065
-0.055
-0.065
-0.06
-0.065
-0.06
-0.07
-0.07
-0.08
-0.08
-0.095
-0.085
-0.1
-0.095
-0.105
-0.1
-0.085
-0.065
-0.04
-0.015
-0.01
-0.01
-0.02
-0.03
-0.035
-0.025
-0.035
-0.035
-0.025
-0.025
-0.025
-0.02
-0.03
-0.025
-0.03
-0.04
0.005
0.03
0.07
0.09
0.105
0.115
0.06
-0.02
-0.055
-0.055
-0.06
-0.055
-0.065
-0.065
-0.065
-0.055
-0.09
-0.09
-0.115
0.39
0.895
0.56
0.205
-0.01
0.005
-0.01
-0.04
-0.05
-0.055
-0.045
-0.06
-0.055
-0.06
-0.055
-0.065
-0.06
-0.07
-0.07
-0.075
-0.075
-0.09
-0.09
-0.095
-0.095
-0.095
-0.095
-0.085
-0.06
-0.035
-0.015
-0.005
0.0
-0.015
-0.01
-0.025
-0.025
-0.03
-0.025
-0.03
-0.02
-0.025
-0.02
-0.025
-0.015
-0.03
-0.03
0.015
0.025
0.085
0.085
0.095
0.11
0.035
-0.025
-0.06
-0.05
-0.065
-0.055
-0.07
-0.065
-0.07
-0.055
-0.095
-0.125
0.07
0.515
0.82
0.46
0.115
-0.015
0.0
-0.02
-0.04
-0.045
-0.055
-0.05
-0.055
-0.055
-0.06
-0.055
-0.06
-0.06
-0.07
-0.065
-0.075
-0.07
-0.09
-0.09
-0.1
-0.095
-0.095
-0.09
-0.08
-0.055
-0.03
-0.01
-0.005
-0.005
-0.015
-0.02
-0.025
-0.025
-0.025
-0.02
-0.02
-0.02
-0.02
-0.02
-0.02
-0.025
-0.025
-0.01
0.03
0.04
0.085
0.1
0.1
0.075
-0.005
-0.045
-0.05
-0.06
-0.06
-0.07
-0.065
-0.07
-0.065
-0.095
-0.105
-0.165
0.335
0.88
0.58
0.225
0.0
0.0
-0.015
-0.045
-0.05
-0.06
-0.06
-0.06
-0.06
-0.06
-0.065
-0.07
-0.065
-0.07
-0.075
-0.085
-0.085
-0.095
-0.095
-0.11
-0.11
-0.115
-0.105
-0.105
-0.075
-0.055
-0.03
-0.015
-0.015
-0.02
-0.02
-0.03
-0.025
-0.03
-0.025
-0.025
-0.02
-0.025
-0.02
-0.025
-0.02
-0.025
-0.025
0.025
0.025
0.09
0.08
0.09
0.095
0.02
-0.04
-0.055
-0.055
-0.06
-0.065
-0.065
-0.06
-0.065
-0.08
-0.095
-0.175
0.295
0.83
0.625
0.28
0.02
0.0
-0.005
-0.035
-0.04
-0.05
-0.055
-0.055
-0.06
-0.06
-0.055
-0.06
-0.06
-0.065
-0.06
-0.075
-0.075
-0.09
-0.09
-0.1
-0.1
-0.11
-0.1
-0.095
-0.075
-0.05
-0.02
-0.01
-0.005
-0.005
-0.01
-0.015
-0.02
-0.02
-0.015
-0.015
-0.015
-0.015
-0.01
-0.015
-0.02
-0.02
-0.02
0.035
0.03
0.1
0.085
0.095
0.1
0.025
-0.03
-0.045
-0.05
-0.05
-0.055
-0.055
-0.055
-0.055
-0.085
-0.09
-0.16
0.32
0.88
0.595
0.25
0.005
0.01
-0.01
-0.03
-0.035
-0.045
-0.05
-0.055
-0.045
-0.055
-0.055
-0.055
-0.055
-0.065
-0.065
-0.07
-0.08
-0.09
-0.095
-0.1
-0.105
-0.105
-0.105
-0.1
-0.08
-0.055
-0.03
-0.015
-0.01
-0.01
-0.015
-0.015
-0.02
-0.02
-0.015
-0.015
-0.015
-0.01
-0.015
-0.015
-0.02
-0.02
0.0
0.035
0.06
0.085
0.1
0.11
0.075
0.0
-0.04
-0.04
-0.045
-0.04
-0.05
-0.045
-0.05
-0.04
-0.09
-0.125
0.095
0.545
0.815
0.465
0.13
0.015
0.015
0.0
-0.02
-0.025
-0.035
-0.03
-0.04
-0.035
-0.045
-0.035
-0.04
-0.04
-0.05
-0.05
-0.055
-0.065
-0.075
-0.08
-0.09
-0.09
-0.09
-0.085
-0.08
-0.05
-0.025
-0.015
0.0
0.0
-0.01
-0.01
-0.015
-0.015
-0.015
-0.02
-0.02
-0.015
-0.025
-0.02
-0.03
-0.035
-0.005
0.03
0.035
0.08
0.08
0.09
0.065
-0.015
-0.055
-0.05
-0.065
-0.065
-0.07
-0.07
-0.07
-0.065
-0.115
-0.16
0.035
0.52
0.815
0.47
0.115
-0.025
-0.015
-0.035
-0.055
-0.055
-0.065
-0.065
-0.07
-0.065
-0.065
-0.065
-0.065
-0.07
-0.075
-0.075
-0.085
-0.09
-0.095
-0.105
-0.115
-0.11
-0.115
-0.11
-0.1
-0.075
-0.05
-0.03
-0.02
-0.01
-0.01
-0.015
-0.02
-0.02
-0.015
-0.015
-0.015
-0.015
-0.015
-0.02
-0.02
-0.02
-0.015
0.035
0.035
0.09
0.095
0.095
0.085
0.005
-0.04
-0.045
-0.055
-0.055
-0.06
-0.055
-0.06
-0.055
-0.095
-0.125
0.09
0.505
0.795
0.45
0.115
0.0
0.0
-0.015
-0.04
-0.045
-0.055
-0.045
-0.06
-0.05
-0.06
-0.05
-0.055
-0.055
-0.065
-0.065
-0.08
-0.08
-0.09
-0.095
-0.105
-0.105
-0.105
-0.1
-0.09
-0.06
-0.04
-0.015
-0.01
-0.01
-0.015
-0.02
-0.02
-0.02
-0.015
-0.015
-0.015
-0.015
-0.015
-0.01
-0.01
-0.015
0.045
0.035
0.105
0.08
0.095
0.105
0.035
-0.03
-0.04
-0.05
-0.045
-0.055
-0.05
-0.05
-0.04
-0.09
-0.095
-0.03
0.415
0.895
0.535
0.185
0.0
0.01
-0.005
-0.03
-0.03
-0.045
-0.045
-0.05
-0.045
-0.05
-0.045
-0.055
-0.05
-0.055
-0.06
-0.075
-0.075
-0.09
-0.09
-0.105
-0.105
-0.11
-0.105
-0.095
-0.07
-0.045
-0.025
-0.015
-0.005
-0.01
-0.01
-0.02
-0.01
-0.01
-0.005
-0.005
0.0
-0.005
0.0
-0.005
-0.01
0.05
0.04
0.11
0.09
0.1
0.115
0.045
-0.025
-0.03
-0.04
-0.04
-0.05
-0.045
-0.045
-0.04
-0.085
-0.095
-0.035
0.415
0.885
0.53
0.18
0.0
0.01
-0.005
-0.03
-0.035
-0.045
-0.045
-0.05
-0.05
-0.055
-0.05
-0.055
-0.055
-0.06
-0.065
-0.075
-0.08
-0.095
-0.1
-0.115
-0.11
-0.12
-0.11
-0.105
-0.075
-0.055
-0.03
-0.02
-0.015
-0.015
-0.02
-0.02
-0.02
-0.02
-0.01
-0.015
-0.015
-0.015
-0.015
-0.02
-0.02
0.0
0.04
0.045
0.085
0.095
0.09
0.075
0.0
-0.035
-0.04
-0.05
-0.045
-0.055
-0.05
-0.055
-0.055
-0.095
-0.15
0.195
0.63
0.715
0.385
0.08
0.005
0.0
-0.015
-0.035
-0.04
-0.045
-0.045
-0.05
-0.05
-0.05
-0.05
-0.055
-0.06
-0.065
-0.07
-0.08
-0.09
-0.095
-0.1
-0.11
-0.115
-0.115
-0.105
-0.09
-0.065
-0.04
-0.025
-0.01
-0.01
-0.015
-0.015
-0.01
-0.01
-0.01
-0.01
-0.005
-0.01
-0.01
-0.01
-0.015
-0.015
-0.015
0.04
0.03
0.09
0.08
0.08
0.085
0.015
-0.035
-0.04
-0.045
-0.045
-0.05
-0.045
-0.045
-0.035
-0.085
-0.1
0.025
0.445
0.835
0.49
0.155
0.005
0.015
0.0
-0.02
-0.025
-0.035
-0.035
-0.04
-0.035
-0.04
-0.045
-0.05
-0.05
-0.055
-0.06
-0.07
-0.08
-0.09
-0.095
-0.105
-0.11
-0.11
-0.11
-0.095
-0.07
-0.045
-0.025
-0.01
-0.01
-0.015
-0.015
-0.015
-0.015
-0.01
-0.01
-0.01
-0.005
-0.01
-0.01
-0.01
-0.015
-0.02
-0.015
-0.015
0.04
0.025
0.085
0.07
0.07
0.07
0.015
-0.03
-0.04
-0.045
-0.04
-0.05
-0.04
-0.045
-0.035
-0.075
-0.105
0.045
0.45
0.805
0.47
0.145
0.015
0.02
0.0
-0.015
-0.02
-0.03
-0.025
-0.035
-0.03
-0.04
-0.03
-0.045
-0.04
-0.045
-0.05
-0.065
-0.065
-0.075
-0.085
-0.09
-0.095
-0.1
-0.095
-0.08
-0.05
-0.03
-0.01
-0.005
0.0
-0.005
-0.005
-0.005
-0.005
-0.005
0.0
-0.005
-0.005
0.0
-0.005
-0.01
-0.005
-0.01
-0.02
-0.02
0.02
0.035
0.06
0.065
0.07
0.065
0.035
-0.025
-0.04
-0.05
-0.04
-0.05
-0.035
-0.04
-0.035
-0.065
-0.08
-0.085
0.365
0.875
0.56
0.21
0.02
0.045
0.015
0.005
-0.005
-0.01
-0.01
-0.015
-0.01
-0.025
-0.02
-0.025
-0.03
-0.035
-0.045
-0.05
-0.06
-0.075
-0.08
-0.085
-0.09
-0.095
-0.095
-0.085
-0.055
-0.03
-0.02
0.0
-0.005
-0.015
-0.02
-0.025
-0.02
-0.015
-0.025
-0.02
-0.015
-0.02
-0.02
-0.02
-0.025
-0.03
-0.03
-0.04
0.005
0.025
0.06
0.065
0.08
0.08
0.035
-0.025
-0.035
-0.05
-0.045
-0.05
-0.05
-0.045
-0.03
-0.075
-0.105
-0.125
0.34
0.945
0.63
0.22
0.01
0.015
0.0
-0.01
-0.015
-0.035
-0.025
-0.04
-0.035
-0.045
-0.05
-0.045
-0.045
-0.05
-0.055
-0.07
-0.07
-0.08
-0.085
-0.085
-0.1
-0.1
-0.09
-0.08
-0.06
-0.035
-0.015
0.0
0.0
-0.005
-0.01
0.005
-0.015
-0.005
0.005
-0.005
0.0
0.0
-0.015
-0.01
-0.005
-0.025
-0.025
-0.01
0.035
0.04
0.1
0.085
0.11
0.11
0.035
-0.015
-0.035
-0.04
-0.035
-0.045
-0.03
-0.05
-0.03
-0.075
-0.13
0.07
0.525
0.85
0.49
0.12
0.0
0.025
0.0
-0.02
-0.035
-0.04
-0.04
-0.04
-0.045
-0.04
-0.045
-0.05
-0.045
-0.065
-0.07
-0.07
-0.07
-0.095
-0.075
-0.09
-0.095
-0.09
-0.095
-0.08
-0.045
-0.04
-0.015
-0.005
-0.01
-0.015
-0.025
-0.025
-0.01
-0.02
-0.02
-0.015
-0.02
-0.02
-0.02
-0.02
-0.015
-0.025
-0.01
0.04
0.04
0.1
0.12
0.115
0.095
0.01
-0.02
-0.04
-0.045
-0.045
-0.05
-0.045
-0.04
-0.07
-0.07
-0.165
0.235
0.795
0.7
0.315
0.03
0.0
0.0
-0.02
-0.03
-0.05
-0.045
-0.045
-0.05
-0.055
-0.055
-0.065
-0.06
-0.06
-0.075
-0.07
-0.095
-0.1
-0.095
-0.1
-0.115
-0.1
-0.12
-0.095
-0.08
-0.06
-0.03
-0.02
-0.02
-0.02
-0.02
-0.03
-0.03
-0.025
-0.025
-0.025
-0.02
-0.03
-0.025
-0.04
-0.02
-0.025
0.025
0.01
0.07
0.085
0.125
0.12
0.07
-0.02
-0.045
-0.045
-0.05
-0.065
-0.045
-0.05
-0.035
-0.08
-0.095
-0.075
0.345
0.905
0.565
0.175
-0.02
0.02
-0.01
-0.025
-0.02
-0.035
-0.045
-0.045
-0.045
-0.045
-0.05
-0.065
-0.045
-0.065
-0.065
-0.065
-0.08
-0.085
-0.09
-0.095
-0.11
-0.11
-0.09
-0.085
-0.06
-0.04
-0.005
-0.01
-0.005
-0.025
-0.015
-0.03
-0.02
-0.01
-0.02
-0.02
-0.005
-0.015
-0.02
-0.015
-0.01
0.04
0.03
0.115
0.105
0.12
0.125
0.055
-0.025
-0.035
-0.045
-0.035
-0.05
-0.06
-0.065
-0.045
-0.075
-0.1
0.105
0.5
0.795
0.425
0.09
-0.01
0.005
-0.005
-0.025
-0.03
-0.045
-0.035
-0.045
-0.045
-0.045
-0.045
-0.045
-0.05
-0.06
-0.055
-0.065
-0.065
-0.075
-0.09
-0.095
-0.1
-0.08
-0.085
-0.08
-0.04
-0.025
0.0
-0.005
-0.005
-0.025
-0.025
-0.02
-0.04
-0.02
-0.015
-0.015
-0.015
-0.02
-0.01
-0.025
0.02
0.03
0.085
0.08
0.105
0.105
0.045
-0.03
-0.05
-0.07
-0.07
-0.085
-0.08
-0.085
-0.075
-0.1
-0.105
-0.065
0.37
0.88
0.51
0.15
-0.025
0.0
-0.025
-0.04
-0.04
-0.055
-0.045
-0.065
-0.05
-0.05
-0.05
-0.06
-0.055
-0.06
-0.06
-0.065
-0.07
-0.085
-0.09
-0.095
-0.095
-0.11
-0.09
-0.085
-0.05
-0.025
-0.005
-0.01
-0.005
-0.015
-0.02
-0.025
-0.02
-0.02
-0.02
-0.03
-0.025
-0.005
-0.01
-0.005
-0.015
0.045
0.04
0.11
0.11
0.125
0.115
0.045
-0.03
-0.045
-0.055
-0.05
-0.07
-0.06
-0.07
-0.06
-0.075
-0.09
0.145
0.505
0.76
0.37
0.05
-0.01
-0.005
-0.025
-0.05
-0.05
-0.055
-0.055
-0.06
-0.055
-0.065
-0.06
-0.065
-0.065
-0.07
-0.075
-0.08
-0.08
-0.09
-0.1
-0.105
-0.105
-0.11
-0.095
-0.08
-0.055
-0.04
-0.02
-0.015
-0.03
-0.035
-0.045
-0.04
-0.04
-0.04
-0.035
-0.03
-0.03
-0.02
-0.025
-0.03
0.015
0.035
0.08
0.095
0.115
0.105
0.055
0.0
-0.045
-0.055
-0.06
-0.06
-0.07
-0.07
-0.07
-0.075
-0.065
-0.135
0.35
0.775
0.52
0.195
-0.01
0.005
-0.015
-0.035
-0.04
-0.045
-0.045
-0.045
-0.045
-0.045
-0.05
-0.05
-0.055
-0.055
-0.055
-0.065
-0.065
-0.07
-0.09
-0.09
-0.095
-0.1
-0.095
-0.085
-0.065
-0.04
-0.025
-0.01
-0.015
-0.015
-0.025
-0.025
-0.03
-0.025
-0.025
-0.015
-0.015
0.0
-0.01
0.0
-0.005
-0.01
-0.015
-0.01
0.03
0.045
0.08
0.075
0.09
0.085
0.03
-0.015
-0.04
-0.04
-0.05
-0.045
-0.055
-0.055
-0.055
-0.065
-0.055
-0.165
0.305
0.705
0.545
0.24
0.005
0.025
0.0
-0.005
-0.025
-0.025
-0.025
-0.03
-0.035
-0.03
-0.04
-0.035
-0.035
-0.035
-0.045
-0.05
-0.06
-0.065
-0.075
-0.085
-0.095
-0.1
-0.095
-0.09
-0.07
-0.045
-0.025
-0.01
-0.01
-0.015
-0.02
-0.025
-0.03
-0.025
-0.025
-0.025
-0.02
-0.015
-0.01
-0.01
-0.015
-0.015
-0.025
-0.02
-0.025
-0.03
-0.04
-0.04
-0.045
-0.045
-0.05
-0.04
-0.025
0.0
0.025
0.04
0.03
0.03
-0.005
-0.045
-0.05
-0.055
-0.055
-0.055
-0.05
-0.05
-0.05
-0.055
-0.05
-0.145
0.335
0.755
0.545
0.235
0.02
0.04
0.015
0.0
-0.01
-0.01
-0.015
-0.015
-0.02
-0.015
-0.02
-0.02
-0.025
-0.03
-0.035
-0.045
-0.05
-0.055
-0.07
-0.08
-0.085
-0.09
-0.09
-0.085
-0.07
-0.045
-0.025
-0.005
0.0
-0.005
-0.015
-0.015
-0.02
-0.015
-0.01
-0.01
-0.005
-0.005
0.0
0.0
0.0
0.0
0.0
-0.005
-0.01
-0.015
-0.015
-0.02
-0.025
-0.03
-0.03
-0.025
-0.03
-0.035
-0.04
-0.035
-0.035
-0.03
-0.045
-0.035
-0.04
0.0
0.0
0.025
0.045
0.025
0.0
-0.025
-0.03
-0.045
-0.055
-0.045
-0.05
-0.035
-0.045
-0.03
-0.055
-0.105
0.185
0.54
0.725
0.385
0.09
0.045
0.03
0.015
0.0
0.0
-0.01
0.0
-0.01
-0.005
-0.01
-0.01
-0.015
-0.015
-0.02
-0.025
-0.035
-0.04
-0.05
-0.055
-0.065
-0.07
-0.07
-0.075
-0.06
-0.04
-0.015
0.0
0.005
0.0
0.0
-0.005
-0.015
-0.015
-0.01
-0.005
-0.01
0.0
0.0
0.0
0.0
0.0
0.0
-0.01
-0.005
-0.01
-0.02
-0.02
-0.025
-0.025
-0.03
-0.035
-0.035
-0.035
-0.04
-0.03
-0.035
-0.04
-0.035
-0.035
-0.035
-0.04
-0.035
0.0
0.015
0.035
0.07
0.035
0.015
-0.025
-0.025
-0.045
-0.04
-0.045
-0.035
-0.035
-0.03
-0.055
-0.055
-0.045
0.405
0.84
0.525
0.2
0.03
0.05
0.035
0.02
0.015
0.01
0.005
0.0
0.0
0.005
0.0
0.0
0.0
0.0
-0.005
-0.015
-0.015
-0.03
-0.04
-0.045
-0.045
-0.05
-0.05
-0.045
-0.02
0.0
0.015
0.03
0.03
0.02
0.015
0.015
0.01
0.005
0.015
0.015
0.02
0.015
0.02
0.02
0.015
0.01
0.005
0.005
0.005
0.0
-0.005
-0.005
-0.01
-0.01
-0.015
-0.02
-0.025
-0.02
-0.025
-0.02
-0.025
-0.03
-0.03
-0.025
-0.03
-0.025
-0.035
-0.03
-0.035
-0.03
-0.015
0.005
0.045
0.07
0.045
0.045
0.0
-0.02
-0.025
-0.025
-0.035
-0.025
-0.03
-0.025
-0.06
-0.065
-0.105
0.365
0.945
0.635
0.235
0.02
0.045
0.025
0.005
0.0
-0.01
-0.01
-0.02
-0.02
-0.03
-0.02
-0.035
-0.045
-0.04
-0.04
-0.05
-0.05
-0.06
-0.07
-0.08
-0.08
-0.075
-0.085
-0.08
-0.055
-0.04
-0.005
-0.005
0.0
0.0
-0.015
-0.025
-0.02
-0.02
-0.015
-0.01
-0.015
-0.01
-0.02
-0.015
-0.025
-0.03
-0.02
-0.025
-0.045
-0.035
-0.03
-0.035
-0.04
-0.045
-0.045
-0.05
-0.05
-0.05
-0.045
-0.055
-0.045
-0.06
-0.05
-0.05
-0.045
-0.005
0.02
0.035
0.05
0.03
0.0
-0.035
-0.04
-0.065
-0.05
-0.07
-0.05
-0.065
-0.06
-0.09
-0.15
0.15
0.62
0.82
0.44
0.075
0.0
0.01
-0.005
-0.015
-0.015
-0.025
-0.03
-0.035
-0.03
-0.035
-0.04
-0.04
-0.045
-0.045
-0.04
-0.06
-0.06
-0.065
-0.07
-0.075
-0.07
-0.075
-0.075
-0.055
-0.03
-0.015
0.0
0.005
0.0
-0.005
-0.01
0.0
-0.01
0.0
-0.005
-0.01
-0.01
-0.01
-0.015
-0.02
-0.015
-0.02
-0.02
-0.025
-0.03
-0.035
-0.035
-0.045
-0.045
-0.05
-0.05
-0.055
-0.05
-0.05
-0.05
-0.05
-0.06
-0.06
-0.05
-0.025
-0.005
0.035
0.05
0.02
0.03
-0.015
-0.04
-0.06
-0.06
-0.06
-0.055
-0.055
-0.05
-0.08
-0.065
-0.08
0.42
0.88
0.545
0.185
-0.015
0.03
0.01
-0.015
-0.015
-0.025
-0.02
-0.03
-0.025
-0.03
-0.03
-0.035
-0.03
-0.035
-0.04
-0.04
-0.05
-0.055
-0.055
-0.06
-0.06
-0.06
-0.055
-0.05
-0.03
-0.005
0.015
0.015
0.01
0.0
-0.01
-0.02
-0.025
-0.02
-0.02
-0.02
-0.015
-0.01
-0.01
-0.015
-0.015
-0.015
-0.01
-0.015
-0.02
-0.02
-0.035
-0.03
-0.035
-0.035
-0.035
-0.04
-0.045
-0.045
-0.045
-0.045
-0.045
-0.045
-0.045
-0.05
-0.05
-0.045
-0.045
-0.02
-0.005
0.035
0.055
0.03
0.03
-0.005
-0.03
-0.055
-0.05
-0.05
-0.05
-0.05
-0.04
-0.065
-0.065
-0.105
0.41
0.855
0.565
0.225
0.015
0.045
0.02
0.0
0.0
-0.005
-0.01
-0.01
-0.01
-0.01
-0.01
-0.02
-0.015
-0.02
-0.015
-0.025
-0.03
-0.045
-0.045
-0.045
-0.05
-0.055
-0.05
-0.045
-0.025
0.0
0.015
0.02
0.02
0.015
0.0
-0.005
-0.01
-0.01
-0.01
-0.005
0.0
0.0
0.0
0.0
0.0
-0.005
0.0
-0.005
-0.015
-0.015
-0.02
-0.02
-0.025
-0.025
-0.03
-0.035
-0.035
-0.04
-0.04
-0.035
-0.04
-0.045
-0.045
-0.04
-0.045
-0.045
-0.04
-0.05
-0.045
-0.05
-0.045
-0.01
0.0
0.035
0.07
0.03
0.02
-0.03
-0.035
-0.045
-0.045
-0.055
-0.045
-0.045
-0.04
-0.085
-0.09
0.005
0.47
0.86
0.5
0.145
0.01
0.035
0.015
0.0
-0.005
-0.01
-0.01
-0.015
-0.015
-0.02
-0.02
-0.02
-0.02
-0.025
-0.03
-0.04
-0.045
-0.05
-0.05
-0.055
-0.06
-0.055
-0.055
-0.04
-0.025
0.0
0.02
0.025
0.015
0.005
0.0
-0.015
-0.005
-0.01
-0.005
-0.005
-0.005
0.0
-0.005
-0.005
-0.005
-0.005
-0.015
-0.015
-0.02
-0.025
-0.02
-0.03
-0.03
-0.035
-0.035
-0.04
-0.045
-0.04
-0.05
-0.045
-0.04
-0.04
-0.045
-0.05
-0.05
-0.045
-0.05
-0.035
-0.02
0.03
0.04
0.04
0.04
0.0
-0.045
-0.05
-0.06
-0.05
-0.055
-0.055
-0.055
-0.06
-0.085
-0.17
0.25
0.71
0.69
0.345
0.045
0.02
0.015
0.0
-0.015
-0.015
-0.02
-0.015
-0.025
-0.035
-0.03
-0.03
-0.03
-0.035
-0.04
-0.04
-0.05
-0.055
-0.065
-0.065
-0.07
-0.07
-0.07
-0.06
-0.045
-0.015
0.0
0.01
0.015
0.005
0.0
-0.015
-0.015
-0.025
-0.015
-0.02
-0.02
-0.015
-0.015
-0.01
-0.01
-0.02
-0.02
-0.02
-0.025
-0.03
-0.03
-0.035
-0.035
-0.04
-0.035
-0.045
-0.045
-0.05
-0.05
-0.05
-0.05
-0.05
-0.05
-0.05
-0.05
-0.045
-0.035
-0.02
0.03
0.04
0.04
0.04
0.0
-0.04
-0.04
-0.05
-0.045
-0.055
-0.04
-0.045
-0.045
-0.075
-0.145
0.18
0.615
0.745
0.41
0.095
0.035
0.035
0.02
0.0
0.0
-0.005
-0.005
-0.01
-0.015
-0.01
-0.005
-0.015
-0.015
-0.015
-0.02
-0.025
-0.035
-0.04
-0.045
-0.05
-0.05
-0.055
-0.035
-0.035
0.0
0.025
0.035
0.035
0.025
0.015
0.005
0.005
0.0
0.0
0.005
0.01
0.005
0.01
0.01
0.01
0.0
0.0
0.0
0.0
-0.005
-0.005
-0.01
-0.01
-0.02
-0.02
-0.03
-0.025
-0.025
-0.03
-0.03
-0.03
-0.035
-0.04
-0.035
-0.03
-0.03
-0.01
0.005
0.05
0.055
0.035
0.05
0.0
-0.02
-0.035
-0.04
-0.03
-0.045
-0.04
-0.035
-0.045
-0.065
-0.17
0.27
0.78
0.695
0.34
0.055
0.035
0.025
0.005
0.0
0.0
-0.01
-0.02
-0.015
-0.015
-0.03
-0.025
-0.025
-0.025
-0.03
-0.035
-0.04
-0.05
-0.05
-0.055
-0.06
-0.055
-0.055
-0.04
-0.035
-0.01
0.015
0.02
0.03
0.01
0.005
-0.005
-0.01
-0.005
-0.01
0.0
-0.01
-0.005
0.0
-0.01
-0.015
-0.01
-0.01
-0.02
-0.015
-0.02
-0.03
-0.02
-0.03
-0.04
-0.025
-0.04
-0.03
-0.045
-0.035
-0.04
-0.04
-0.045
-0.035
0.01
0.015
0.045
0.07
0.025
0.025
-0.03
-0.045
-0.035
-0.045
-0.055
-0.045
-0.055
-0.05
-0.08
-0.09
-0.175
0.28
0.91
0.715
0.305
0.015
0.02
0.015
-0.005
-0.01
-0.02
-0.025
-0.03
-0.03
-0.045
-0.035
-0.045
-0.035
-0.05
-0.055
-0.055
-0.055
-0.065
-0.08
-0.08
-0.065
-0.08
-0.09
-0.075
-0.05
-0.03
-0.015
0.0
0.005
0.0
-0.015
-0.025
-0.02
-0.03
-0.02
-0.01
-0.03
-0.02
-0.015
-0.03
-0.04
-0.03
-0.035
-0.03
-0.035
-0.045
-0.05
-0.045
-0.04
-0.055
-0.05
-0.05
-0.045
-0.055
-0.045
-0.04
0.0
0.0
0.07
0.055
0.035
0.04
0.0
-0.04
-0.055
-0.06
-0.055
-0.06
-0.055
-0.06
-0.055
-0.08
-0.14
0.14
0.585
0.82
0.455
0.085
0.0
0.015
-0.01
-0.025
-0.015
-0.025
-0.03
-0.04
-0.04
-0.045
-0.04
-0.055
-0.055
-0.045
-0.055
-0.06
-0.06
-0.07
-0.08
-0.075
-0.08
-0.075
-0.07
-0.045
-0.025
0.0
0.02
0.0
0.0
-0.01
-0.02
-0.02
-0.03
-0.025
-0.025
-0.02
-0.02
-0.025
-0.03
-0.02
-0.03
-0.03
-0.03
-0.03
-0.035
-0.04
-0.04
-0.045
-0.05
-0.045
-0.05
-0.05
-0.05
-0.045
0.01
0.0
0.055
0.045
0.04
0.035
0.0
-0.045
-0.07
-0.07
-0.065
-0.075
-0.065
-0.07
-0.06
-0.095
-0.1
-0.01
0.46
0.865
0.475
0.105
-0.02
0.005
-0.015
-0.03
-0.035
-0.045
-0.045
-0.04
-0.045
-0.055
-0.05
-0.055
-0.05
-0.05
-0.05
-0.065
-0.06
-0.075
-0.075
-0.08
-0.07
-0.075
-0.065
-0.055
-0.035
-0.01
0.0
0.01
-0.01
-0.015
-0.025
-0.04
-0.035
-0.05
-0.035
-0.03
-0.04
-0.03
-0.025
-0.03
-0.03
-0.025
-0.025
-0.04
-0.045
-0.04
-0.045
-0.045
-0.055
-0.055
-0.05
-0.05
-0.01
0.005
-0.005
0.05
0.06
0.035
0.01
-0.015
-0.055
-0.055
-0.06
-0.055
-0.06
-0.06
-0.07
-0.05
-0.08
-0.13
0.15
0.6
0.805
0.41
0.07
0.0
0.01
0.0
-0.02
-0.025
-0.04
-0.025
-0.04
-0.035
-0.035
-0.035
-0.045
-0.04
-0.04
-0.045
-0.045
-0.06
-0.07
-0.07
-0.075
-0.075
-0.08
-0.07
-0.05
-0.04
-0.01
0.0
0.005
0.005
-0.01
-0.015
-0.02
-0.025
-0.025
-0.02
-0.02
-0.015
0.0
-0.01
-0.005
-0.015
-0.015
-0.01
-0.005
-0.005
-0.025
0.0
-0.02
-0.025
-0.025
-0.005
0.02
0.03
0.075
0.07
0.07
0.075
0.035
-0.01
-0.035
-0.015
-0.015
-0.03
-0.04
-0.025
-0.025
-0.035
-0.04
-0.12
0.395
0.835
0.62
0.29
0.04
0.08
0.045
0.03
0.02
0.02
0.025
0.0
0.01
0.03
0.025
0.02
-0.005
-0.005
0.0
0.025
0.015
-0.01
-0.015
-0.025
-0.02
-0.005
0.0
0.0
0.005
0.035
0.06
0.055
0.04
-0.005
-0.015
0.0
-0.045
-0.035
-0.01
0.005
-0.005
-0.075
-0.05
-0.04
-0.025
-0.02
0.01
-0.015
-0.015
-0.045
-0.04
-0.055
-0.055
-0.03
0.015
0.04
0.045
0.055
0.06
0.05
0.02
0.0
-0.06
-0.06
-0.055
-0.06
-0.075
-0.06
-0.05
-0.065
-0.09
-0.215
0.195
0.78
0.72
0.325
0.055
0.005
-0.005
-0.01
-0.015
-0.015
-0.005
-0.05
-0.045
-0.05
-0.05
-0.045
-0.05
-0.075
-0.045
-0.04
-0.065
-0.075
-0.055
-0.075
-0.095
-0.08
-0.085
-0.06
-0.065
-0.01
-0.005
0.005
-0.015
-0.02
-0.005
-0.015
-0.02
-0.03
-0.05
-0.015
-0.03
-0.03
-0.01
-0.025
-0.01
-0.03
-0.035
-0.045
-0.035
-0.06
-0.04
-0.03
-0.02
0.015
0.005
0.095
0.1
0.095
0.055
0.0
-0.04
-0.055
-0.07
-0.065
-0.095
-0.075
-0.07
-0.08
-0.115
-0.125
-0.12
0.32
0.945
0.655
0.2
-0.02
0.0
-0.015
-0.03
-0.045
-0.045
-0.045
-0.05
-0.06
-0.045
-0.065
-0.08
-0.065
-0.055
-0.055
-0.095
-0.06
-0.095
-0.095
-0.09
-0.12
-0.1
-0.07
-0.09
-0.085
-0.065
-0.015
-0.025
-0.02
-0.04
-0.02
-0.03
-0.045
-0.05
-0.03
-0.045
-0.035
-0.035
-0.06
-0.03
-0.07
-0.045
-0.045
-0.05
-0.05
-0.085
-0.06
-0.03
-0.01
0.005
0.075
0.09
0.095
0.08
-0.02
-0.065
-0.08
-0.085
-0.065
-0.1
-0.075
-0.1
-0.085
-0.115
-0.115
-0.095
0.335
0.925
0.63
0.155
-0.035
-0.02
-0.045
-0.04
-0.065
-0.065
-0.075
-0.075
-0.055
-0.075
-0.085
-0.07
-0.065
-0.075
-0.085
-0.075
-0.08
-0.09
-0.08
-0.09
-0.105
-0.085
-0.06
-0.07
-0.04
-0.02
-0.005
0.0
-0.01
-0.015
-0.03
-0.04
-0.025
-0.035
-0.03
-0.025
-0.025
-0.035
-0.03
-0.045
-0.035
-0.03
-0.045
-0.03
-0.04
-0.04
-0.05
-0.04
0.01
0.0
0.09
0.1
0.115
0.085
0.015
-0.04
-0.04
-0.06
-0.07
-0.07
-0.065
-0.065
-0.065
-0.07
-0.07
-0.105
0.38
0.9
0.625
0.245
-0.015
0.02
-0.01
-0.015
-0.02
-0.04
-0.025
-0.055
-0.045
-0.04
-0.035
-0.045
-0.04
-0.05
-0.045
-0.055
-0.05
-0.065
-0.06
-0.06
-0.065
-0.06
-0.06
-0.045
-0.01
0.0
0.01
0.02
0.0
-0.03
-0.02
-0.02
-0.025
-0.03
-0.025
-0.03
-0.03
-0.02
-0.02
-0.025
-0.02
-0.025
-0.005
-0.015
-0.02
-0.025
-0.03
-0.04
-0.045
-0.05
-0.015
0.01
0.025
0.08
0.075
0.07
0.07
0.035
-0.03
-0.06
-0.055
-0.065
-0.055
-0.08
-0.07
-0.07
-0.065
-0.075
-0.105
0.325
0.715
0.715
0.335
0.025
0.0
0.01
-0.01
-0.03
-0.025
-0.03
-0.04
-0.04
-0.025
-0.04
-0.04
-0.035
-0.04
-0.035
-0.05
-0.05
-0.055
-0.055
-0.06
-0.065
-0.055
-0.065
-0.04
-0.03
0.0
0.015
0.02
0.005
0.0
-0.005
-0.025
-0.025
-0.02
-0.03
-0.02
-0.025
-0.02
-0.01
-0.015
-0.01
-0.015
-0.005
-0.015
-0.02
-0.03
-0.025
-0.025
-0.04
-0.04
-0.045
-0.045
-0.05
-0.05
-0.055
-0.05
-0.055
-0.005
0.0
0.065
0.06
0.025
0.025
0.0
-0.045
-0.055
-0.06
-0.06
-0.065
-0.065
-0.07
-0.06
-0.08
-0.06
-0.02
0.49
0.915
0.495
0.165
-0.02
0.035
0.01
-0.015
-0.01
-0.025
-0.02
-0.02
-0.025
-0.035
-0.025
-0.025
-0.025
-0.035
-0.03
-0.045
-0.035
-0.045
-0.05
-0.05
-0.045
-0.055
-0.04
-0.035
-0.005
0.015
0.03
0.02
0.02
0.0
-0.01
-0.02
-0.02
-0.015
-0.02
-0.025
-0.005
-0.005
-0.01
-0.005
-0.005
0.0
-0.02
0.0
-0.01
-0.015
-0.03
-0.025
-0.025
-0.04
-0.035
-0.04
-0.045
-0.045
-0.045
-0.045
-0.05
-0.05
-0.055
-0.055
-0.055
-0.055
-0.055
-0.055
-0.06
0.0
0.025
0.04
0.065
0.05
0.005
-0.02
-0.05
-0.055
-0.07
-0.055
-0.075
-0.065
-0.07
-0.065
-0.075
-0.07
0.285
0.665
0.76
0.35
0.035
0.01
0.025
0.0
-0.005
-0.01
-0.025
-0.01
-0.02
-0.02
-0.025
-0.015
-0.025
-0.025
-0.025
-0.02
-0.035
-0.025
-0.035
-0.04
-0.045
-0.035
-0.035
-0.025
-0.01
0.015
0.04
0.045
0.045
0.02
0.01
0.0
-0.01
-0.015
-0.005
-0.01
-0.005
0.0
0.0
0.0
0.0
0.0
0.0
0.0
0.0
0.0
-0.01
-0.01
-0.015
-0.02
-0.02
-0.02
-0.035
-0.03
-0.04
-0.035
-0.04
-0.035
-0.045
-0.045
-0.045
-0.045
-0.045
-0.045
-0.055
-0.045
-0.05
-0.055
-0.055
-0.05
-0.065
-0.05
-0.055
-0.06
-0.06
-0.015
0.005
0.045
0.065
0.055
0.02
-0.02
-0.04
-0.06
-0.065
-0.06
-0.065
-0.065
-0.07
-0.065
-0.085
-0.075
0.185
0.62
0.835
0.395
0.07
0.0
0.035
0.0
-0.005
-0.015
-0.03
-0.005
-0.025
-0.01
-0.025
-0.025
-0.02
-0.02
-0.03
-0.025
-0.03
-0.025
-0.04
-0.025
-0.04
-0.025
-0.025
-0.015
0.0
0.02
0.05
0.06
0.055
0.035
0.015
0.005
-0.01
-0.015
-0.01
-0.01
-0.005
-0.005
0.0
0.0
0.0
0.0
0.0
0.0
0.0
-0.01
-0.01
-0.015
-0.01
-0.02
-0.025
-0.03
-0.03
-0.035
-0.035
-0.04
-0.035
-0.045
-0.045
-0.05
-0.05
-0.05
-0.045
-0.05
-0.055
-0.055
-0.06
-0.06
-0.06
-0.06
-0.065
-0.06
-0.055
-0.065
-0.055
-0.005
-0.015
0.055
0.035
-0.035
-0.03
-0.05
-0.07
-0.065
-0.065
-0.065
-0.06
-0.065
-0.07
-0.09
-0.115
0.455
0.865
0.6
0.25
0.0
0.03
0.02
0.0
-0.005
-0.01
-0.02
-0.005
-0.015
-0.02
-0.015
-0.02
-0.015
-0.02
-0.02
-0.02
-0.02
-0.035
-0.025
-0.03
-0.025
-0.025
-0.015
0.0
0.02
0.05
0.07
0.07
0.055
0.03
0.005
-0.005
-0.01
-0.015
-0.015
0.0
-0.01
-0.01
-0.005
-0.005
0.0
0.005
0.0
-0.005
-0.005
-0.015
-0.015
-0.01
-0.02
-0.025
-0.03
-0.03
-0.03
-0.04
-0.03
-0.04
-0.04
-0.04
-0.045
-0.05
-0.05
-0.045
-0.05
-0.05
-0.055
-0.05
-0.06
-0.055
-0.06
-0.055
-0.055
-0.06
-0.065
-0.055
-0.025
-0.01
0.03
0.035
-0.015
-0.02
-0.045
-0.065
-0.065
-0.065
-0.07
-0.055
-0.065
-0.065
-0.1
-0.105
0.3
0.715
0.74
0.36
0.035
0.01
0.02
0.01
-0.01
-0.015
-0.02
-0.025
-0.02
-0.02
-0.025
-0.02
-0.02
-0.025
-0.02
-0.02
-0.03
-0.03
-0.03
-0.03
-0.025
-0.02
-0.01
-0.005
0.02
0.05
0.075
0.08
0.065
0.05
0.02
0.0
-0.01
-0.015
-0.01
-0.01
-0.015
-0.01
-0.005
0.0
0.0
0.0
-0.01
-0.005
-0.01
-0.01
-0.015
-0.02
-0.02
-0.025
-0.035
-0.03
-0.03
-0.04
-0.04
-0.04
-0.045
-0.045
-0.04
-0.045
-0.045
-0.055
-0.055
-0.055
-0.06
-0.055
-0.055
-0.06
-0.065
-0.06
-0.07
-0.065
-0.07
-0.06
-0.07
-0.07
-0.04
-0.005
0.02
0.035
-0.02
-0.03
-0.04
-0.075
-0.075
-0.07
-0.075
-0.065
-0.075
-0.075
-0.1
-0.14
0.39
0.795
0.67
0.305
0.005
0.01
0.015
0.0
-0.015
-0.02
-0.02
-0.02
-0.025
-0.025
-0.025
-0.03
-0.02
-0.025
-0.02
-0.03
-0.025
-0.025
-0.03
-0.03
-0.025
-0.01
-0.01
0.0
0.035
0.065
0.08
0.095
0.075
0.045
0.015
0.0
-0.005
-0.01
-0.01
-0.01
-0.005
0.0
-0.005
0.0
0.0
0.0
-0.005
-0.005
-0.005
-0.015
-0.01
-0.02
-0.02
-0.02
-0.025
-0.03
-0.035
-0.035
-0.035
-0.04
-0.045
-0.04
-0.035
-0.04
-0.05
-0.05
-0.045
-0.05
-0.05
-0.055
-0.05
-0.055
-0.05
-0.05
-0.06
-0.06
-0.06
-0.06
-0.06
-0.065
-0.06
-0.065
-0.05
0.0
-0.005
0.05
0.02
-0.03
-0.045
-0.055
-0.07
-0.06
-0.075
-0.065
-0.065
-0.06
-0.105
-0.11
0.215
0.655
0.815
0.415
0.065
-0.01
0.02
0.0
-0.01
-0.015
-0.02
-0.015
-0.025
-0.02
-0.02
-0.025
-0.02
-0.02
-0.02
-0.02
-0.025
-0.02
-0.025
-0.02
-0.025
-0.01
0.0
0.005
0.03
0.055
0.09
0.1
0.09
0.065
0.03
0.01
0.0
-0.01
-0.005
-0.01
-0.005
0.0
-0.005
0.0
0.0
0.0
0.0
-0.005
-0.01
-0.005
-0.01
-0.015
-0.015
-0.025
-0.025
-0.025
-0.03
-0.025
-0.035
-0.035
-0.035
-0.035
-0.04
-0.04
-0.04
-0.045
-0.045
-0.045
-0.05
-0.05
-0.055
-0.05
-0.055
-0.06
-0.055
-0.055
-0.055
-0.06
-0.065
-0.06
-0.06
-0.06
-0.01
-0.02
0.055
0.035
-0.025
-0.03
-0.04
-0.07
-0.065
-0.07
-0.06
-0.065
-0.055
-0.09
-0.105
-0.04
0.535
0.945
0.545
0.175
-0.025
0.025
0.01
-0.005
-0.015
-0.025
-0.02
-0.025
-0.02
-0.02
-0.015
-0.03
-0.02
-0.02
-0.02
-0.02
-0.025
-0.025
-0.02
-0.025
-0.02
-0.005
0.005
0.025
0.05
0.085
0.105
0.1
0.08
0.045
0.025
0.0
0.0
-0.005
-0.005
-0.005
0.0
0.0
0.0
0.0
0.0
0.0
0.0
0.0
-0.01
-0.005
-0.01
-0.015
-0.015
-0.02
-0.015
-0.025
-0.03
-0.025
-0.035
-0.03
-0.035
-0.035
-0.04
-0.04
-0.045
-0.04
-0.045
-0.05
-0.055
-0.05
-0.05
-0.055
-0.06
-0.055
-0.055
-0.055
-0.06
-0.06
-0.06
-0.065
-0.03
-0.005
0.04
0.04
-0.015
-0.02
-0.035
-0.065
-0.07
-0.065
-0.06
-0.06
-0.06
-0.095
-0.105
-0.07
0.52
0.95
0.575
0.19
-0.02
0.025
0.005
-0.005
-0.005
-0.015
-0.02
-0.025
-0.02
-0.03
-0.025
-0.025
-0.025
-0.03
-0.02
-0.025
-0.03
-0.035
-0.03
-0.025
-0.015
-0.015
0.0
0.02
0.05
0.085
0.095
0.095
0.075
0.04
0.01
0.0
-0.015
-0.015
-0.02
-0.015
-0.01
-0.015
-0.01
-0.01
-0.01
-0.015
-0.015
-0.01
-0.015
-0.02
-0.015
-0.025
-0.025
-0.025
-0.03
-0.035
-0.035
-0.04
-0.04
-0.04
-0.045
-0.05
-0.05
-0.045
-0.055
-0.05
-0.05
-0.05
-0.05
-0.06
-0.06
-0.06
-0.06
-0.055
-0.065
-0.06
-0.065
-0.05
0.005
0.01
0.045
0.01
-0.02
-0.035
-0.06
-0.06
-0.055
-0.07
-0.06
-0.055
-0.065
-0.1
-0.13
0.4
0.845
0.7
0.32
0.02
0.02
0.025
0.0
-0.005
-0.01
-0.01
-0.01
-0.01
-0.015
-0.015
-0.02
-0.015
-0.015
-0.015
-0.02
-0.02
-0.025
-0.02
-0.025
-0.01
-0.01
0.0
0.01
0.035
0.07
0.095
0.095
0.075
0.055
0.025
0.005
-0.01
-0.005
-0.01
-0.01
-0.01
-0.01
-0.005
-0.005
-0.01
0.0
-0.005
-0.005
-0.015
-0.02
-0.015
-0.02
-0.015
-0.025
-0.03
-0.025
-0.03
-0.03
-0.04
-0.035
-0.045
-0.04
-0.04
-0.045
-0.04
-0.045
-0.04
-0.05
-0.055
-0.05
-0.05
-0.055
-0.055
-0.045
-0.06
-0.065
-0.055
-0.015
-0.02
0.055
0.03
-0.015
-0.03
-0.04
-0.055
-0.055
-0.06
-0.055
-0.055
-0.05
-0.095
-0.125
-0.07
0.49
0.94
0.57
0.18
-0.015
0.03
0.01
0.0
-0.01
-0.02
-0.015
-0.025
-0.025
-0.03
-0.02
-0.03
-0.025
-0.025
-0.03
-0.04
-0.035
-0.045
-0.04
-0.05
-0.035
-0.04
-0.03
-0.01
0.005
0.04
0.06
0.065
0.04
0.025
0.0
-0.005
-0.01
-0.015
-0.015
-0.015
-0.015
-0.01
-0.01
-0.015
-0.015
-0.02
-0.015
-0.02
-0.03
-0.025
-0.03
-0.035
-0.03
-0.035
-0.04
-0.04
-0.045
-0.045
-0.045
-0.045
-0.05
-0.055
-0.05
-0.055
-0.05
-0.05
-0.05
-0.06
-0.025
0.005
0.0
0.065
0.03
-0.01
-0.045
-0.045
-0.06
-0.05
-0.06
-0.055
-0.055
-0.05
-0.095
-0.13
-0.015
0.505
0.89
0.53
0.15
-0.01
0.03
0.005
0.0
-0.02
-0.03
-0.02
-0.02
-0.025
-0.03
-0.02
-0.03
-0.03
-0.035
-0.035
-0.04
-0.04
-0.045
-0.05
-0.055
-0.045
-0.04
-0.03
-0.01
0.005
0.04
0.055
0.055
0.035
0.01
-0.005
-0.015
-0.02
-0.02
-0.015
-0.02
-0.015
-0.015
-0.02
-0.015
-0.025
-0.02
-0.02
-0.02
-0.015
-0.035
-0.03
-0.045
-0.04
-0.03
-0.04
-0.04
-0.04
-0.05
-0.045
-0.05
-0.05
-0.05
-0.06
-0.03
0.01
-0.005
0.065
0.04
-0.015
-0.04
-0.045
-0.055
-0.055
-0.055
-0.055
-0.045
-0.045
-0.08
-0.095
-0.14
0.41
0.925
0.585
0.225
0.0
0.03
0.015
0.0
-0.01
-0.01
-0.005
-0.015
-0.01
-0.02
-0.02
-0.015
-0.02
-0.025
-0.025
-0.025
-0.035
-0.035
-0.035
-0.045
-0.035
-0.035
-0.03
-0.01
0.005
0.04
0.055
0.055
0.04
0.02
0.005
-0.015
-0.005
-0.02
-0.01
-0.02
-0.01
-0.02
-0.005
-0.005
-0.02
-0.01
-0.01
-0.02
-0.015
-0.025
-0.02
-0.03
-0.025
-0.035
-0.03
-0.035
-0.035
-0.04
-0.035
-0.045
-0.015
0.015
0.005
0.07
0.055
-0.005
-0.02
-0.03
-0.05
-0.04
-0.05
-0.05
-0.035
-0.04
-0.06
-0.07
-0.18
0.29
0.845
0.705
0.335
0.045
0.015
0.015
0.005
-0.01
-0.02
-0.025
-0.02
-0.025
-0.025
-0.04
-0.03
-0.04
-0.035
-0.05
-0.05
-0.04
-0.055
-0.055
-0.065
-0.06
-0.06
-0.045
-0.04
-0.02
0.01
0.04
0.03
0.015
0.0
-0.015
-0.02
-0.015
-0.035
-0.03
-0.03
-0.025
-0.03
-0.025
-0.025
-0.02
-0.02
-0.03
-0.025
-0.035
-0.035
-0.035
-0.03
-0.04
-0.055
-0.035
-0.05
-0.045
-0.05
0.0
0.015
0.03
0.075
0.04
0.0
-0.03
-0.045
-0.05
-0.075
-0.055
-0.06
-0.07
-0.07
-0.055
-0.085
-0.17
0.165
0.64
0.82
0.435
0.075
-0.015
0.015
-0.015
-0.03
-0.015
-0.035
-0.03
-0.05
-0.05
-0.055
-0.05
-0.05
-0.055
-0.07
-0.065
-0.075
-0.065
-0.08
-0.08
-0.085
-0.075
-0.08
-0.065
-0.055
-0.025
0.0
0.01
0.0
-0.005
-0.025
-0.035
-0.04
-0.04
-0.04
-0.04
-0.035
-0.04
-0.035
-0.04
-0.04
-0.035
-0.045
-0.035
-0.045
-0.045
-0.055
-0.04
-0.055
-0.055
-0.065
-0.055
-0.005
0.005
0.05
0.055
0.055
0.05
0.005
-0.045
-0.07
-0.065
-0.075
-0.075
-0.085
-0.075
-0.085
-0.075
-0.09
-0.105
0.105
0.5
0.785
0.4
0.075
-0.025
0.0
-0.01
-0.04
-0.04
-0.045
-0.035
-0.05
-0.045
-0.05
-0.045
-0.055
-0.045
-0.045
-0.04
-0.05
-0.045
-0.06
-0.055
-0.055
-0.05
-0.045
-0.03
-0.015
0.015
0.035
0.035
0.03
0.01
-0.005
-0.02
-0.03
-0.035
-0.035
-0.03
-0.035
-0.035
-0.03
-0.03
-0.02
-0.025
-0.03
-0.025
-0.025
-0.03
-0.03
-0.035
-0.035
-0.04
-0.045
-0.05
-0.01
0.005
0.02
0.055
0.065
0.04
0.02
-0.03
-0.045
-0.06
-0.055
-0.065
-0.06
-0.065
-0.055
-0.065
-0.07
-0.065
-0.15
0.34
0.715
0.605
0.275
0.02
0.03
0.005
-0.005
-0.01
-0.02
-0.02
-0.02
-0.025
-0.025
-0.03
-0.025
-0.02
-0.03
-0.025
-0.025
-0.035
-0.035
-0.045
-0.045
-0.045
-0.04
-0.035
-0.02
-0.005
0.02
0.04
0.04
0.03
0.01
0.0
-0.01
-0.02
-0.015
-0.02
-0.02
-0.015
-0.015
-0.015
-0.01
-0.005
-0.01
-0.005
-0.015
-0.01
-0.01
-0.015
-0.02
-0.03
-0.03
-0.035
-0.035
-0.04
-0.04
-0.04
-0.05
-0.05
-0.045
-0.05
-0.055
-0.055
-0.05
-0.055
-0.02
0.02
0.01
0.04
0.03
-0.005
-0.04
-0.06
-0.055
-0.065
-0.055
-0.065
-0.05
-0.06
-0.045
-0.07
-0.075
-0.1
0.41
0.82
0.495
0.185
0.0
0.035
0.015
0.0
-0.005
-0.01
-0.02
-0.02
-0.015
-0.02
-0.025
-0.025
-0.025
-0.03
-0.03
-0.04
-0.035
-0.04
-0.05
-0.045
-0.045
-0.05
-0.035
-0.03
0.0
0.02
0.04
0.04
0.025
0.005
0.0
-0.01
-0.01
-0.015
-0.015
-0.015
-0.005
-0.005
0.0
0.0
0.0
0.0
0.0
0.0
0.0
-0.005
-0.01
-0.01
-0.015
-0.02
-0.02
-0.025
-0.035
-0.03
-0.03
-0.035
-0.04
-0.04
-0.04
-0.04
-0.045
-0.045
-0.04
-0.045
-0.055
-0.045
-0.05
-0.045
-0.05
-0.05
-0.02
0.01
0.02
0.04
0.01
-0.015
-0.045
-0.05
-0.06
-0.05
-0.055
-0.045
-0.06
-0.05
-0.05
-0.05
-0.065
-0.14
0.275
0.655
0.655
0.32
0.055
0.04
0.025
0.015
0.0
0.0
-0.005
-0.005
-0.01
-0.01
-0.015
-0.015
-0.02
-0.015
-0.025
-0.02
-0.03
-0.025
-0.04
-0.04
-0.04
-0.045
-0.04
-0.03
-0.01
0.01
0.03
0.045
0.04
0.025
0.01
0.0
-0.005
-0.01
-0.01
-0.015
-0.01
-0.01
0.0
-0.01
0.0
0.0
-0.005
-0.005
0.0
-0.01
-0.015
-0.01
-0.02
-0.02
-0.025
-0.025
-0.035
-0.035
-0.04
-0.035
-0.045
-0.04
-0.045
-0.045
-0.045
-0.05
-0.05
-0.055
-0.045
-0.055
-0.05
-0.055
-0.04
-0.005
-0.015
0.045
0.025
-0.015
-0.03
-0.035
-0.055
-0.055
-0.055
-0.05
-0.055
-0.05
-0.05
-0.04
-0.07
-0.09
0.015
0.47
0.82
0.46
0.14
0.01
0.04
0.02
0.0
0.0
-0.01
-0.01
-0.01
-0.005
-0.015
-0.01
-0.02
-0.01
-0.02
-0.025
-0.025
-0.03
-0.035
-0.04
-0.04
-0.045
-0.04
-0.035
-0.02
0.0
0.025
0.045
0.045
0.035
0.01
0.005
0.0
-0.005
-0.01
-0.01
-0.005
-0.005
0.0
0.0
0.0
0.0
0.0
0.0
0.0
0.0
0.0
-0.01
-0.005
-0.01
-0.015
-0.02
-0.02
-0.025
-0.03
-0.03
-0.03
-0.035
-0.03
-0.035
-0.035
-0.035
-0.04
-0.04
-0.04
-0.045
-0.04
-0.045
-0.045
-0.045
-0.05
-0.045
-0.05
-0.04
-0.05
-0.045
-0.05
-0.005
-0.02
0.03
0.03
-0.02
-0.025
-0.03
-0.055
-0.05
-0.05
-0.045
-0.045
-0.04
-0.045
-0.05
-0.06
-0.15
0.345
0.75
0.625
0.29
0.04
0.05
0.035
0.02
0.005
0.01
0.0
0.0
0.0
0.0
0.0
0.0
0.0
-0.005
-0.005
-0.005
-0.01
-0.015
-0.015
-0.015
-0.025
-0.015
-0.015
-0.005
0.01
0.035
0.065
0.07
0.065
0.045
0.025
0.015
0.005
-0.005
0.005
0.0
0.0
0.01
0.01
0.005
0.01
0.01
0.015
0.01
0.005
0.005
0.0
0.0
0.0
-0.005
-0.005
-0.015
-0.02
-0.02
-0.015
-0.02
-0.02
-0.025
-0.025
-0.03
-0.03
-0.035
-0.03
-0.03
-0.04
-0.035
-0.035
-0.035
-0.045
-0.04
-0.04
-0.05
-0.04
-0.04
-0.045
-0.025
0.0
0.02
0.04
-0.005
-0.02
-0.03
-0.05
-0.05
-0.04
-0.045
-0.04
-0.045
-0.04
-0.08
-0.08
-0.115
0.41
0.92
0.6
0.22
0.005
0.055
0.025
0.0
0.005
0.0
-0.005
-0.01
0.0
-0.015
-0.005
-0.015
-0.01
-0.02
-0.015
-0.015
-0.025
-0.04
-0.03
-0.03
-0.025
-0.025
-0.01
0.0
0.025
0.045
0.07
0.075
0.05
0.045
0.025
0.0
0.0
-0.005
-0.005
0.0
-0.005
0.005
0.0
0.0
0.0
0.0
0.0
0.0
-0.005
-0.005
-0.015
-0.005
-0.01
-0.02
-0.015
-0.03
-0.03
-0.04
-0.045
-0.035
-0.025
-0.04
-0.045
-0.04
-0.04
-0.055
-0.055
-0.05
-0.04
-0.055
-0.055
-0.055
-0.055
-0.06
-0.06
-0.065
-0.06
-0.015
-0.025
0.045
0.025
-0.035
-0.045
-0.05
-0.07
-0.06
-0.05
-0.065
-0.055
-0.06
-0.075
-0.095
-0.165
0.305
0.84
0.71
0.33
0.02
0.015
0.02
0.0
-0.005
-0.01
-0.02
-0.02
-0.025
-0.02
-0.03
-0.025
-0.03
-0.025
-0.035
-0.03
-0.035
-0.04
-0.045
-0.045
-0.04
-0.045
-0.03
-0.015
0.0
0.025
0.055
0.06
0.05
0.03
0.015
0.0
-0.005
-0.01
-0.015
-0.01
-0.005
-0.01
-0.005
-0.005
-0.005
-0.005
-0.01
0.0
-0.01
-0.015
-0.01
-0.015
-0.02
-0.02
-0.03
-0.025
-0.035
-0.03
-0.035
-0.045
-0.04
-0.045
-0.04
-0.05
-0.045
-0.05
-0.045
-0.055
-0.05
-0.055
-0.055
-0.055
-0.05
-0.06
-0.055
-0.06
-0.06
0.0
-0.025
0.04
0.02
-0.04
-0.04
-0.05
-0.065
-0.06
-0.06
-0.06
-0.06
-0.06
-0.08
-0.08
-0.11
0.435
0.875
0.555
0.21
-0.005
0.035
0.015
0.0
-0.01
-0.01
-0.01
-0.02
-0.015
-0.015
-0.015
-0.015
-0.015
-0.02
-0.02
-0.025
-0.03
-0.03
-0.03
-0.03
-0.03
-0.015
-0.015
0.0
0.025
0.05
0.08
0.075
0.06
0.03
0.01
-0.005
-0.015
-0.02
-0.02
-0.025
-0.02
-0.02
-0.015
-0.015
-0.015
-0.01
-0.01
-0.01
-0.015
-0.01
-0.02
-0.02
-0.025
-0.025
-0.03
-0.03
-0.03
-0.035
-0.04
-0.04
-0.05
-0.045
-0.05
-0.05
-0.055
-0.05
-0.055
-0.055
-0.055
-0.055
-0.06
-0.06
-0.06
-0.06
-0.065
-0.06
-0.07
-0.06
-0.005
-0.025
0.035
0.01
-0.04
-0.05
-0.06
-0.065
-0.065
-0.065
-0.065
-0.06
-0.06
-0.085
-0.09
-0.125
0.43
0.875
0.55
0.205
-0.005
0.035
0.01
0.0
-0.01
-0.015
-0.02
-0.015
-0.02
-0.025
-0.02
-0.02
-0.02
-0.025
-0.02
-0.025
-0.03
-0.03
-0.03
-0.035
-0.03
-0.025
-0.015
0.0
0.02
0.055
0.07
0.08
0.065
0.04
0.015
0.0
-0.01
-0.01
-0.02
-0.015
-0.015
-0.01
-0.005
-0.005
0.0
-0.005
-0.005
-0.005
-0.005
-0.01
-0.01
-0.015
-0.015
-0.02
-0.02
-0.025
-0.025
-0.035
-0.035
-0.04
-0.04
-0.04
-0.04
-0.045
-0.045
-0.045
-0.05
-0.045
-0.05
-0.05
-0.055
-0.05
-0.05
-0.055
-0.055
-0.05
-0.055
-0.05
0.0
0.0
0.035
0.005
-0.025
-0.04
-0.055
-0.055
-0.055
-0.05
-0.045
-0.05
-0.04
-0.08
-0.1
-0.05
0.475
0.895
0.525
0.165
0.0
0.04
0.02
0.0
-0.025
-0.03
-0.03
-0.035
-0.045
-0.045
-0.05
-0.055
-0.06
-0.06
-0.055
-0.045
-0.025
0.0
0.01
0.02
0.01
0.01
0.0
-0.005
-0.01
0.0
-0.005
0.0
0.0
0.0
0.0
0.0
0.0
0.0
0.0
-0.005
-0.005
-0.005
-0.015
-0.015
-0.025
-0.02
-0.025
-0.025
-0.03
-0.02
0.015
0.025
0.045
0.035
0.02
0.035
0.0
-0.035
-0.035
-0.035
-0.05
-0.035
-0.045
-0.03
-0.04
-0.03
-0.055
-0.115
0.04
0.375
0.555
0.335
0.085
0.005
0.025
0.015
0.0
-0.005
-0.01
-0.01
-0.01
-0.015
-0.02
-0.015
-0.02
-0.025
-0.025
-0.025
-0.03
-0.035
-0.045
-0.045
-0.055
-0.055
-0.06
-0.05
-0.045
-0.03
0.0
0.015
0.025
0.015
0.01
0.0
0.0
0.0
-0.005
0.0
0.0
0.0
0.0
0.005
0.005
0.005
0.0
0.0
0.0
0.0
-0.005
-0.01
-0.01
-0.01
-0.015
-0.02
-0.015
-0.015
-0.02
-0.005
0.045
0.03
0.06
0.045
0.015
0.035
0.0
-0.01
-0.03
-0.025
-0.025
-0.02
-0.02
-0.02
-0.02
-0.03
-0.04
-0.16
0.175
0.56
0.47
0.275
0.035
0.03
0.025
0.01
0.0
-0.005
-0.015
-0.015
-0.02
-0.015
-0.02
-0.035
-0.03
-0.035
-0.035
-0.045
-0.05
-0.06
-0.055
-0.065
-0.08
-0.075
-0.075
-0.07
-0.05
-0.04
-0.01
0.0
0.01
0.0
-0.005
-0.01
-0.01
-0.01
-0.015
-0.005
0.0
0.0
0.0
-0.005
0.0
0.0
0.0
-0.005
-0.015
-0.01
-0.015
-0.01
-0.015
-0.025
-0.035
-0.025
-0.02
-0.03
-0.03
-0.03
-0.005
0.04
0.03
0.04
0.035
0.04
0.02
-0.02
-0.03
-0.035
-0.05
-0.045
-0.04
-0.035
-0.025
-0.025
-0.08
-0.085
-0.2
0.195
0.725
0.49
0.23
0.005
0.02
0.015
-0.005
-0.01
-0.01
-0.01
-0.03
-0.025
-0.025
-0.02
-0.03
-0.025
-0.035
-0.03
-0.05
-0.05
-0.055
-0.055
-0.065
-0.075
-0.075
-0.075
-0.075
-0.06
-0.04
-0.015
0.0
0.0
0.005
0.005
-0.005
0.005
0.0
0.0
0.0
0.0
0.0
-0.005
0.0
-0.01
-0.01
-0.01
-0.015
-0.015
-0.015
-0.025
-0.02
-0.025
-0.03
-0.02
-0.025
-0.03
-0.03
-0.035
-0.025
-0.01
0.025
0.015
0.055
0.045
0.035
0.03
-0.01
-0.025
-0.035
-0.045
-0.045
-0.035
-0.045
-0.035
-0.03
-0.06
-0.07
-0.195
0.16
0.65
0.505
0.275
0.04
0.01
0.025
0.005
0.0
-0.005
-0.01
-0.01
-0.005
-0.01
-0.015
-0.02
-0.02
-0.025
-0.025
-0.035
-0.03
-0.04
-0.045
-0.055
-0.055
-0.06
-0.065
-0.06
-0.045
-0.03
0.0
0.01
0.02
0.015
0.01
0.005
0.005
0.005
0.005
0.005
0.005
0.005
0.005
0.01
0.005
0.0
0.0
0.0
-0.005
-0.005
-0.01
-0.01
-0.015
-0.015
-0.02
-0.015
-0.02
-0.02
-0.025
-0.02
-0.025
-0.025
-0.025
-0.02
-0.015
0.03
0.02
0.035
0.035
0.02
0.0
-0.025
-0.025
-0.04
-0.04
-0.03
-0.04
-0.03
-0.04
-0.02
-0.055
-0.055
-0.11
0.29
0.68
0.405
0.17
-0.005
0.035
0.025
0.005
0.0
-0.005
0.0
-0.005
0.0
-0.01
-0.01
-0.015
-0.01
-0.015
-0.02
-0.025
-0.025
-0.035
-0.04
-0.045
-0.04
-0.05
-0.04
-0.035
-0.015
0.0
0.025
0.035
0.035
0.025
0.02
0.01
0.005
0.005
0.005
0.01
0.01
0.01
0.01
0.01
0.005
0.01
0.005
0.005
0.0
0.0
0.0
-0.005
-0.01
-0.01
-0.02
-0.02
-0.025
-0.025
-0.025
-0.025
-0.025
-0.03
-0.03
-0.03
-0.035
-0.03
-0.035
-0.035
-0.03
0.0
0.01
0.02
0.025
0.0
0.0
-0.03
-0.03
-0.035
-0.045
-0.035
-0.04
-0.035
-0.035
-0.03
-0.055
-0.05
-0.15
0.26
0.655
0.415
0.215
0.0
0.035
0.03
0.01
0.005
0.0
0.0
-0.005
-0.005
-0.01
-0.005
-0.01
-0.01
-0.02
-0.015
-0.02
-0.025
-0.03
-0.035
-0.035
-0.04
-0.05
-0.04
-0.04
-0.025
0.0
0.015
0.03
0.03
0.02
0.02
0.01
0.0
0.0
0.005
0.0
0.005
0.01
0.01
0.01
0.005
0.005
0.01
0.005
0.0
0.0
0.0
-0.005
-0.01
-0.01
-0.02
-0.015
-0.015
-0.02
-0.02
-0.03
-0.025
-0.025
-0.025
-0.03
-0.03
-0.03
-0.035
-0.035
-0.035
-0.035
-0.03
-0.04
-0.035
-0.04
-0.04
-0.04
-0.035
-0.045
-0.04
-0.035
-0.005
0.015
0.005
0.02
0.02
-0.015
-0.04
-0.04
-0.05
-0.05
-0.04
-0.04
-0.04
-0.035
-0.035
-0.065
-0.12
0.095
0.45
0.55
0.325
0.075
0.01
0.03
0.015
0.0
0.0
0.0
-0.005
-0.005
-0.01
-0.01
-0.01
-0.015
-0.015
-0.02
-0.02
-0.025
-0.025
-0.03
-0.035
-0.04
-0.04
-0.04
-0.035
-0.025
-0.01
0.01
0.03
0.04
0.04
0.025
0.015
0.01
0.005
0.005
0.005
0.01
0.01
0.01
0.01
0.01
0.01
0.005
0.005
0.005
0.0
0.0
0.0
-0.005
-0.005
-0.005
-0.015
-0.015
-0.02
-0.02
-0.02
-0.02
-0.02
-0.025
-0.02
-0.025
-0.025
-0.025
-0.03
-0.035
-0.03
-0.03
-0.035
-0.035
-0.035
-0.035
-0.04
-0.035
-0.035
-0.035
-0.04
-0.035
-0.015
-0.005
-0.01
0.015
-0.04
-0.04
-0.04
-0.04
-0.055
-0.04
-0.04
-0.03
-0.035
-0.025
-0.06
-0.07
-0.145
0.27
0.705
0.42
0.19
0.0
0.04
0.025
0.01
0.005
0.0
0.005
0.0
0.0
-0.005
0.0
-0.005
-0.005
-0.015
-0.01
-0.025
-0.02
-0.035
-0.03
-0.04
-0.045
-0.045
-0.04
-0.035
-0.02
0.0
0.025
0.035
0.04
0.025
0.015
0.005
0.0
0.0
0.0
0.0
0.005
0.005
0.005
0.005
0.005
0.005
0.005
0.0
0.0
0.0
-0.005
-0.005
-0.01
-0.01
-0.015
-0.015
-0.02
-0.015
-0.02
-0.02
-0.025
-0.025
-0.025
-0.025
-0.03
-0.03
-0.03
-0.03
-0.03
-0.03
-0.03
-0.035
-0.035
-0.035
-0.035
-0.035
-0.035
-0.035
-0.035
-0.04
-0.04
-0.015
-0.005
0.0
0.01
-0.035
-0.03
-0.035
-0.04
-0.05
-0.035
-0.04
-0.03
-0.03
-0.02
-0.06
-0.075
-0.145
0.255
0.715
0.45
0.205
0.005
0.045
0.035
0.015
0.015
0.005
0.005
0.0
0.005
0.0
0.0
-0.005
0.0
-0.005
-0.01
-0.02
-0.02
-0.03
-0.03
-0.035
-0.035
-0.04
-0.035
-0.035
-0.01
0.0
0.03
0.04
0.04
0.035
0.02
0.01
0.005
0.005
0.005
0.005
0.01
0.01
0.01
0.01
0.01
0.01
0.005
0.005
0.005
0.0
0.0
0.0
0.0
-0.005
-0.01
-0.01
-0.01
-0.015
-0.02
-0.02
-0.02
-0.02
-0.02
-0.02
-0.02
-0.025
-0.025
-0.025
-0.025
-0.025
-0.025
-0.03
-0.025
-0.03
-0.03
-0.03
-0.035
-0.035
-0.03
-0.035
-0.02
0.005
-0.015
0.005
-0.015
-0.035
-0.045
-0.04
-0.045
-0.04
-0.035
-0.03
-0.03
-0.02
-0.05
-0.07
-0.19
0.195
0.67
0.485
0.255
0.02
0.045
0.035
0.02
0.015
0.005
0.005
0.0
0.0
0.0
0.0
0.0
0.0
-0.01
-0.01
-0.015
-0.02
-0.025
-0.025
-0.035
-0.035
-0.04
-0.035
-0.03
-0.015
0.0
0.03
0.045
0.045
0.035
0.025
0.01
0.005
0.005
0.0
0.005
0.005
0.005
0.01
0.005
0.01
0.005
0.005
0.0
0.0
0.0
0.0
-0.005
-0.005
-0.01
-0.01
-0.01
-0.015
-0.015
-0.02
-0.015
-0.02
-0.02
-0.025
-0.02
-0.02
-0.025
-0.03
-0.025
-0.03
-0.03
-0.03
-0.03
-0.03
-0.03
-0.035
-0.03
-0.035
-0.035
-0.035
-0.03
-0.04
-0.03
0.005
-0.02
0.0
0.0
-0.04
-0.05
-0.04
-0.04
-0.04
-0.03
-0.035
-0.025
-0.025
-0.03
-0.06
-0.16
0.09
0.47
0.555
0.345
0.09
0.03
0.04
0.025
0.015
0.01
0.005
0.005
0.0
0.0
0.0
0.0
-0.005
-0.005
-0.015
-0.02
-0.025
-0.03
-0.03
-0.035
-0.04
-0.04
-0.04
-0.035
-0.025
-0.005
0.015
0.035
0.045
0.035
0.02
0.01
0.005
0.0
0.0
0.0
0.005
0.0
0.005
0.005
0.005
0.0
0.005
0.0
0.0
0.0
-0.005
-0.01
-0.01
-0.015
-0.015
-0.02
-0.02
-0.02
-0.025
-0.025
-0.025
-0.025
-0.03
-0.025
-0.03
-0.03
-0.03
-0.035
-0.035
-0.03
-0.035
-0.035
-0.035
-0.035
-0.035
-0.035
-0.04
-0.035
-0.04
-0.04
-0.01
-0.015
0.0
0.0
-0.05
-0.04
-0.04
-0.045
-0.05
-0.035
-0.04
-0.025
-0.03
-0.02
-0.065
-0.11
-0.1
0.26
0.66
0.43
0.165
0.0
0.035
0.025
0.01
0.005
0.0
0.0
0.0
0.0
-0.005
-0.005
-0.01
-0.01
-0.02
-0.02
-0.025
-0.025
-0.035
-0.04
-0.045
-0.045
-0.045
-0.04
-0.035
-0.015
0.005
0.03
0.04
0.035
0.02
0.01
0.0
0.0
-0.005
0.0
0.0
0.0
0.0
0.0
0.0
0.0
0.0
0.0
0.0
-0.005
-0.005
-0.005
-0.01
-0.01
-0.015
-0.015
-0.02
-0.02
-0.02
-0.025
-0.02
-0.02
-0.025
-0.025
-0.025
-0.03
-0.025
-0.025
-0.03
-0.03
-0.03
-0.03
-0.03
-0.035
-0.035
-0.03
-0.03
-0.03
-0.03
-0.01
0.0
0.0
0.005
-0.03
-0.025
-0.03
-0.03
-0.035
-0.025
-0.025
-0.015
-0.015
-0.01
-0.045
-0.065
-0.19
0.205
0.695
0.48
0.235
0.015
0.045
0.035
0.015
0.01
0.0
0.0
-0.005
0.0
-0.005
-0.005
-0.01
-0.01
-0.01
-0.015
-0.02
-0.02
-0.035
-0.035
-0.045
-0.04
-0.045
-0.04
-0.04
-0.02
0.0
0.025
0.035
0.04
0.025
0.015
0.0
0.0
0.0
0.0
0.0
0.0
0.0
0.0
0.005
0.0
0.0
0.0
0.0
0.0
0.0
0.0
-0.005
-0.005
-0.01
-0.01
-0.015
-0.02
-0.015
-0.02
-0.02
-0.02
-0.02
-0.025
-0.025
-0.03
-0.025
-0.025
-0.025
-0.035
-0.03
-0.035
-0.025
-0.035
-0.03
-0.035
-0.03
-0.04
-0.03
0.0
-0.025
0.0
0.005
-0.045
-0.045
-0.035
-0.04
-0.045
-0.03
-0.035
-0.025
-0.03
-0.02
-0.06
-0.115
-0.06
0.3
0.625
0.41
0.145
0.01
0.04
0.025
0.01
0.01
0.0
0.0
0.0
0.0
-0.005
0.0
-0.01
-0.005
-0.015
-0.015
-0.02
-0.025
-0.03
-0.035
-0.04
-0.035
-0.04
-0.035
-0.025
-0.005
0.015
0.04
0.05
0.045
0.03
0.02
0.005
0.005
0.005
0.0
0.005
0.005
0.005
0.01
0.01
0.005
0.005
0.005
0.0
0.0
0.0
-0.005
-0.005
-0.01
-0.01
-0.015
-0.015
-0.02
-0.02
-0.02
-0.02
-0.02
-0.025
-0.025
-0.025
-0.02
-0.025
-0.025
-0.025
-0.03
-0.03
-0.03
-0.025
-0.03
-0.025
-0.03
-0.01
0.0
0.0
0.005
-0.03
-0.025
-0.03
-0.035
-0.04
-0.035
-0.03
-0.025
-0.025
-0.025
-0.05
-0.06
-0.21
0.165
0.635
0.465
0.25
0.025
0.035
0.035
0.015
0.01
0.005
0.005
0.0
0.0
-0.005
0.0
-0.005
-0.005
-0.015
-0.015
-0.02
-0.025
-0.03
-0.035
-0.04
-0.04
-0.04
-0.035
-0.03
-0.015
0.005
0.03
0.05
0.05
0.04
0.025
0.015
0.01
0.005
0.005
0.005
0.01
0.01
0.01
0.01
0.01
0.005
0.005
0.005
0.005
0.0
0.0
0.0
0.0
-0.005
-0.01
-0.005
-0.01
-0.01
-0.015
-0.015
-0.015
-0.015
-0.015
-0.02
-0.02
-0.02
-0.025
-0.02
-0.025
-0.025
-0.03
-0.025
-0.03
-0.03
-0.03
-0.03
-0.035
-0.03
0.0
-0.025
0.005
0.005
-0.05
-0.04
-0.035
-0.04
-0.04
-0.035
-0.03
-0.025
-0.025
-0.015
-0.055
-0.075
-0.19
0.205
0.68
0.45
0.215
0.01
0.045
0.035
0.015
0.015
0.005
0.01
0.0
0.005
0.0
0.0
-0.005
0.0
-0.005
-0.01
-0.02
-0.02
-0.03
-0.03
-0.035
-0.035
-0.04
-0.03
-0.025
-0.01
0.01
0.04
0.055
0.05
0.04
0.025
0.01
0.005
0.005
0.0
0.0
0.005
0.005
0.005
0.005
0.005
0.0
0.0
0.005
0.0
0.0
0.0
-0.005
-0.005
-0.005
-0.01
-0.01
-0.015
-0.02
-0.01
-0.02
-0.025
-0.02
-0.02
-0.025
-0.02
-0.02
-0.025
-0.03
-0.025
-0.03
-0.025
-0.03
-0.03
-0.03
-0.03
-0.04
-0.025
0.0
-0.015
0.0
-0.02
-0.03
-0.035
-0.04
-0.04
-0.04
-0.035
-0.035
-0.03
-0.025
-0.025
-0.06
-0.165
0.03
0.445
0.555
0.365
0.11
0.005
0.035
0.025
0.01
0.0
0.0
-0.005
-0.005
-0.005
-0.015
-0.01
-0.02
-0.015
-0.02
-0.025
-0.03
-0.035
-0.035
-0.035
-0.05
-0.05
-0.045
-0.045
-0.03
-0.01
0.01
0.025
0.035
0.035
0.015
0.01
0.005
-0.005
-0.005
0.0
0.0
0.0
0.0
0.0
-0.015
0.0
0.0
-0.01
-0.015
-0.015
-0.01
-0.005
-0.02
-0.02
-0.02
-0.03
-0.025
-0.03
-0.03
-0.03
-0.03
-0.025
-0.03
-0.035
-0.035
-0.04
-0.04
-0.03
-0.045
-0.035
-0.04
-0.045
-0.05
-0.04
-0.015
-0.025
0.01
0.015
-0.04
-0.05
-0.04
-0.05
-0.055
-0.045
-0.04
-0.03
-0.035
-0.025
-0.08
-0.11
-0.15
0.265
0.715
0.485
0.185
-0.01
0.025
0.02
0.0
0.0
-0.01
0.0
-0.01
-0.01
-0.02
-0.01
-0.02
-0.025
-0.025
-0.025
-0.035
-0.04
-0.05
-0.045
-0.06
-0.055
-0.06
-0.06
-0.055
-0.04
-0.015
0.0
0.025
0.02
0.02
0.01
0.0
0.0
0.0
0.0
0.0
0.005
0.0
0.0
0.0
0.0
-0.005
-0.005
-0.005
0.0
-0.005
-0.005
-0.015
-0.015
-0.025
-0.015
-0.02
-0.025
-0.02
-0.025
-0.02
-0.03
-0.03
-0.035
-0.03
-0.035
-0.03
-0.035
-0.035
-0.04
-0.035
-0.04
-0.035
-0.045
-0.035
0.005
-0.025
0.01
0.005
-0.05
-0.045
-0.035
-0.045
-0.05
-0.035
-0.04
-0.035
-0.04
-0.03
-0.06
-0.095
-0.065
0.285
0.61
0.38
0.135
0.0
0.03
0.02
0.005
0.0
-0.005
0.0
-0.01
0.0
-0.01
-0.005
-0.015
-0.01
-0.02
-0.015
-0.025
-0.02
-0.035
-0.035
-0.04
-0.04
-0.04
-0.035
-0.025
-0.01
0.015
0.035
0.05
0.04
0.03
0.015
0.0
0.0
-0.005
-0.005
-0.01
-0.005
0.0
0.0
0.0
0.0
-0.005
0.0
0.0
-0.005
-0.005
-0.01
-0.015
-0.015
-0.02
-0.02
-0.02
-0.02
-0.025
-0.025
-0.03
-0.025
-0.03
-0.025
-0.035
-0.03
-0.035
-0.035
-0.035
-0.035
-0.04
-0.04
-0.04
-0.005
0.015
-0.005
0.01
-0.005
-0.03
-0.045
-0.04
-0.045
-0.045
-0.035
-0.035
-0.03
-0.035
-0.03
-0.05
-0.15
0.095
0.445
0.495
0.31
0.065
0.02
0.035
0.02
0.005
0.005
0.005
0.0
0.0
0.0
-0.005
-0.005
-0.005
-0.01
-0.01
-0.015
-0.02
-0.025
-0.025
-0.03
-0.035
-0.04
-0.035
-0.03
-0.02
0.0
0.025
0.045
0.05
0.04
0.025
0.015
0.005
0.0
0.0
0.0
0.005
0.005
0.005
0.01
0.01
0.01
0.01
0.005
0.005
0.005
0.0
0.0
0.0
0.0
-0.005
-0.01
-0.01
-0.01
-0.015
-0.02
-0.02
-0.02
-0.025
-0.025
-0.02
-0.025
-0.025
-0.03
-0.03
-0.03
-0.025
-0.03
-0.03
-0.03
-0.03
-0.035
0.0
0.015
0.01
0.01
-0.005
-0.025
-0.03
-0.035
-0.035
-0.04
-0.025
-0.03
-0.02
-0.025
-0.015
-0.045
-0.09
-0.065
0.275
0.62
0.395
0.15
0.015
0.045
0.03
0.01
0.01
0.0
0.005
0.0
0.0
-0.005
-0.005
-0.005
-0.005
-0.015
-0.01
-0.02
-0.02
-0.03
-0.03
-0.035
-0.035
-0.04
-0.035
-0.025
-0.005
0.015
0.04
0.05
0.045
0.03
0.025
0.01
0.005
0.0
0.005
0.005
0.005
0.005
0.01
0.01
0.015
0.01
0.01
0.01
0.005
0.005
0.005
0.0
0.0
0.0
0.0
-0.005
-0.01
-0.01
-0.01
-0.01
-0.015
-0.01
-0.015
