signal
-0.03
-0.03
-0.045
-0.05
-0.05
-0.05
-0.04
-0.025
0.01
0.02
0.01
0.075
0.025
-0.06
-0.055
-0.025
-0.06
-0.06
-0.065
-0.06
-0.08
-0.055
-0.055
-0.05
-0.065
-0.365
-0.47
0.58
2.385
1.52
0.69
0.1
-0.23
-0.1
-0.09
-0.095
-0.105
-0.1
-0.11
-0.1
-0.105
-0.11
-0.11
-0.125
-0.125
-0.115
-0.12
-0.14
-0.14
-0.165
-0.165
-0.175
-0.15
-0.14
-0.11
-0.06
-0.015
-0.015
-0.01
-0.035
-0.025
-0.04
-0.02
-0.035
-0.03
-0.025
-0.02
-0.04
-0.03
-0.055
-0.03
-0.04
-0.03
-0.045
-0.04
-0.055
-0.045
-0.05
-0.02
-0.04
-0.03
-0.05
-0.045
-0.05
-0.045
-0.045
-0.04
-0.05
-0.04
-0.02
0.02
0.02
0.015
0.09
0.005
-0.06
-0.055
-0.035
-0.055
-0.065
-0.06
-0.055
-0.06
-0.065
-0.065
-0.06
-0.055
-0.325
-0.51
0.455
2.31
1.56
0.755
0.145
-0.24
-0.105
-0.095
-0.1
-0.115
-0.12
-0.105
-0.115
-0.115
-0.14
-0.125
-0.125
-0.125
-0.115
-0.125
-0.14
-0.145
-0.16
-0.165
-0.165
-0.14
-0.14
-0.09
-0.045
0.0
0.0
0.015
0.0
0.0
0.0
0.0
0.0
0.015
-0.005
0.015
0.0
0.0
-0.02
-0.02
-0.03
-0.02
-0.03
-0.015
-0.045
-0.025
-0.045
-0.045
-0.055
-0.045
-0.055
-0.045
-0.05
-0.05
-0.05
-0.055
-0.06
-0.04
0.0
0.035
0.005
0.015
0.08
0.005
-0.075
-0.06
-0.025
-0.055
-0.05
-0.065
-0.055
-0.05
-0.045
-0.07
-0.04
-0.045
-0.335
-0.475
0.595
2.415
1.535
0.7
0.105
-0.2
-0.08
-0.065
-0.08
-0.09
-0.095
-0.095
-0.09
-0.09
-0.11
-0.095
-0.1
-0.11
-0.115
-0.105
-0.125
-0.125
-0.15
-0.15
-0.16
-0.13
-0.12
-0.065
-0.045
0.0
0.01
0.01
0.005
0.005
-0.01
0.005
-0.01
0.02
0.0
0.015
0.0
0.015
0.0
0.015
-0.01
0.0
0.0
0.005
-0.02
-0.01
-0.02
-0.02
-0.045
-0.05
-0.05
-0.04
-0.06
-0.03
-0.06
-0.04
-0.055
-0.055
-0.035
0.015
0.0
0.0
0.07
0.0
-0.08
-0.075
-0.07
-0.075
-0.085
-0.075
-0.07
-0.065
-0.065
-0.055
-0.05
-0.035
-0.285
-0.5
0.315
2.18
1.66
0.85
0.22
-0.23
-0.085
-0.08
-0.09
-0.095
-0.095
-0.09
-0.105
-0.105
-0.115
-0.11
-0.12
-0.11
-0.145
-0.125
-0.15
-0.14
-0.17
-0.16
-0.18
-0.165
-0.155
-0.09
-0.07
-0.02
-0.005
0.0
-0.015
-0.01
-0.035
0.0
-0.03
0.0
-0.01
0.005
-0.01
0.01
-0.02
0.0
-0.02
-0.01
-0.015
0.0
-0.025
0.0
-0.03
0.005
-0.015
-0.025
-0.04
-0.005
-0.04
-0.015
-0.04
-0.005
-0.04
-0.025
-0.04
0.005
0.025
0.03
0.015
0.11
-0.015
-0.04
-0.065
-0.03
-0.06
-0.04
-0.065
-0.035
-0.065
-0.025
-0.05
-0.035
-0.06
-0.18
-0.51
0.14
1.925
1.835
0.98
0.315
-0.225
-0.09
-0.095
-0.07
-0.115
-0.095
-0.115
-0.085
-0.105
-0.09
-0.14
-0.095
-0.12
-0.105
-0.14
-0.125
-0.155
-0.155
-0.195
-0.155
-0.165
-0.12
-0.1
-0.025
-0.01
0.015
0.0
0.025
0.0
0.0
-0.005
-0.005
-0.015
0.0
-0.01
0.0
-0.005
0.005
-0.015
0.0
-0.04
0.0
-0.02
-0.01
-0.02
0.0
-0.025
-0.015
-0.03
-0.015
-0.035
-0.03
-0.045
-0.03
-0.04
-0.03
-0.05
-0.035
-0.045
-0.02
0.0
0.02
0.0
0.08
0.03
-0.045
-0.075
-0.05
-0.06
-0.06
-0.065
-0.07
-0.075
-0.07
-0.08
-0.075
-0.065
-0.07
-0.27
-0.52
0.265
2.14
1.695
0.89
0.225
-0.25
-0.12
-0.105
-0.09
-0.1
-0.095
-0.105
-0.115
-0.11
-0.13
-0.125
-0.145
-0.125
-0.15
-0.135
-0.145
-0.15
-0.18
-0.175
-0.19
-0.17
-0.155
-0.11
-0.085
-0.015
-0.02
0.0
-0.02
-0.02
-0.035
-0.02
-0.035
-0.025
-0.045
-0.015
-0.02
-0.01
-0.02
-0.015
-0.05
-0.015
-0.04
-0.01
-0.035
-0.015
-0.045
-0.015
-0.045
-0.04
-0.06
-0.035
-0.04
-0.04
-0.065
-0.045
-0.055
-0.045
-0.07
-0.035
-0.03
0.03
0.0
0.05
0.045
-0.015
-0.085
-0.045
-0.06
-0.045
-0.06
-0.04
-0.07
-0.045
-0.06
-0.035
-0.045
-0.03
-0.165
-0.45
-0.03
1.66
2.0
1.125
0.38
-0.18
-0.125
-0.075
-0.095
-0.08
-0.105
-0.095
-0.11
-0.085
-0.11
-0.085
-0.12
-0.09
-0.11
-0.1
-0.12
-0.1
-0.145
-0.145
-0.16
-0.13
-0.15
-0.105
-0.07
0.0
0.0
0.025
0.01
0.02
0.0
0.01
-0.01
0.005
-0.005
0.005
-0.015
0.025
0.0
0.01
-0.005
0.01
-0.01
0.01
-0.015
0.005
-0.025
-0.005
-0.01
0.0
-0.035
0.0
-0.035
-0.015
-0.05
-0.01
-0.055
-0.015
-0.045
-0.02
-0.03
0.02
0.025
0.025
0.065
0.04
-0.065
-0.045
-0.075
-0.035
-0.075
-0.04
-0.085
-0.04
-0.08
-0.04
-0.08
-0.045
-0.095
-0.285
-0.54
0.385
2.265
1.62
0.79
0.215
-0.255
-0.08
-0.1
-0.075
-0.115
-0.075
-0.115
-0.075
-0.12
-0.085
-0.125
-0.105
-0.135
-0.1
-0.13
-0.125
-0.15
-0.14
-0.175
-0.16
-0.17
-0.125
-0.11
-0.045
-0.025
0.015
0.005
0.025
0.0
0.005
-0.005
0.0
-0.005
0.0
-0.015
0.0
-0.005
0.01
-0.01
-0.005
-0.01
-0.005
-0.02
-0.015
-0.03
-0.03
-0.035
-0.03
-0.035
-0.035
-0.035
-0.035
-0.045
-0.04
-0.035
-0.035
-0.035
-0.05
-0.04
-0.02
0.02
0.03
0.02
0.085
0.035
-0.06
-0.06
-0.035
-0.03
-0.07
-0.045
-0.06
-0.04
-0.065
-0.035
-0.045
-0.04
-0.055
-0.35
-0.46
0.705
2.46
1.465
0.63
0.035
-0.22
-0.095
-0.095
-0.1
-0.12
-0.115
-0.135
-0.115
-0.135
-0.12
-0.13
-0.13
-0.145
-0.125
-0.15
-0.145
-0.16
-0.17
-0.17
-0.175
-0.165
-0.145
-0.105
-0.055
-0.01
-0.005
0.0
0.0
-0.015
-0.035
-0.005
-0.045
-0.015
-0.025
-0.015
-0.025
-0.01
-0.025
-0.015
-0.04
-0.02
-0.035
-0.015
-0.025
-0.015
-0.03
-0.01
-0.045
-0.025
-0.04
-0.035
-0.06
-0.035
-0.05
-0.03
-0.06
-0.04
-0.05
0.0
0.02
0.025
0.03
0.065
-0.05
-0.055
-0.085
-0.035
-0.085
-0.05
-0.075
-0.05
-0.085
-0.055
-0.085
-0.055
-0.085
-0.3
-0.52
0.435
2.305
1.595
0.77
0.175
-0.265
-0.09
-0.11
-0.09
-0.14
-0.105
-0.135
-0.115
-0.145
-0.12
-0.14
-0.12
-0.15
-0.12
-0.165
-0.145
-0.185
-0.17
-0.195
-0.17
-0.175
-0.155
-0.125
-0.07
-0.03
0.0
-0.015
-0.005
-0.02
-0.015
-0.02
-0.015
-0.025
-0.015
-0.025
-0.01
-0.015
-0.015
-0.03
-0.015
-0.025
-0.02
-0.035
-0.025
-0.04
-0.03
-0.03
-0.04
-0.04
-0.055
-0.045
-0.045
-0.05
-0.06
-0.065
-0.06
-0.055
-0.06
-0.025
0.02
0.015
0.015
0.07
-0.04
-0.07
-0.08
-0.04
-0.075
-0.045
-0.08
-0.065
-0.07
-0.055
-0.075
-0.045
-0.08
-0.355
-0.51
0.61
2.415
1.5
0.69
0.095
-0.24
-0.105
-0.095
-0.105
-0.12
-0.1
-0.115
-0.105
-0.125
-0.12
-0.12
-0.105
-0.12
-0.12
-0.14
-0.125
-0.15
-0.15
-0.16
-0.15
-0.165
-0.125
-0.085
-0.045
-0.015
0.0
0.005
-0.005
0.0
-0.015
-0.015
-0.02
-0.015
-0.015
-0.015
0.0
0.0
-0.01
-0.005
-0.015
-0.01
-0.02
-0.02
-0.02
-0.015
-0.03
-0.02
-0.035
-0.015
-0.045
-0.02
-0.05
-0.025
-0.04
-0.025
-0.055
-0.035
-0.035
0.0
0.03
0.04
0.065
0.065
-0.04
-0.035
-0.055
-0.03
-0.07
-0.04
-0.075
-0.035
-0.065
-0.04
-0.06
-0.035
-0.06
-0.335
-0.5
0.55
2.39
1.555
0.72
0.135
-0.235
-0.085
-0.095
-0.08
-0.115
-0.095
-0.11
-0.09
-0.125
-0.1
-0.13
-0.1
-0.12
-0.115
-0.13
-0.13
-0.165
-0.145
-0.165
-0.155
-0.165
-0.14
-0.125
-0.055
-0.01
0.01
0.01
0.015
0.0
0.015
0.0
-0.01
0.0
-0.01
0.0
0.0
0.01
0.0
-0.005
-0.015
-0.02
-0.015
-0.015
-0.015
-0.025
-0.03
-0.025
-0.02
-0.03
-0.03
-0.025
-0.04
-0.035
-0.045
-0.035
-0.05
-0.035
-0.04
0.0
0.03
0.02
0.035
0.09
-0.03
-0.05
-0.07
-0.025
-0.06
-0.04
-0.06
-0.05
-0.06
-0.035
-0.065
-0.045
-0.06
-0.255
-0.52
0.32
2.21
1.675
0.865
0.24
-0.24
-0.09
-0.085
-0.065
-0.1
-0.085
-0.095
-0.07
-0.095
-0.1
-0.105
-0.095
-0.115
-0.115
-0.135
-0.13
-0.145
-0.15
-0.16
-0.165
-0.175
-0.135
-0.115
-0.055
-0.015
0.005
0.0
0.01
-0.015
0.005
-0.015
-0.01
-0.015
-0.025
-0.01
-0.005
0.0
-0.015
-0.01
-0.02
-0.02
-0.03
-0.03
-0.03
-0.03
-0.03
-0.035
-0.035
-0.05
-0.04
-0.055
-0.055
-0.06
-0.06
-0.055
-0.05
-0.06
-0.035
-0.01
0.01
0.0
0.075
0.02
-0.055
-0.095
-0.055
-0.07
-0.065
-0.08
-0.06
-0.065
-0.075
-0.075
-0.065
-0.065
-0.165
-0.495
-0.06
1.63
1.985
1.115
0.375
-0.205
-0.125
-0.095
-0.105
-0.1
-0.105
-0.12
-0.1
-0.105
-0.105
-0.11
-0.105
-0.135
-0.115
-0.145
-0.13
-0.16
-0.17
-0.19
-0.2
-0.185
-0.16
-0.125
-0.08
-0.025
-0.01
0.0
-0.005
-0.01
-0.015
-0.01
-0.01
-0.015
-0.015
-0.015
-0.015
-0.01
-0.005
-0.025
-0.005
-0.025
-0.01
-0.025
-0.005
-0.025
-0.015
-0.035
-0.02
-0.04
-0.025
-0.05
-0.02
-0.055
-0.025
-0.06
-0.04
-0.055
0.0
0.03
0.025
0.03
0.09
-0.03
-0.045
-0.07
-0.025
-0.08
-0.05
-0.075
-0.055
-0.075
-0.04
-0.085
-0.035
-0.09
-0.36
-0.475
0.74
2.41
1.45
0.63
0.045
-0.225
-0.08
-0.11
-0.08
-0.125
-0.09
-0.125
-0.095
-0.14
-0.115
-0.135
-0.105
-0.15
-0.135
-0.16
-0.14
-0.17
-0.18
-0.195
-0.165
-0.19
-0.15
-0.125
-0.055
-0.04
0.0
-0.025
0.0
-0.03
-0.02
-0.005
-0.015
-0.02
-0.005
-0.03
-0.015
-0.03
-0.02
-0.03
-0.015
-0.04
-0.02
-0.035
-0.03
-0.06
-0.04
-0.05
-0.045
-0.045
-0.05
-0.05
-0.05
-0.045
-0.06
-0.075
-0.045
-0.03
0.02
0.005
0.03
0.055
-0.04
-0.075
-0.065
-0.055
-0.055
-0.06
-0.065
-0.065
-0.07
-0.055
-0.065
-0.065
-0.115
-0.455
-0.355
1.05
2.3
1.315
0.515
-0.085
-0.19
-0.105
-0.105
-0.105
-0.115
-0.11
-0.125
-0.12
-0.12
-0.125
-0.115
-0.13
-0.12
-0.135
-0.145
-0.16
-0.17
-0.18
-0.18
-0.19
-0.175
-0.16
-0.105
-0.055
-0.01
-0.015
-0.015
-0.025
-0.015
-0.02
-0.015
-0.025
-0.005
-0.03
-0.015
-0.025
0.0
-0.025
-0.015
-0.03
-0.015
-0.04
-0.015
-0.035
-0.03
-0.055
-0.03
-0.055
-0.03
-0.065
-0.035
-0.055
-0.035
-0.07
-0.03
-0.055
0.0
0.005
0.03
0.005
0.105
-0.01
-0.04
-0.1
-0.02
-0.07
-0.06
-0.095
-0.065
-0.08
-0.065
-0.09
-0.05
-0.085
-0.275
-0.54
0.345
2.195
1.625
0.81
0.215
-0.265
-0.1
-0.125
-0.1
-0.125
-0.095
-0.135
-0.105
-0.145
-0.11
-0.14
-0.11
-0.14
-0.12
-0.16
-0.14
-0.19
-0.17
-0.205
-0.18
-0.19
-0.15
-0.15
-0.075
-0.05
-0.005
-0.03
-0.005
-0.03
-0.005
-0.03
-0.01
-0.025
-0.005
-0.03
-0.005
-0.03
-0.025
-0.025
-0.025
-0.045
-0.015
-0.04
-0.03
-0.05
-0.03
-0.035
-0.04
-0.055
-0.04
-0.045
-0.055
-0.06
-0.04
-0.05
-0.05
-0.025
0.04
0.005
0.025
0.075
-0.02
-0.08
-0.075
-0.035
-0.06
-0.055
-0.06
-0.06
-0.06
-0.06
-0.045
-0.05
-0.055
-0.3
-0.51
0.42
2.31
1.585
0.775
0.155
-0.235
-0.105
-0.09
-0.105
-0.11
-0.13
-0.125
-0.13
-0.115
-0.12
-0.12
-0.135
-0.12
-0.145
-0.135
-0.16
-0.15
-0.175
-0.175
-0.18
-0.17
-0.165
-0.105
-0.07
-0.015
0.0
-0.005
-0.03
-0.005
-0.03
-0.02
-0.03
-0.005
-0.025
-0.015
-0.04
-0.01
-0.035
-0.015
-0.04
-0.03
-0.035
-0.03
-0.055
-0.03
-0.045
-0.03
-0.04
-0.03
-0.045
-0.04
-0.045
-0.04
-0.04
-0.03
-0.04
-0.03
-0.02
0.04
0.01
0.06
0.055
-0.03
-0.06
-0.07
-0.055
-0.06
-0.06
-0.055
-0.07
-0.065
-0.065
-0.07
-0.055
-0.09
-0.39
-0.46
0.735
2.45
1.45
0.63
0.025
-0.215
-0.105
-0.09
-0.1
-0.11
-0.1
-0.11
-0.11
-0.115
-0.115
-0.125
-0.135
-0.12
-0.14
-0.145
-0.165
-0.16
-0.185
-0.18
-0.19
-0.175
-0.165
-0.115
-0.07
-0.035
-0.02
-0.005
-0.035
-0.02
-0.04
-0.025
-0.035
-0.015
-0.04
-0.015
-0.045
-0.005
-0.05
-0.02
-0.045
-0.03
-0.055
-0.015
-0.055
-0.025
-0.06
-0.025
-0.045
-0.035
-0.07
-0.04
-0.085
-0.045
-0.085
-0.045
-0.065
0.0
-0.01
0.015
0.03
0.06
-0.08
-0.055
-0.085
-0.045
-0.1
-0.06
-0.1
-0.055
-0.1
-0.045
-0.09
-0.05
-0.125
-0.425
-0.365
1.06
2.31
1.34
0.49
-0.065
-0.195
-0.08
-0.12
-0.09
-0.125
-0.09
-0.13
-0.1
-0.135
-0.09
-0.135
-0.095
-0.135
-0.115
-0.165
-0.135
-0.18
-0.155
-0.195
-0.165
-0.185
-0.13
-0.115
-0.04
-0.04
0.0
-0.035
-0.02
-0.04
-0.01
-0.04
-0.01
-0.035
-0.005
-0.025
-0.01
-0.035
-0.005
-0.03
-0.015
-0.03
-0.01
-0.04
-0.015
-0.035
-0.03
-0.05
-0.02
-0.035
-0.03
-0.055
-0.05
-0.05
-0.04
-0.055
-0.035
-0.025
0.02
-0.005
0.04
0.035
-0.045
-0.08
-0.075
-0.07
-0.075
-0.07
-0.09
-0.065
-0.08
-0.07
-0.065
-0.065
-0.08
-0.39
-0.475
0.75
2.445
1.435
0.635
0.03
-0.215
-0.105
-0.095
-0.1
-0.115
-0.125
-0.11
-0.115
-0.115
-0.12
-0.115
-0.14
-0.12
-0.14
-0.145
-0.165
-0.155
-0.185
-0.17
-0.19
-0.155
-0.15
-0.1
-0.05
-0.005
-0.005
0.0
-0.02
-0.01
-0.02
-0.01
-0.035
-0.01
-0.03
-0.005
-0.035
-0.01
-0.045
-0.02
-0.04
-0.02
-0.055
-0.03
-0.05
-0.03
-0.06
-0.05
-0.08
-0.035
-0.075
-0.045
-0.08
-0.05
-0.085
-0.055
-0.085
-0.025
-0.02
0.005
-0.025
0.07
-0.075
-0.08
-0.1
-0.04
-0.1
-0.06
-0.1
-0.05
-0.095
-0.05
-0.1
-0.05
-0.08
-0.325
-0.525
0.555
2.345
1.54
0.71
0.15
-0.26
-0.08
-0.105
-0.08
-0.125
-0.08
-0.13
-0.08
-0.12
-0.09
-0.13
-0.095
-0.14
-0.105
-0.15
-0.135
-0.175
-0.145
-0.195
-0.165
-0.185
-0.135
-0.125
-0.045
-0.02
0.005
-0.015
0.0
-0.03
-0.005
-0.04
-0.01
-0.03
-0.015
-0.035
-0.015
-0.015
0.0
-0.04
-0.01
-0.04
-0.025
-0.05
-0.01
-0.05
-0.035
-0.05
-0.01
-0.04
-0.02
-0.05
-0.04
-0.055
-0.035
-0.055
-0.02
-0.035
0.02
0.005
0.03
0.065
0.04
-0.08
-0.035
-0.07
-0.04
-0.075
-0.055
-0.085
-0.035
-0.09
-0.03
-0.085
-0.045
-0.11
-0.435
-0.33
1.185
2.285
1.32
0.49
-0.06
-0.185
-0.08
-0.11
-0.09
-0.11
-0.07
-0.1
-0.075
-0.12
-0.085
-0.12
-0.08
-0.135
-0.095
-0.135
-0.12
-0.155
-0.15
-0.165
-0.155
-0.165
-0.11
-0.095
-0.005
0.0
0.02
0.01
0.02
-0.005
0.005
-0.01
0.0
-0.015
0.015
-0.005
0.01
0.0
0.0
-0.015
0.0
-0.02
-0.01
-0.02
0.0
-0.02
-0.02
-0.02
-0.01
-0.035
-0.025
-0.04
-0.025
-0.045
-0.03
-0.035
-0.02
-0.005
0.035
0.015
0.025
0.075
0.01
-0.06
-0.055
-0.03
-0.055
-0.06
-0.06
-0.05
-0.05
-0.055
-0.055
-0.055
-0.06
-0.265
-0.5
0.31
2.185
1.66
0.89
0.235
-0.235
-0.09
-0.09
-0.095
-0.095
-0.085
-0.095
-0.115
-0.105
-0.11
-0.115
-0.125
-0.115
-0.125
-0.135
-0.145
-0.155
-0.165
-0.17
-0.17
-0.165
-0.16
-0.095
-0.06
-0.015
-0.005
0.005
0.0
0.005
-0.015
0.0
-0.01
-0.005
0.0
0.0
-0.02
0.0
-0.015
-0.005
-0.01
-0.01
-0.025
-0.02
-0.03
-0.02
-0.04
-0.025
-0.03
-0.035
-0.03
-0.02
-0.035
-0.045
-0.045
-0.04
-0.015
0.045
0.035
0.04
0.075
-0.025
-0.065
-0.06
-0.04
-0.06
-0.055
-0.06
-0.055
-0.085
-0.07
-0.07
-0.065
-0.095
-0.41
-0.445
0.83
2.41
1.395
0.57
-0.015
-0.205
-0.095
-0.09
-0.11
-0.12
-0.11
-0.125
-0.125
-0.13
-0.115
-0.135
-0.12
-0.12
-0.14
-0.155
-0.155
-0.18
-0.175
-0.19
-0.195
-0.18
-0.15
-0.095
-0.045
-0.02
-0.02
-0.005
-0.02
-0.03
-0.025
-0.015
-0.025
-0.005
-0.025
-0.015
-0.02
-0.005
-0.02
-0.01
-0.015
-0.005
-0.01
-0.005
-0.01
-0.025
-0.01
-0.01
-0.025
-0.025
-0.01
-0.01
-0.03
-0.03
-0.02
-0.02
0.0
0.04
0.025
0.045
0.07
-0.025
-0.05
-0.065
-0.025
-0.065
-0.045
-0.05
-0.035
-0.07
-0.055
-0.06
-0.045
-0.08
-0.39
-0.425
0.875
2.41
1.41
0.6
0.02
-0.2
-0.09
-0.095
-0.1
-0.11
-0.09
-0.125
-0.12
-0.135
-0.11
-0.135
-0.12
-0.135
-0.135
-0.135
-0.155
-0.175
-0.17
-0.18
-0.18
-0.18
-0.155
-0.11
-0.055
-0.015
-0.01
-0.025
-0.015
-0.02
-0.035
-0.025
-0.035
-0.035
-0.04
-0.045
-0.045
-0.03
-0.045
-0.045
-0.04
-0.04
-0.055
-0.045
-0.055
-0.05
-0.045
-0.05
-0.065
-0.065
-0.05
-0.055
-0.045
-0.045
-0.045
-0.04
-0.02
0.035
0.005
0.01
0.08
0.0
-0.06
-0.075
-0.04
-0.06
-0.07
-0.065
-0.055
-0.06
-0.055
-0.06
-0.05
-0.075
-0.22
-0.51
0.185
2.01
1.74
0.93
0.285
-0.245
-0.1
-0.085
-0.085
-0.105
-0.1
-0.105
-0.095
-0.105
-0.095
-0.12
-0.105
-0.105
-0.115
-0.115
-0.12
-0.135
-0.145
-0.165
-0.145
-0.165
-0.16
-0.095
-0.055
-0.005
0.01
0.01
0.01
0.0
-0.01
0.0
-0.01
-0.01
0.0
-0.015
0.005
0.005
-0.01
-0.01
0.0
-0.02
-0.01
-0.01
-0.015
-0.015
-0.015
-0.03
-0.015
-0.04
-0.01
-0.025
-0.025
-0.04
-0.02
-0.05
-0.03
-0.04
-0.035
-0.015
0.02
0.0
0.02
0.065
0.02
-0.075
-0.05
-0.045
-0.035
-0.08
-0.035
-0.065
-0.035
-0.06
-0.035
-0.055
-0.025
-0.07
-0.345
-0.475
0.73
2.485
1.495
0.66
0.09
-0.215
-0.075
-0.085
-0.08
-0.105
-0.09
-0.125
-0.085
-0.12
-0.095
-0.12
-0.1
-0.125
-0.11
-0.13
-0.13
-0.15
-0.15
-0.165
-0.17
-0.19
-0.15
-0.13
-0.05
-0.025
-0.01
-0.01
-0.01
-0.03
-0.015
-0.02
-0.02
-0.03
-0.02
-0.025
-0.02
-0.025
-0.015
-0.02
-0.02
-0.015
-0.015
-0.03
-0.015
-0.025
-0.035
-0.035
-0.045
-0.035
-0.035
-0.04
-0.045
-0.04
-0.05
-0.045
-0.065
-0.06
-0.05
-0.04
-0.015
0.03
0.0
0.035
0.06
-0.02
-0.07
-0.065
-0.045
-0.06
-0.07
-0.06
-0.07
-0.055
-0.075
-0.06
-0.06
-0.06
-0.075
-0.22
-0.5
0.23
2.105
1.78
0.91
0.27
-0.235
-0.105
-0.09
-0.095
-0.095
-0.095
-0.1
-0.1
-0.11
-0.11
-0.1
-0.12
-0.115
-0.115
-0.12
-0.14
-0.145
-0.17
-0.17
-0.17
-0.18
-0.165
-0.13
-0.075
-0.025
-0.02
0.0
-0.005
-0.005
-0.015
0.0
-0.025
-0.01
-0.03
-0.02
-0.015
-0.015
-0.015
-0.025
-0.02
-0.015
-0.035
-0.02
-0.02
-0.02
-0.04
-0.015
-0.04
-0.04
-0.035
-0.035
-0.045
-0.04
-0.05
-0.045
-0.04
-0.045
-0.04
-0.05
-0.05
-0.045
-0.03
0.0
0.005
0.0
0.08
0.015
-0.06
-0.065
-0.045
-0.065
-0.06
-0.09
-0.07
-0.095
-0.075
-0.08
-0.07
-0.095
-0.075
-0.085
-0.395
-0.435
0.87
2.48
1.44
0.62
0.04
-0.22
-0.105
-0.1
-0.1
-0.115
-0.095
-0.1
-0.105
-0.1
-0.105
-0.11
-0.1
-0.105
-0.12
-0.13
-0.125
-0.135
-0.16
-0.165
-0.18
-0.165
-0.155
-0.11
-0.035
-0.02
-0.01
-0.01
-0.025
-0.02
-0.03
-0.02
-0.025
-0.02
-0.045
-0.01
-0.02
-0.01
-0.03
-0.02
-0.03
0.0
-0.03
0.0
-0.02
-0.005
-0.045
-0.02
-0.035
-0.025
-0.02
-0.015
-0.05
-0.035
-0.055
-0.03
-0.06
-0.02
-0.065
-0.025
-0.045
0.04
0.01
0.035
0.065
0.03
-0.08
-0.06
-0.06
-0.05
-0.085
-0.055
-0.085
-0.05
-0.08
-0.04
-0.08
-0.035
-0.07
-0.25
-0.51
0.36
2.255
1.67
0.825
0.24
-0.245
-0.08
-0.095
-0.07
-0.115
-0.065
-0.1
-0.085
-0.115
-0.09
-0.125
-0.08
-0.12
-0.085
-0.13
-0.12
-0.165
-0.145
-0.17
-0.155
-0.17
-0.145
-0.105
-0.05
-0.025
0.015
-0.005
0.005
-0.01
-0.005
0.0
0.015
-0.015
0.01
-0.015
0.005
0.0
0.005
-0.005
0.0
-0.015
0.0
-0.01
0.0
-0.015
0.0
-0.025
0.0
-0.025
-0.005
-0.025
-0.02
-0.025
-0.02
-0.035
-0.025
-0.045
-0.03
-0.05
-0.02
-0.04
0.015
0.0
0.025
0.05
-0.03
-0.075
-0.06
-0.05
-0.065
-0.08
-0.065
-0.09
-0.06
-0.095
-0.075
-0.06
-0.065
-0.165
-0.475
-0.135
1.55
1.975
1.25
0.475
-0.095
-0.17
-0.095
-0.105
-0.1
-0.11
-0.095
-0.1
-0.1
-0.11
-0.1
-0.12
-0.11
-0.13
-0.12
-0.145
-0.15
-0.175
-0.16
-0.185
-0.175
-0.18
-0.125
-0.105
-0.03
-0.005
0.01
-0.01
0.025
-0.025
0.0
0.0
0.0
-0.02
-0.02
0.0
0.015
-0.025
-0.01
-0.01
-0.005
-0.02
-0.005
-0.025
-0.005
-0.015
-0.015
-0.045
-0.025
-0.04
-0.025
-0.055
-0.04
-0.045
-0.045
-0.03
-0.045
-0.05
-0.04
-0.025
0.02
0.0
0.025
0.045
-0.025
-0.08
-0.07
-0.05
-0.07
-0.065
-0.065
-0.06
-0.075
-0.075
-0.06
-0.08
-0.055
-0.3
-0.5
0.405
2.255
1.6
0.81
0.2
-0.235
-0.1
-0.08
-0.105
-0.105
-0.105
-0.115
-0.105
-0.11
-0.11
-0.105
-0.12
-0.125
-0.15
-0.135
-0.15
-0.16
-0.175
-0.16
-0.18
-0.155
-0.16
-0.11
-0.065
-0.04
-0.045
-0.02
-0.035
-0.01
-0.025
0.0
-0.02
-0.03
-0.05
-0.025
-0.03
-0.03
-0.055
-0.03
-0.05
-0.02
-0.045
-0.02
-0.05
-0.025
-0.05
-0.03
-0.06
-0.04
-0.065
-0.04
-0.055
-0.04
-0.045
-0.035
-0.06
-0.04
-0.04
0.015
0.0
0.0
0.08
0.0
-0.07
-0.04
-0.055
-0.055
-0.075
-0.05
-0.06
-0.055
-0.065
-0.06
-0.055
-0.055
-0.26
-0.495
0.295
2.155
1.685
0.9
0.265
-0.22
-0.12
-0.1
-0.115
-0.115
-0.11
-0.11
-0.12
-0.105
-0.115
-0.12
-0.14
-0.13
-0.14
-0.14
-0.175
-0.16
-0.195
-0.185
-0.2
-0.185
-0.18
-0.12
-0.09
-0.015
-0.02
-0.005
-0.025
-0.015
-0.045
-0.025
-0.05
-0.015
-0.05
-0.025
-0.045
-0.02
-0.045
-0.02
-0.04
-0.01
-0.04
-0.01
-0.04
-0.025
-0.03
-0.01
-0.045
-0.02
-0.055
-0.03
-0.055
-0.02
-0.065
-0.04
-0.045
0.0
0.005
0.015
0.025
0.075
-0.06
-0.075
-0.085
-0.035
-0.08
-0.055
-0.085
-0.055
-0.08
-0.045
-0.09
-0.05
-0.14
-0.435
-0.19
1.375
2.13
1.205
0.435
-0.105
-0.17
-0.07
-0.095
-0.075
-0.12
-0.075
-0.095
-0.075
-0.11
-0.07
-0.11
-0.08
-0.125
-0.095
-0.14
-0.12
-0.165
-0.14
-0.175
-0.15
-0.165
-0.12
-0.08
-0.02
-0.02
0.005
-0.025
-0.005
-0.025
-0.01
-0.045
-0.01
-0.055
-0.01
-0.035
-0.025
-0.03
-0.015
-0.045
-0.02
-0.03
-0.03
-0.04
-0.025
-0.03
-0.01
-0.05
-0.015
-0.04
-0.025
-0.04
-0.015
-0.04
-0.03
-0.05
-0.02
-0.015
0.04
0.0
0.065
0.065
-0.01
-0.07
-0.055
-0.035
-0.035
-0.06
-0.05
-0.06
-0.045
-0.05
-0.06
-0.065
-0.125
-0.45
-0.2
1.325
2.185
1.205
0.465
-0.12
-0.155
-0.105
-0.09
-0.105
-0.085
-0.11
-0.1
-0.11
-0.12
-0.12
-0.115
-0.125
-0.13
-0.135
-0.13
-0.165
-0.155
-0.18
-0.17
-0.2
-0.165
-0.15
-0.075
-0.045
0.005
-0.02
-0.015
-0.015
0.0
-0.04
0.0
-0.025
0.005
-0.02
-0.01
-0.02
0.005
-0.01
0.005
-0.015
0.0
-0.02
-0.005
-0.01
-0.005
-0.03
-0.01
-0.03
-0.02
-0.025
-0.01
-0.045
-0.005
-0.02
-0.02
-0.025
0.015
0.035
0.01
0.075
0.045
-0.04
-0.045
-0.03
-0.045
-0.055
-0.045
-0.065
-0.06
-0.075
-0.06
-0.065
-0.035
-0.24
-0.51
0.2
2.035
1.71
0.91
0.26
-0.215
-0.115
-0.07
-0.095
-0.08
-0.105
-0.105
-0.115
-0.085
-0.105
-0.12
-0.115
-0.11
-0.13
-0.13
-0.14
-0.155
-0.15
-0.165
-0.185
-0.165
-0.19
-0.105
-0.055
-0.02
-0.015
0.0
-0.025
-0.01
-0.03
-0.025
-0.03
-0.005
-0.02
-0.01
-0.025
-0.005
-0.025
-0.005
-0.02
0.0
-0.04
-0.015
-0.015
-0.025
-0.045
-0.03
-0.05
-0.025
-0.035
-0.03
-0.045
-0.04
-0.045
-0.045
-0.055
-0.025
-0.01
0.02
0.01
0.07
0.05
-0.025
-0.06
-0.065
-0.03
-0.07
-0.045
-0.06
-0.055
-0.05
-0.055
-0.06
-0.055
-0.065
-0.375
-0.42
0.845
2.425
1.375
0.58
0.03
-0.215
-0.095
-0.08
-0.1
-0.095
-0.105
-0.095
-0.09
-0.105
-0.1
-0.115
-0.105
-0.11
-0.115
-0.12
-0.135
-0.14
-0.16
-0.165
-0.185
-0.155
-0.145
-0.07
-0.04
0.015
0.01
0.015
0.0
0.005
-0.01
0.0
-0.025
0.0
-0.01
-0.005
-0.02
0.01
-0.01
0.01
-0.005
0.005
0.0
0.005
-0.005
0.0
-0.005
0.005
-0.02
0.0
-0.02
0.0
-0.035
0.0
-0.015
0.0
-0.02
0.015
-0.01
0.075
0.025
0.055
0.105
0.045
-0.04
0.0
-0.015
0.0
-0.05
-0.01
-0.04
-0.005
-0.045
0.0
-0.04
-0.01
-0.045
-0.355
-0.34
1.045
2.385
1.395
0.58
0.07
-0.16
-0.04
-0.06
-0.035
-0.075
-0.035
-0.065
-0.035
-0.07
-0.04
-0.065
-0.035
-0.09
-0.06
-0.08
-0.075
-0.12
-0.095
-0.14
-0.115
-0.14
-0.09
-0.065
0.02
0.02
0.035
0.025
0.02
0.015
0.015
0.0
0.01
0.005
0.02
-0.01
0.015
0.0
0.025
0.015
0.01
0.0
0.01
-0.005
0.005
-0.005
0.0
-0.015
0.0
-0.005
0.005
0.0
0.0
-0.01
-0.005
-0.035
0.0
-0.02
-0.005
-0.01
0.045
0.015
0.065
0.065
-0.005
-0.04
-0.03
-0.045
-0.045
-0.055
-0.04
-0.05
-0.04
-0.065
-0.045
-0.04
-0.045
-0.165
-0.455
0.035
1.785
1.93
1.035
0.365
-0.185
-0.115
-0.065
-0.085
-0.08
-0.095
-0.095
-0.095
-0.085
-0.085
-0.095
-0.11
-0.095
-0.11
-0.11
-0.13
-0.115
-0.165
-0.155
-0.16
-0.15
-0.16
-0.105
-0.075
-0.02
-0.005
0.01
-0.01
0.0
-0.005
-0.005
-0.03
-0.025
-0.035
-0.015
-0.035
-0.025
-0.035
-0.025
-0.025
-0.025
-0.025
-0.02
-0.02
-0.02
-0.02
-0.02
-0.045
-0.025
-0.045
-0.03
-0.035
-0.04
-0.03
-0.04
-0.04
-0.035
-0.04
-0.02
0.01
0.015
0.02
0.085
0.065
-0.015
-0.035
-0.035
-0.02
-0.025
-0.03
-0.02
-0.01
-0.015
-0.005
-0.005
0.005
-0.01
-0.175
-0.44
0.34
2.195
1.755
0.93
0.34
-0.155
-0.025
-0.015
-0.01
-0.015
-0.03
-0.03
-0.015
-0.04
-0.035
-0.05
-0.04
-0.045
-0.065
-0.075
-0.09
-0.095
-0.125
-0.125
-0.13
-0.145
-0.135
-0.105
-0.06
-0.01
0.02
0.01
-0.01
-0.005
-0.01
-0.005
-0.01
-0.005
0.0
0.0
-0.015
-0.005
-0.01
-0.02
-0.03
-0.005
0.0
-0.01
-0.03
-0.01
-0.02
-0.01
-0.025
-0.03
-0.045
-0.04
-0.05
-0.055
-0.065
-0.045
-0.065
-0.045
-0.08
-0.055
-0.045
-0.005
0.0
0.005
0.055
0.03
-0.055
-0.055
-0.065
-0.035
-0.07
-0.05
-0.07
-0.04
-0.08
-0.05
-0.045
-0.045
-0.06
-0.215
-0.49
0.325
2.15
1.74
0.875
0.285
-0.195
-0.07
-0.055
-0.055
-0.075
-0.07
-0.065
-0.05
-0.075
-0.055
-0.05
-0.07
-0.065
-0.065
-0.08
-0.07
-0.11
-0.105
-0.12
-0.125
-0.135
-0.115
-0.075
-0.03
-0.005
0.0
0.0
-0.02
-0.025
-0.035
-0.04
-0.03
-0.025
-0.03
-0.03
-0.025
-0.02
-0.035
-0.035
-0.015
-0.01
-0.02
-0.03
-0.025
-0.035
-0.035
-0.03
-0.02
-0.04
-0.025
-0.03
-0.03
-0.04
-0.035
-0.05
-0.045
-0.055
-0.045
-0.03
0.025
0.005
0.025
0.065
0.0
-0.075
-0.045
-0.03
-0.035
-0.06
-0.05
-0.045
-0.04
-0.02
-0.035
-0.02
-0.01
-0.095
-0.42
-0.065
1.56
2.155
1.195
0.47
-0.09
-0.1
-0.04
-0.03
-0.055
-0.05
-0.04
-0.04
-0.03
-0.06
-0.07
-0.09
-0.075
-0.07
-0.07
-0.11
-0.125
-0.125
-0.14
-0.16
-0.16
-0.175
-0.12
-0.075
0.0
0.005
-0.02
-0.045
-0.04
-0.05
-0.045
-0.045
-0.04
-0.07
-0.05
-0.02
-0.07
-0.025
-0.025
-0.01
-0.045
-0.06
-0.04
0.0
-0.04
-0.065
-0.04
-0.055
-0.06
-0.045
-0.085
-0.1
-0.05
-0.04
-0.095
-0.05
-0.055
-0.06
-0.065
-0.04
-0.02
0.025
-0.03
-0.055
-0.095
-0.03
-0.025
-0.04
-0.06
-0.035
-0.03
-0.035
-0.015
-0.01
-0.035
-0.055
-0.36
-0.225
0.95
1.81
1.505
0.765
0.19
-0.145
-0.04
-0.02
-0.05
-0.05
-0.09
-0.065
-0.07
-0.06
-0.085
-0.09
-0.105
-0.12
-0.12
-0.13
-0.16
-0.205
-0.205
-0.23
-0.28
-0.265
-0.26
-0.24
-0.15
-0.075
-0.04
-0.01
0.01
0.04
0.025
0.02
0.045
0.04
0.015
0.04
0.015
-0.005
0.0
0.02
0.005
0.03
0.015
0.03
0.0
0.02
0.045
0.02
0.02
0.03
0.01
0.005
-0.015
0.04
0.02
0.03
0.005
-0.01
-0.015
-0.015
0.01
0.005
0.01
0.01
0.035
0.03
0.025
0.01
0.04
0.03
-0.085
-0.4
-0.13
1.485
1.75
1.34
0.675
0.035
-0.03
0.01
0.02
0.01
0.0
0.0
-0.01
-0.035
-0.035
-0.035
-0.065
-0.06
-0.075
-0.105
-0.11
-0.13
-0.165
-0.185
-0.23
-0.235
-0.25
-0.2
-0.11
-0.035
0.015
0.065
0.07
0.07
0.05
0.065
0.06
0.05
0.05
0.06
0.055
0.06
0.04
0.05
0.035
0.045
0.04
0.025
0.02
0.02
-0.005
0.02
0.015
0.005
0.005
0.0
-0.02
0.015
0.005
-0.015
0.02
-0.035
-0.04
-0.06
-0.005
-0.015
-0.02
-0.01
0.0
-0.01
0.01
-0.01
0.02
0.01
-0.18
-0.435
-0.135
1.64
1.745
1.21
0.535
-0.065
-0.065
-0.035
-0.035
-0.05
-0.05
-0.06
-0.09
-0.055
-0.115
-0.09
-0.105
-0.11
-0.16
-0.165
-0.17
-0.215
-0.27
-0.27
-0.345
-0.31
-0.32
-0.28
-0.22
-0.165
-0.08
-0.07
-0.07
-0.05
-0.045
-0.025
-0.035
-0.055
-0.07
-0.05
-0.035
-0.085
-0.075
-0.065
-0.18
-0.1
-0.085
-0.085
-0.085
-0.08
-0.09
-0.055
-0.07
-0.12
-0.1
-0.095
-0.105
-0.12
-0.155
-0.14
-0.125
-0.12
-0.115
-0.09
-0.11
-0.07
-0.09
-0.05
-0.08
-0.02
-0.105
-0.425
-0.485
0.395
1.69
1.55
0.72
0.2
-0.255
-0.06
-0.095
-0.09
-0.12
-0.12
-0.12
-0.145
-0.16
-0.17
-0.185
-0.185
-0.195
-0.18
-0.225
-0.215
-0.24
-0.225
-0.285
-0.23
-0.105
-0.24
-0.26
-0.155
-0.115
-0.06
-0.045
-0.04
-0.215
-0.15
-0.09
-0.015
0.055
0.15
0.135
0.04
0.0
0.0
0.005
-0.025
-0.015
-0.02
-0.07
-0.03
-0.07
-0.015
0.055
0.15
0.115
0.12
0.03
-0.01
-0.025
0.015
-0.015
0.01
0.005
0.01
-0.025
0.0
-0.005
-0.01
-0.05
-0.3
-0.345
0.69
1.695
1.35
0.585
0.065
-0.175
-0.065
-0.075
-0.065
-0.08
-0.085
-0.115
-0.105
-0.12
-0.125
-0.15
-0.145
-0.155
-0.15
-0.195
-0.195
-0.245
-0.25
-0.275
-0.285
-0.32
-0.245
-0.18
-0.095
-0.065
-0.01
-0.01
0.01
0.0
0.015
0.0
0.01
-0.005
-0.005
-0.01
-0.01
-0.005
0.005
0.005
0.02
0.01
0.025
0.01
0.005
-0.01
0.035
0.035
0.045
0.1
0.07
-0.03
-0.015
0.01
0.02
0.015
0.005
0.01
0.01
0.005
0.02
0.035
0.02
-0.205
-0.475
0.125
1.775
1.51
0.815
0.255
-0.145
-0.055
-0.01
-0.04
-0.055
-0.05
-0.05
-0.065
-0.075
-0.09
-0.095
-0.125
-0.125
-0.17
-0.175
-0.23
-0.25
-0.275
-0.285
-0.335
-0.33
-0.305
-0.205
-0.14
-0.04
-0.015
0.015
0.015
0.035
0.025
0.03
0.025
0.03
0.02
0.05
0.04
0.04
0.035
0.05
0.035
0.06
0.06
0.07
0.065
0.075
0.06
0.075
0.065
0.07
0.04
0.095
0.065
0.095
0.115
0.035
0.005
0.03
0.07
0.065
0.055
0.06
0.06
0.07
0.06
0.06
0.065
0.075
-0.225
-0.47
0.31
2.01
1.54
0.78
0.21
-0.105
0.025
0.035
0.01
0.0
0.0
-0.005
-0.02
-0.035
-0.045
-0.05
-0.075
-0.085
-0.12
-0.145
-0.18
-0.205
-0.255
-0.265
-0.325
-0.32
-0.295
-0.195
-0.125
-0.025
0.015
0.065
0.065
0.085
0.075
0.105
0.08
0.1
0.07
0.105
0.085
0.11
0.085
0.125
0.095
0.13
0.1
0.13
0.105
0.135
0.095
0.135
0.11
0.145
0.11
0.125
0.11
0.15
0.085
0.135
0.095
0.1
0.07
0.12
0.12
0.13
0.09
0.145
0.115
0.17
0.13
0.18
0.15
0.19
0.06
-0.26
-0.25
1.04
2.105
1.315
0.535
0.0
-0.04
0.05
-0.005
0.0
-0.05
-0.03
-0.075
-0.055
-0.11
-0.08
-0.135
-0.12
-0.175
-0.16
-0.225
-0.225
-0.285
-0.285
-0.33
-0.325
-0.365
-0.295
-0.245
-0.125
-0.085
-0.015
-0.015
0.015
-0.005
0.02
-0.015
0.0
-0.01
-0.01
-0.035
-0.03
-0.045
-0.015
-0.035
-0.015
-0.03
-0.02
-0.025
-0.015
-0.03
-0.04
-0.04
-0.025
-0.05
-0.07
-0.045
-0.07
-0.075
-0.05
-0.12
-0.095
-0.08
-0.05
-0.075
-0.045
-0.035
-0.05
-0.055
-0.05
-0.04
-0.03
-0.025
-0.03
-0.325
-0.54
0.19
1.865
1.47
0.69
0.125
-0.215
-0.12
-0.08
-0.1
-0.105
-0.12
-0.09
-0.135
-0.135
-0.125
-0.115
-0.15
-0.165
-0.185
-0.18
-0.235
-0.26
-0.31
-0.315
-0.355
-0.34
-0.35
-0.26
-0.195
-0.13
-0.11
-0.08
-0.07
-0.05
-0.05
-0.04
-0.075
-0.025
-0.06
-0.055
-0.06
-0.04
-0.05
-0.045
-0.05
-0.045
-0.07
-0.045
-0.05
-0.04
-0.055
-0.065
-0.09
-0.095
-0.095
-0.075
-0.07
-0.07
-0.15
-0.125
-0.17
-0.095
-0.085
-0.11
-0.115
-0.085
-0.105
-0.085
-0.135
-0.085
-0.1
-0.125
-0.44
-0.37
0.715
1.54
1.145
0.41
-0.16
-0.25
-0.175
-0.11
-0.195
-0.165
-0.18
-0.14
-0.14
-0.195
-0.21
-0.17
-0.185
-0.215
-0.255
-0.24
-0.25
-0.27
-0.375
-0.355
-0.355
-0.375
-0.35
-0.235
-0.175
-0.11
-0.145
-0.065
-0.06
-0.06
-0.035
-0.07
-0.085
-0.05
-0.05
-0.035
-0.105
0.005
-0.05
-0.045
-0.03
-0.01
-0.095
-0.13
-0.175
-0.07
-0.055
-0.015
0.03
0.12
0.12
-0.055
-0.07
-0.055
-0.095
-0.03
-0.04
-0.085
-0.065
0.0
-0.03
-0.005
-0.04
-0.025
-0.055
-0.095
-0.37
-0.11
1.15
1.485
0.995
0.435
-0.12
-0.15
-0.12
-0.055
-0.06
-0.095
-0.1
-0.105
-0.095
-0.065
-0.115
-0.115
-0.165
-0.125
-0.165
-0.175
-0.25
-0.24
-0.29
-0.315
-0.335
-0.3
-0.315
-0.18
-0.1
-0.06
-0.045
-0.025
-0.04
0.005
-0.05
-0.01
-0.035
-0.045
-0.04
0.0
-0.045
-0.01
-0.03
-0.02
-0.03
-0.035
-0.015
-0.04
-0.06
-0.065
-0.06
-0.085
-0.105
-0.065
-0.02
-0.08
-0.105
-0.1
-0.125
-0.155
-0.135
-0.07
-0.125
-0.1
-0.105
-0.09
-0.075
-0.105
-0.105
-0.09
-0.285
-0.455
0.115
1.58
1.345
0.69
0.15
-0.3
-0.175
-0.135
-0.16
-0.145
-0.17
-0.15
-0.155
-0.16
-0.175
-0.17
-0.2
-0.18
-0.2
-0.21
-0.26
-0.26
-0.29
-0.3
-0.315
-0.335
-0.31
-0.22
-0.145
-0.09
-0.075
-0.025
-0.03
-0.015
-0.03
0.0
0.0
-0.035
-0.015
0.0
-0.005
0.0
-0.02
0.01
-0.01
-0.005
-0.03
0.02
-0.005
-0.015
-0.055
-0.005
-0.04
0.005
0.0
0.065
-0.01
-0.055
-0.075
-0.06
-0.015
-0.005
-0.07
-0.015
-0.035
0.0
-0.025
-0.005
-0.025
-0.145
-0.395
0.03
1.395
1.45
0.85
0.28
-0.245
-0.11
-0.09
-0.12
-0.115
-0.12
-0.125
-0.155
-0.145
-0.115
-0.175
-0.155
-0.185
-0.15
-0.235
-0.22
-0.28
-0.29
-0.32
-0.34
-0.35
-0.325
-0.29
-0.16
-0.105
-0.065
-0.035
-0.035
-0.03
-0.015
0.005
0.005
-0.005
-0.015
-0.005
0.02
0.01
0.035
0.005
0.025
0.04
0.03
0.02
0.065
0.03
0.055
0.12
0.13
0.0
0.0
-0.02
0.04
0.0
0.0
-0.015
0.025
0.01
0.02
0.015
0.02
-0.08
-0.31
-0.21
0.875
1.585
1.1
0.435
-0.07
-0.145
-0.065
-0.065
-0.08
-0.1
-0.095
-0.12
-0.105
-0.115
-0.115
-0.165
-0.15
-0.185
-0.175
-0.24
-0.23
-0.28
-0.32
-0.35
-0.345
-0.35
-0.275
-0.185
-0.125
-0.06
-0.01
-0.02
-0.005
-0.005
0.01
-0.01
0.005
0.0
0.005
0.005
0.025
0.015
0.03
0.03
0.03
0.035
0.05
0.045
0.055
0.05
0.045
0.05
0.04
0.06
0.085
0.065
0.14
0.1
0.005
-0.01
0.0
0.025
0.02
0.005
0.005
0.01
0.005
0.01
0.005
0.005
-0.085
-0.38
-0.225
0.955
1.71
1.02
0.38
-0.115
-0.125
-0.06
-0.055
-0.07
-0.08
-0.09
-0.09
-0.1
-0.1
-0.12
-0.125
-0.15
-0.15
-0.17
-0.205
-0.26
-0.28
-0.32
-0.36
-0.385
-0.375
-0.315
-0.23
-0.15
-0.105
-0.08
-0.06
-0.06
-0.05
-0.045
-0.04
-0.045
-0.04
-0.045
-0.035
-0.035
-0.015
-0.035
-0.025
-0.025
-0.015
-0.025
-0.01
-0.025
-0.01
-0.025
-0.005
-0.02
-0.015
-0.01
0.0
-0.03
0.015
0.015
0.015
0.04
0.025
-0.03
-0.01
-0.01
0.025
-0.005
0.02
0.005
0.04
0.015
0.05
0.015
0.045
-0.055
-0.4
-0.27
1.015
2.075
1.19
0.38
-0.105
-0.09
-0.005
-0.055
-0.045
-0.09
-0.08
-0.11
-0.09
-0.125
-0.13
-0.16
-0.15
-0.195
-0.215
-0.275
-0.29
-0.34
-0.37
-0.435
-0.44
-0.445
-0.39
-0.295
-0.205
-0.145
-0.085
-0.075
-0.06
-0.055
-0.035
-0.04
-0.045
-0.045
-0.035
-0.035
-0.035
-0.04
-0.025
-0.04
-0.015
-0.035
-0.005
-0.025
-0.01
-0.02
-0.015
-0.025
-0.015
-0.02
-0.005
-0.035
-0.04
-0.02
-0.035
-0.01
0.015
-0.035
-0.055
-0.09
-0.015
-0.05
-0.03
-0.09
-0.125
-0.095
-0.08
-0.045
-0.04
-0.02
-0.155
-0.495
-0.18
1.485
1.65
0.955
0.315
-0.23
-0.16
-0.12
-0.125
-0.15
-0.14
-0.17
-0.15
-0.17
-0.175
-0.18
-0.195
-0.215
-0.215
-0.26
-0.285
-0.33
-0.335
-0.39
-0.41
-0.445
-0.44
-0.365
-0.27
-0.215
-0.16
-0.115
-0.11
-0.115
-0.105
-0.105
-0.08
-0.105
-0.11
-0.12
-0.09
-0.125
-0.135
-0.105
-0.115
-0.115
-0.12
-0.125
-0.135
-0.145
-0.13
-0.135
-0.15
-0.13
-0.125
-0.15
-0.115
-0.03
-0.02
-0.03
-0.115
-0.19
-0.18
-0.15
-0.165
-0.16
-0.14
-0.155
-0.16
-0.135
-0.125
-0.115
-0.145
-0.245
-0.495
-0.25
1.165
1.4
0.975
0.355
-0.25
-0.14
-0.105
-0.05
-0.125
-0.13
-0.17
-0.14
-0.165
-0.215
-0.255
-0.205
-0.13
-0.145
-0.185
-0.255
-0.285
-0.295
-0.345
-0.37
-0.415
-0.38
-0.305
-0.22
-0.16
-0.1
-0.07
-0.06
-0.04
-0.045
-0.015
-0.02
-0.015
0.0
-0.02
0.0
0.005
0.025
0.01
0.025
0.03
0.03
0.01
0.015
0.005
0.015
-0.005
0.03
0.01
0.0
0.02
0.05
0.05
0.05
-0.01
-0.01
-0.05
-0.01
-0.005
0.0
-0.02
0.01
-0.005
0.015
-0.005
0.02
-0.01
-0.25
-0.335
0.63
2.07
1.24
0.515
0.03
-0.255
-0.055
-0.065
-0.045
-0.075
-0.06
-0.085
-0.06
-0.075
-0.07
-0.09
-0.09
-0.11
-0.09
-0.145
-0.135
-0.155
-0.165
-0.18
-0.175
-0.175
-0.13
-0.095
-0.03
-0.02
-0.01
-0.02
0.005
-0.015
-0.01
-0.01
0.0
-0.01
0.0
0.0
0.005
0.0
0.01
0.0
0.02
0.05
0.03
0.015
0.015
0.0
0.025
0.0
0.01
0.025
0.05
0.035
0.09
0.005
-0.01
-0.05
0.025
-0.02
0.005
-0.02
0.015
-0.015
0.01
0.0
0.025
-0.005
-0.175
-0.44
0.28
1.985
1.365
0.695
0.155
-0.185
-0.045
-0.04
-0.035
-0.06
-0.035
-0.09
-0.065
-0.1
-0.08
-0.11
-0.105
-0.14
-0.155
-0.185
-0.205
-0.265
-0.28
-0.315
-0.34
-0.35
-0.32
-0.26
-0.14
-0.105
-0.045
-0.03
-0.005
-0.015
0.0
-0.005
0.01
0.0
0.015
0.005
0.025
0.01
0.01
0.01
0.02
0.01
0.025
0.01
0.02
0.01
0.025
0.005
0.03
0.02
0.035
0.01
0.025
0.005
0.035
0.02
0.04
0.03
0.03
0.06
0.07
-0.02
-0.005
-0.015
0.045
0.005
0.035
0.0
0.03
0.0
0.04
0.005
0.04
-0.01
-0.265
-0.52
0.29
2.01
1.415
0.665
0.08
-0.18
-0.02
-0.04
-0.035
-0.08
-0.05
-0.09
-0.07
-0.11
-0.09
-0.125
-0.125
-0.17
-0.16
-0.21
-0.225
-0.295
-0.31
-0.355
-0.375
-0.39
-0.36
-0.3
-0.18
-0.1
-0.025
-0.005
0.025
0.025
0.04
0.03
0.03
0.02
0.025
0.025
0.035
0.01
0.025
0.03
0.025
0.02
0.02
0.025
0.035
0.035
0.035
0.03
0.03
0.035
0.035
0.03
0.03
0.03
0.03
0.045
0.015
0.065
0.03
0.06
0.055
0.01
-0.005
-0.005
0.035
0.04
0.02
0.035
0.02
0.045
0.035
0.055
0.035
0.055
0.01
-0.3
-0.52
0.405
2.095
1.48
0.655
0.005
-0.13
0.0
-0.03
-0.03
-0.06
-0.06
-0.08
-0.08
-0.105
-0.1
-0.125
-0.145
-0.17
-0.2
-0.24
-0.275
-0.32
-0.36
-0.405
-0.445
-0.45
-0.425
-0.345
-0.23
-0.13
-0.065
-0.02
-0.01
0.005
0.005
0.005
0.0
0.01
0.005
0.02
0.005
0.01
0.0
0.015
0.005
0.01
0.0
0.01
0.0
0.02
0.01
0.015
0.0
0.02
0.01
0.0
0.0
0.005
0.005
0.0
0.0
-0.005
0.015
-0.015
0.025
0.02
-0.025
-0.035
-0.04
0.02
0.005
0.005
0.01
0.01
0.0
0.015
0.025
0.02
0.01
-0.1
-0.485
-0.38
1.06
1.965
1.18
0.41
-0.155
-0.095
-0.025
-0.05
-0.06
-0.07
-0.075
-0.085
-0.11
-0.11
-0.13
-0.14
-0.17
-0.185
-0.225
-0.255
-0.305
-0.335
-0.395
-0.425
-0.465
-0.465
-0.435
-0.32
-0.215
-0.115
-0.06
-0.02
-0.005
0.0
0.01
0.02
0.005
0.015
0.015
0.015
0.0
0.0
0.0
0.0
-0.005
0.0
-0.01
0.0
-0.01
-0.005
-0.005
-0.005
-0.015
-0.01
-0.01
-0.005
-0.02
-0.01
-0.02
-0.025
-0.01
-0.02
-0.025
0.0
-0.045
0.015
-0.015
-0.065
-0.065
-0.05
-0.005
-0.025
-0.01
-0.015
-0.01
-0.015
-0.005
0.0
0.0
-0.005
-0.195
-0.58
-0.295
1.59
1.755
0.985
0.3
-0.205
-0.115
-0.05
-0.065
-0.075
-0.09
-0.085
-0.105
-0.115
-0.125
-0.14
-0.16
-0.17
-0.21
-0.245
-0.275
-0.3
-0.37
-0.385
-0.44
-0.465
-0.475
-0.425
-0.34
-0.225
-0.135
-0.07
-0.055
-0.025
-0.04
-0.035
-0.04
-0.025
-0.045
-0.03
-0.055
-0.055
-0.055
-0.05
-0.06
-0.045
-0.07
-0.055
-0.07
-0.045
-0.08
-0.06
-0.085
-0.085
-0.08
-0.065
-0.09
-0.075
-0.105
-0.085
-0.085
-0.095
-0.07
-0.07
-0.09
-0.05
-0.12
-0.12
-0.13
-0.075
-0.1
-0.08
-0.105
-0.065
-0.08
-0.065
-0.07
-0.045
-0.085
-0.155
-0.5
-0.47
0.84
1.67
1.205
0.505
-0.1
-0.19
-0.125
-0.09
-0.125
-0.125
-0.145
-0.12
-0.17
-0.17
-0.165
-0.185
-0.21
-0.21
-0.275
-0.29
-0.35
-0.365
-0.435
-0.45
-0.505
-0.515
-0.46
-0.36
-0.27
-0.17
-0.15
-0.105
-0.085
-0.045
-0.07
-0.075
-0.08
-0.06
-0.06
-0.065
-0.065
-0.07
-0.095
-0.065
-0.07
-0.065
-0.07
-0.075
-0.08
-0.06
-0.085
-0.065
-0.095
-0.05
-0.1
-0.06
-0.075
-0.065
-0.07
-0.07
-0.075
-0.01
-0.04
0.005
-0.065
-0.09
-0.09
-0.04
-0.07
-0.03
-0.1
-0.01
-0.075
-0.055
-0.055
-0.045
-0.065
-0.145
-0.48
-0.335
1.09
1.55
1.085
0.425
-0.135
-0.125
-0.1
-0.08
-0.105
-0.085
-0.125
-0.115
-0.115
-0.125
-0.145
-0.145
-0.16
-0.155
-0.22
-0.225
-0.28
-0.285
-0.355
-0.34
-0.405
-0.39
-0.355
-0.235
-0.165
-0.095
-0.04
-0.035
-0.04
-0.01
-0.035
0.015
-0.005
0.005
-0.015
0.005
-0.01
-0.01
-0.015
0.015
-0.035
-0.005
-0.03
-0.01
-0.03
-0.015
-0.04
-0.005
-0.04
-0.015
-0.025
0.0
-0.045
-0.015
-0.03
-0.025
-0.005
0.04
0.01
0.055
0.01
0.0
-0.04
0.0
0.0
0.0
-0.02
0.015
-0.025
0.035
-0.015
0.01
-0.015
-0.16
-0.46
-0.04
1.505
1.515
0.88
0.31
-0.195
-0.07
-0.07
-0.06
-0.09
-0.08
-0.11
-0.1
-0.115
-0.105
-0.135
-0.14
-0.175
-0.165
-0.205
-0.21
-0.265
-0.28
-0.34
-0.36
-0.375
-0.35
-0.305
-0.205
-0.14
-0.065
-0.04
-0.01
-0.035
0.0
-0.015
0.005
-0.01
0.015
-0.01
0.0
0.0
0.005
-0.015
0.005
-0.01
0.005
-0.005
0.015
-0.005
0.005
-0.015
0.01
0.0
0.0
-0.015
0.0
-0.01
-0.005
-0.025
-0.005
-0.01
0.0
0.01
0.01
0.025
0.045
0.01
-0.02
-0.055
-0.02
-0.02
0.0
-0.015
-0.005
-0.01
0.005
0.0
0.015
0.0
-0.035
-0.325
-0.315
0.74
1.72
1.2
0.485
-0.05
-0.145
-0.055
-0.015
-0.025
-0.005
0.005
0.035
-0.03
-0.05
-0.095
-0.125
-0.16
-0.18
-0.215
-0.195
-0.2
-0.205
-0.27
-0.315
-0.36
-0.345
-0.335
-0.22
-0.145
-0.055
-0.03
0.0
-0.005
0.01
0.0
0.015
0.005
0.015
0.005
0.015
0.015
0.025
0.0
0.02
0.005
0.015
0.0
0.01
0.0
0.015
0.005
0.015
0.005
0.015
0.0
0.01
0.0
0.015
0.0
0.02
0.005
0.015
0.005
0.02
0.01
0.02
0.045
0.04
0.055
0.07
0.0
-0.005
-0.015
0.035
0.025
0.03
0.03
0.03
0.03
0.025
0.025
0.04
0.04
-0.025
-0.34
-0.3
0.83
1.855
1.18
0.53
-0.02
-0.08
0.0
-0.01
-0.03
-0.035
-0.055
-0.05
-0.065
-0.075
-0.1
-0.095
-0.13
-0.14
-0.17
-0.19
-0.235
-0.27
-0.315
-0.35
-0.38
-0.38
-0.35
-0.255
-0.17
-0.075
-0.045
0.0
0.0
0.025
0.005
0.03
0.02
0.025
0.01
0.03
0.015
0.025
0.005
0.03
0.01
0.02
0.0
0.02
0.0
0.025
0.0
0.015
0.01
0.02
0.01
0.02
0.01
0.015
0.005
0.015
0.01
0.02
0.015
0.025
0.03
0.015
0.045
0.025
0.055
0.065
0.0
-0.015
-0.02
0.025
0.01
0.01
0.02
0.01
0.02
0.02
0.03
0.02
0.035
-0.01
-0.33
-0.42
0.585
2.045
1.355
0.605
0.01
-0.095
0.005
-0.015
-0.02
-0.03
-0.03
-0.05
-0.055
-0.06
-0.07
-0.095
-0.11
-0.14
-0.155
-0.2
-0.24
-0.285
-0.33
-0.36
-0.405
-0.4
-0.38
-0.29
-0.195
-0.085
-0.03
0.02
0.03
0.05
0.04
0.05
0.035
0.05
0.025
0.045
0.025
0.045
0.025
0.03
0.015
0.035
0.02
0.03
0.025
0.03
0.035
0.035
0.015
0.025
0.02
0.025
0.025
0.025
0.025
0.025
0.02
0.025
0.02
0.03
0.03
0.025
0.055
0.05
0.025
0.085
0.06
0.005
0.0
0.03
0.055
0.04
0.045
0.045
0.055
0.045
0.065
0.045
0.06
0.03
-0.255
-0.535
0.295
2.125
1.575
0.735
0.075
-0.12
0.005
-0.01
-0.025
-0.045
-0.05
-0.07
-0.07
-0.09
-0.105
-0.13
-0.125
-0.165
-0.195
-0.225
-0.265
-0.31
-0.365
-0.405
-0.445
-0.46
-0.45
-0.375
-0.265
-0.15
-0.075
-0.015
0.0
0.025
0.025
0.035
0.03
0.04
0.03
0.04
0.02
0.03
0.015
0.035
0.02
0.03
0.015
0.03
0.01
0.03
0.015
0.04
0.02
0.035
0.01
0.04
0.025
0.04
0.02
0.035
0.02
0.045
0.03
0.045
0.035
0.05
0.055
0.035
0.07
0.08
0.0
0.015
-0.005
0.075
0.045
0.065
0.045
0.08
0.05
0.08
0.065
0.085
0.065
-0.12
-0.53
-0.09
1.735
1.92
1.035
0.315
-0.13
0.0
0.015
0.005
-0.015
-0.01
-0.035
-0.03
-0.065
-0.06
-0.09
-0.09
-0.135
-0.15
-0.2
-0.225
-0.29
-0.33
-0.395
-0.425
-0.47
-0.465
-0.43
-0.315
-0.21
-0.105
-0.055
-0.005
0.0
0.02
0.035
0.02
0.035
0.025
0.035
0.02
0.03
0.015
0.03
0.02
0.035
0.02
0.04
0.025
0.03
0.02
0.035
0.025
0.025
0.015
0.015
0.0
0.065
-0.01
-0.08
-0.02
0.005
0.035
0.045
0.035
0.055
0.045
0.06
0.045
0.055
0.04
0.055
-0.145
-0.615
-0.58
1.22
2.185
1.41
0.51
-0.08
-0.03
0.005
-0.045
-0.045
-0.07
-0.07
-0.085
-0.095
-0.125
-0.13
-0.17
-0.185
-0.225
-0.255
-0.32
-0.36
-0.425
-0.47
-0.515
-0.515
-0.515
-0.445
-0.34
-0.21
-0.12
-0.04
-0.005
0.02
0.02
0.035
0.03
0.035
0.02
0.025
0.015
0.025
0.01
0.015
0.01
0.02
0.005
0.02
0.01
0.025
0.015
0.025
0.01
0.025
0.02
0.03
0.02
0.04
0.015
0.03
-0.01
0.07
0.05
0.0
-0.03
0.02
0.03
0.065
0.045
0.06
0.05
0.07
0.05
0.07
0.05
0.065
0.045
-0.205
-0.72
-0.375
1.745
2.17
1.215
0.41
-0.095
0.005
-0.005
-0.03
-0.055
-0.055
-0.08
-0.07
-0.1
-0.1
-0.13
-0.135
-0.18
-0.2
-0.26
-0.295
-0.35
-0.39
-0.445
-0.475
-0.505
-0.48
-0.42
-0.3
-0.195
-0.085
-0.03
0.015
0.015
0.04
0.035
0.04
0.045
0.05
0.035
0.035
0.03
0.035
0.03
0.03
0.035
0.05
0.04
0.04
0.04
0.04
0.035
0.035
0.035
0.04
0.035
0.025
0.02
-0.005
0.04
0.055
-0.025
-0.035
0.0
0.04
0.05
0.06
0.06
0.055
0.065
0.06
0.06
0.05
0.06
0.055
-0.2
-0.695
-0.45
1.625
2.17
1.265
0.435
-0.095
0.0
0.01
-0.025
-0.045
-0.055
-0.07
-0.08
-0.085
-0.1
-0.125
-0.15
-0.175
-0.215
-0.265
-0.305
-0.35
-0.4
-0.44
-0.48
-0.5
-0.485
-0.41
-0.3
-0.175
-0.095
-0.03
0.0
0.02
0.035
0.04
0.035
0.035
0.04
0.045
0.04
0.045
0.04
0.045
0.04
0.05
0.05
0.05
0.04
0.04
0.045
0.05
0.04
0.04
0.04
0.04
0.035
0.035
0.025
0.015
0.075
0.0
-0.03
0.0
0.005
0.05
0.045
0.045
0.06
0.06
0.065
0.06
0.07
0.065
0.085
-0.045
-0.49
-0.685
0.73
2.255
1.605
0.655
-0.005
-0.025
0.025
-0.025
-0.04
-0.065
-0.07
-0.085
-0.085
-0.12
-0.135
-0.16
-0.18
-0.215
-0.25
-0.29
-0.345
-0.4
-0.44
-0.48
-0.5
-0.505
-0.455
-0.355
-0.22
-0.12
-0.045
0.01
0.04
0.045
0.05
0.055
0.06
0.055
0.055
0.05
0.04
0.04
0.045
0.05
0.04
0.035
0.035
0.035
0.04
0.025
0.03
0.03
0.04
0.03
0.03
0.015
0.02
-0.01
0.07
-0.005
-0.05
0.0
0.01
0.05
0.06
0.045
0.065
0.065
0.075
0.06
0.075
0.055
0.075
-0.02
-0.445
-0.755
0.425
2.25
1.735
0.725
0.05
-0.055
0.02
-0.03
-0.04
-0.065
-0.06
-0.085
-0.08
-0.115
-0.125
-0.16
-0.165
-0.21
-0.235
-0.295
-0.335
-0.395
-0.435
-0.485
-0.51
-0.525
-0.475
-0.375
-0.24
-0.135
-0.055
-0.01
0.02
0.035
0.04
0.035
0.025
0.01
0.02
0.02
0.025
0.02
0.035
0.03
0.035
0.025
0.03
0.03
0.025
0.015
0.02
0.015
0.03
0.02
0.025
0.015
0.015
-0.01
0.03
0.05
-0.025
-0.04
0.0
0.02
0.04
0.03
0.04
0.03
0.055
0.045
0.06
0.04
0.05
0.03
-0.23
-0.76
-0.415
1.725
2.11
1.165
0.355
-0.14
-0.02
-0.025
-0.05
-0.08
-0.08
-0.11
-0.105
-0.135
-0.145
-0.175
-0.195
-0.23
-0.255
-0.3
-0.34
-0.4
-0.445
-0.49
-0.52
-0.545
-0.525
-0.465
-0.345
-0.225
-0.125
-0.065
-0.025
-0.005
0.0
0.005
0.0
0.0
0.005
0.0
0.0
-0.005
0.0
-0.005
0.0
-0.005
-0.005
-0.005
0.0
-0.01
0.0
0.0
0.0
0.0
0.0
-0.005
-0.01
-0.025
0.01
0.045
-0.04
-0.06
-0.015
0.005
0.035
0.025
0.035
0.035
0.05
0.05
0.05
0.04
0.05
0.045
-0.145
-0.635
-0.555
1.275
2.18
1.37
0.495
-0.1
-0.015
0.01
-0.03
-0.05
-0.065
-0.075
-0.085
-0.105
-0.125
-0.14
-0.165
-0.205
-0.235
-0.28
-0.315
-0.38
-0.425
-0.48
-0.51
-0.54
-0.525
-0.47
-0.355
-0.235
-0.125
-0.06
-0.02
0.0
0.015
0.02
0.03
0.025
0.025
0.025
0.025
0.02
0.025
0.025
0.025
0.02
0.015
0.02
0.02
0.02
0.015
0.025
0.025
0.035
0.025
0.03
0.02
0.02
-0.025
0.07
0.03
-0.03
-0.015
0.0
0.045
0.05
0.045
0.06
0.055
0.075
0.07
0.08
0.065
0.075
0.045
-0.265
-0.77
-0.265
1.97
2.085
1.06
0.285
-0.115
0.0
-0.02
-0.04
-0.055
-0.06
-0.085
-0.09
-0.11
-0.12
-0.145
-0.17
-0.2
-0.24
-0.285
-0.335
-0.395
-0.445
-0.49
-0.53
-0.545
-0.53
-0.455
-0.33
-0.205
-0.11
-0.045
-0.01
0.005
0.005
0.015
0.015
0.015
0.01
0.02
0.015
0.015
0.015
0.025
0.01
0.01
0.01
0.025
0.005
0.02
0.015
0.025
0.01
0.03
0.01
0.035
0.02
0.05
0.02
0.05
0.0
0.045
0.045
0.0
-0.02
-0.01
0.045
0.055
0.03
0.06
0.04
0.07
0.04
0.065
0.045
0.07
-0.065
-0.495
-0.695
0.725
2.26
1.6
0.62
-0.02
-0.045
0.025
-0.035
-0.03
-0.07
-0.065
-0.095
-0.085
-0.12
-0.12
-0.16
-0.175
-0.22
-0.24
-0.305
-0.335
-0.4
-0.43
-0.495
-0.505
-0.525
-0.465
-0.375
-0.23
-0.13
-0.04
0.0
0.025
0.025
0.04
0.04
0.045
0.04
0.05
0.035
0.05
0.03
0.035
0.015
0.03
0.015
0.03
0.015
0.035
0.025
0.035
0.025
0.04
0.025
0.04
0.03
0.05
0.015
0.045
-0.005
0.045
0.03
-0.005
-0.035
-0.01
0.035
0.05
0.025
0.06
0.035
0.07
0.035
0.07
0.04
0.07
-0.035
-0.425
-0.76
0.395
2.275
1.75
0.705
0.03
-0.065
0.025
-0.04
-0.035
-0.075
-0.055
-0.09
-0.08
-0.12
-0.115
-0.165
-0.17
-0.225
-0.235
-0.305
-0.33
-0.405
-0.44
-0.495
-0.52
-0.55
-0.495
-0.42
-0.27
-0.175
-0.07
-0.03
0.005
0.005
0.025
0.015
0.025
0.02
0.03
0.02
0.03
0.015
0.03
0.02
0.02
0.005
0.015
0.01
0.015
0.015
0.02
0.015
0.025
0.02
0.02
0.025
0.02
0.02
0.01
0.015
-0.01
0.02
0.03
-0.02
-0.025
-0.025
0.04
0.05
0.04
0.06
0.055
0.07
0.055
0.07
0.055
0.07
-0.02
-0.44
-0.735
0.4
2.29
1.765
0.725
0.03
-0.035
0.035
-0.01
-0.035
-0.055
-0.06
-0.075
-0.085
-0.11
-0.13
-0.15
-0.175
-0.21
-0.235
-0.28
-0.33
-0.385
-0.44
-0.485
-0.52
-0.525
-0.505
-0.395
-0.27
-0.145
-0.07
-0.01
0.01
0.04
0.045
0.055
0.05
0.06
0.04
0.055
0.045
0.05
0.04
0.045
0.03
0.035
0.025
0.035
0.025
0.03
0.02
0.03
0.025
0.035
0.02
0.035
0.025
0.02
0.025
0.025
0.015
0.005
-0.02
0.03
0.0
-0.04
-0.045
0.0
0.03
0.045
0.025
0.035
0.03
0.04
0.035
0.035
0.035
0.03
-0.195
-0.68
-0.535
1.46
2.16
1.27
0.425
-0.14
-0.07
-0.025
-0.08
-0.09
-0.11
-0.11
-0.135
-0.135
-0.16
-0.175
-0.21
-0.22
-0.27
-0.29
-0.345
-0.375
-0.44
-0.485
-0.535
-0.53
-0.55
-0.495
-0.41
-0.275
-0.185
-0.095
-0.055
-0.015
-0.03
0.0
-0.01
0.0
-0.01
-0.01
-0.025
-0.005
-0.03
-0.015
-0.03
-0.015
-0.045
-0.02
-0.045
-0.035
-0.05
-0.03
-0.05
-0.035
-0.05
-0.035
-0.05
-0.055
-0.07
-0.045
-0.035
-0.115
-0.105
-0.07
-0.065
-0.035
-0.055
-0.03
-0.055
-0.03
-0.06
-0.045
-0.06
-0.035
-0.055
-0.17
-0.625
-0.75
0.775
1.89
1.455
0.595
-0.14
-0.195
-0.145
-0.135
-0.165
-0.18
-0.195
-0.2
-0.23
-0.215
-0.25
-0.25
-0.275
-0.31
-0.355
-0.365
-0.435
-0.46
-0.535
-0.545
-0.6
-0.555
-0.55
-0.425
-0.325
-0.215
-0.155
-0.1
-0.085
-0.065
-0.065
-0.055
-0.045
-0.045
-0.05
-0.035
-0.065
-0.055
-0.065
-0.055
-0.065
-0.055
-0.07
-0.075
-0.07
-0.055
-0.095
-0.06
-0.1
-0.07
-0.105
-0.07
-0.04
-0.01
-0.055
-0.12
-0.09
-0.085
-0.07
-0.06
-0.075
-0.065
-0.08
-0.06
-0.075
-0.055
-0.07
-0.07
-0.17
-0.515
-0.66
0.625
1.74
1.435
0.62
-0.02
-0.245
-0.13
-0.16
-0.165
-0.19
-0.19
-0.21
-0.205
-0.225
-0.23
-0.26
-0.27
-0.3
-0.32
-0.385
-0.4
-0.475
-0.505
-0.54
-0.545
-0.55
-0.46
-0.38
-0.27
-0.195
-0.14
-0.12
-0.08
-0.09
-0.07
-0.07
-0.055
-0.065
-0.05
-0.06
-0.045
-0.07
-0.055
-0.07
-0.045
-0.065
-0.04
-0.065
-0.045
-0.065
-0.03
-0.065
-0.045
-0.075
-0.055
-0.045
0.025
0.025
0.005
-0.07
-0.04
-0.085
-0.015
-0.045
-0.02
-0.045
-0.01
-0.035
-0.01
-0.05
-0.01
-0.05
-0.29
-0.65
-0.06
1.755
1.635
0.9
0.25
-0.18
-0.065
-0.065
-0.06
-0.1
-0.08
-0.105
-0.085
-0.125
-0.115
-0.165
-0.16
-0.205
-0.21
-0.28
-0.285
-0.35
-0.375
-0.43
-0.425
-0.455
-0.39
-0.33
-0.2
-0.13
-0.045
-0.025
0.005
0.0
0.015
0.0
0.015
0.0
0.015
0.005
0.035
0.01
0.04
0.03
0.04
0.015
0.035
0.02
0.05
0.025
0.05
0.02
0.055
0.02
0.06
0.015
0.075
0.05
0.06
0.085
0.085
-0.01
0.02
0.025
0.085
0.04
0.07
0.035
0.09
0.045
0.095
0.055
0.105
0.015
-0.29
-0.53
0.36
2.195
1.67
0.74
0.14
-0.04
0.09
0.015
0.04
-0.005
0.015
-0.03
0.0
-0.05
-0.03
-0.075
-0.06
-0.12
-0.12
-0.2
-0.21
-0.285
-0.295
-0.36
-0.355
-0.38
-0.31
-0.24
-0.11
-0.045
0.03
0.045
0.075
0.065
0.09
0.07
0.095
0.075
0.095
0.08
0.1
0.09
0.11
0.09
0.105
0.095
0.11
0.085
0.095
0.08
0.095
0.075
0.1
0.075
0.095
0.075
0.095
0.07
0.08
0.075
0.08
0.04
0.11
0.045
0.035
-0.005
0.065
0.075
0.1
0.065
0.095
0.07
0.1
0.085
0.12
0.105
0.13
-0.045
-0.46
-0.33
1.14
2.205
1.455
0.49
-0.015
0.025
0.07
0.0
0.01
-0.015
-0.005
-0.04
-0.03
-0.065
-0.05
-0.105
-0.1
-0.15
-0.165
-0.225
-0.255
-0.33
-0.355
-0.42
-0.435
-0.46
-0.375
-0.295
-0.155
-0.07
0.02
0.025
0.07
0.055
0.09
0.06
0.08
0.05
0.075
0.055
0.065
0.05
0.06
0.04
0.045
0.035
0.05
0.04
0.045
0.03
0.05
0.03
0.05
0.04
0.03
0.025
0.035
0.025
0.035
0.03
0.015
0.015
0.0
0.03
0.02
-0.04
-0.03
-0.01
0.055
0.04
0.04
0.05
0.045
0.05
0.045
0.045
0.045
0.055
0.06
-0.175
-0.615
-0.385
1.655
2.02
1.21
0.4
-0.135
-0.05
0.0
-0.04
-0.04
-0.05
-0.055
-0.09
-0.085
-0.11
-0.12
-0.15
-0.175
-0.205
-0.22
-0.285
-0.315
-0.385
-0.415
-0.455
-0.48
-0.48
-0.41
-0.31
-0.19
-0.125
-0.03
-0.015
0.01
-0.005
0.025
0.015
0.025
0.025
0.035
0.035
0.035
0.005
0.025
0.015
0.04
0.005
0.025
0.0
0.015
0.0
0.02
0.01
0.015
0.0
0.005
-0.01
0.005
-0.03
0.01
-0.05
0.0
-0.025
-0.055
-0.075
-0.03
-0.01
0.01
-0.02
0.01
0.0
0.03
0.0
0.04
-0.01
0.015
0.0
-0.14
-0.56
-0.465
1.245
1.875
1.305
0.535
-0.12
-0.115
-0.075
-0.06
-0.1
-0.085
-0.105
-0.1
-0.13
-0.12
-0.16
-0.15
-0.195
-0.195
-0.26
-0.265
-0.335
-0.355
-0.42
-0.455
-0.495
-0.475
-0.435
-0.32
-0.22
-0.12
-0.085
-0.035
-0.035
-0.015
-0.02
-0.005
-0.01
0.005
-0.005
0.015
-0.005
0.0
-0.015
0.0
-0.015
-0.015
-0.04
-0.025
-0.04
-0.02
-0.04
-0.02
-0.045
-0.02
-0.04
-0.02
-0.045
-0.05
-0.015
0.005
-0.015
-0.045
-0.06
-0.05
-0.025
-0.01
-0.015
-0.005
-0.02
0.005
-0.005
0.0
-0.01
0.005
0.005
-0.115
-0.505
-0.355
1.05
1.885
1.26
0.5
-0.07
-0.1
-0.04
-0.035
-0.065
-0.065
-0.07
-0.06
-0.09
-0.095
-0.115
-0.125
-0.16
-0.175
-0.215
-0.245
-0.29
-0.31
-0.36
-0.385
-0.425
-0.395
-0.355
-0.245
-0.16
-0.065
-0.025
0.0
0.0
0.015
0.005
0.02
0.01
0.03
0.02
0.035
0.02
0.035
0.025
0.035
0.015
0.035
0.025
0.04
0.02
0.055
0.03
0.055
0.03
0.065
0.035
0.05
0.03
0.055
0.03
0.065
0.04
0.04
0.07
0.065
0.0
0.0
0.015
0.07
0.035
0.06
0.045
0.075
0.04
0.07
0.05
0.08
0.045
-0.165
-0.595
-0.055
1.835
1.885
1.055
0.325
-0.11
0.03
0.025
0.02
-0.01
0.0
-0.025
0.0
-0.04
-0.03
-0.065
-0.05
-0.095
-0.105
-0.16
-0.185
-0.255
-0.285
-0.345
-0.355
-0.385
-0.355
-0.305
-0.19
-0.1
-0.01
0.015
0.055
0.05
0.07
0.06
0.075
0.06
0.08
0.065
0.08
0.07
0.09
0.07
0.08
0.06
0.075
0.06
0.07
0.055
0.07
0.06
0.08
0.05
0.08
0.055
0.085
0.06
0.095
0.035
0.09
0.03
0.08
0.06
0.05
-0.02
0.0
0.025
0.065
0.025
0.07
0.035
0.08
0.035
0.085
0.055
0.1
0.005
-0.32
-0.59
0.33
2.315
1.735
0.73
0.085
-0.045
0.075
0.0
0.01
-0.035
-0.005
-0.05
-0.025
-0.075
-0.06
-0.11
-0.105
-0.155
-0.155
-0.225
-0.25
-0.325
-0.35
-0.415
-0.43
-0.455
-0.4
-0.34
-0.2
-0.105
-0.015
0.005
0.05
0.05
0.065
0.055
0.07
0.06
0.07
0.065
0.085
0.07
0.085
0.07
0.075
0.07
0.08
0.06
0.075
0.055
0.075
0.06
0.09
0.065
0.08
0.06
0.085
0.065
0.09
0.055
0.09
0.035
0.09
0.075
0.055
0.005
0.025
0.07
0.1
0.07
0.11
0.085
0.125
0.09
0.125
0.095
0.12
0.01
-0.355
-0.57
0.58
2.3
1.69
0.715
0.045
-0.02
0.065
-0.005
0.005
-0.025
-0.015
-0.055
-0.04
-0.08
-0.07
-0.12
-0.125
-0.175
-0.185
-0.245
-0.28
-0.355
-0.38
-0.455
-0.46
-0.495
-0.45
-0.365
-0.245
-0.14
-0.055
-0.005
0.025
0.03
0.05
0.025
0.035
0.03
0.05
0.035
0.05
0.035
0.03
0.025
0.05
0.015
0.025
0.0
0.035
0.005
0.02
0.01
0.025
0.015
0.025
0.0
0.035
0.005
0.035
-0.025
0.02
0.035
0.01
-0.035
-0.02
0.005
0.035
0.01
0.04
0.005
0.04
0.01
0.045
0.01
0.035
-0.01
-0.34
-0.755
-0.12
2.015
1.925
0.95
0.235
-0.19
-0.05
-0.045
-0.06
-0.09
-0.075
-0.11
-0.115
-0.15
-0.135
-0.17
-0.175
-0.205
-0.225
-0.29
-0.31
-0.365
-0.395
-0.455
-0.475
-0.51
-0.47
-0.41
-0.285
-0.175
-0.09
-0.06
-0.03
-0.015
0.005
0.01
0.01
0.015
0.01
0.01
0.01
0.01
0.0
-0.02
-0.01
-0.01
-0.01
-0.015
-0.015
-0.03
-0.035
-0.01
-0.01
-0.03
-0.035
-0.01
-0.035
-0.03
0.0
0.015
0.0
-0.05
-0.055
-0.03
-0.015
0.0
-0.04
-0.015
-0.03
0.0
-0.02
-0.015
-0.035
-0.015
-0.04
-0.305
-0.69
-0.295
1.765
1.81
1.02
0.335
-0.23
-0.11
-0.075
-0.085
-0.1
-0.11
-0.125
-0.13
-0.145
-0.14
-0.155
-0.18
-0.2
-0.215
-0.25
-0.29
-0.33
-0.375
-0.425
-0.455
-0.465
-0.44
-0.38
-0.27
-0.165
-0.1
-0.035
-0.015
0.0
-0.005
0.005
0.0
0.01
0.01
0.01
0.005
0.02
0.0
0.0
-0.005
0.0
-0.02
-0.01
-0.02
-0.01
-0.01
-0.005
-0.02
-0.01
-0.015
-0.015
-0.025
-0.015
0.0
0.075
0.015
0.005
-0.055
-0.02
-0.005
0.01
-0.01
0.0
-0.005
0.02
-0.01
0.025
-0.005
0.03
0.0
-0.28
-0.615
0.095
1.96
1.7
0.89
0.235
-0.16
-0.025
-0.035
-0.04
-0.075
-0.06
-0.08
-0.07
-0.105
-0.09
-0.125
-0.13
-0.165
-0.19
-0.245
-0.27
-0.325
-0.365
-0.415
-0.42
-0.425
-0.39
-0.325
-0.22
-0.135
-0.06
-0.03
-0.01
-0.01
0.0
-0.005
0.0
0.0
0.005
0.0
0.0
0.0
0.0
0.0
0.0
0.0
-0.005
0.0
0.0
0.0
0.0
0.005
0.0
0.01
0.005
0.015
0.015
0.025
0.0
0.05
0.025
0.005
0.05
0.015
-0.04
-0.045
-0.005
0.025
0.005
0.03
0.01
0.035
0.02
0.055
0.035
0.05
0.02
-0.26
-0.62
0.05
2.01
1.745
0.91
0.215
-0.125
0.005
-0.015
-0.02
-0.05
-0.04
-0.07
-0.055
-0.08
-0.085
-0.105
-0.115
-0.15
-0.165
-0.225
-0.255
-0.31
-0.355
-0.4
-0.42
-0.435
-0.4
-0.335
-0.225
-0.125
-0.055
-0.01
0.01
0.03
0.025
0.035
0.04
0.04
0.04
0.04
0.045
0.05
0.045
0.04
0.04
0.05
0.045
0.04
0.03
0.025
0.02
0.01
0.02
0.02
0.035
0.02
0.035
0.03
0.04
0.025
0.08
0.035
0.06
0.08
0.035
0.005
-0.005
0.05
0.065
0.055
0.07
0.05
0.07
0.065
0.085
0.065
0.085
0.065
-0.175
-0.63
-0.125
1.84
1.935
1.1
0.325
-0.085
0.025
0.02
0.0
-0.02
-0.01
-0.03
-0.025
-0.05
-0.05
-0.075
-0.09
-0.12
-0.145
-0.19
-0.23
-0.28
-0.32
-0.37
-0.395
-0.42
-0.415
-0.35
-0.235
-0.13
-0.035
0.01
0.035
0.065
0.07
0.07
0.08
0.085
0.08
0.09
0.08
0.085
0.085
0.085
0.085
0.08
0.07
0.07
0.065
0.065
0.065
0.06
0.065
0.065
0.075
0.065
0.07
0.06
0.065
0.065
0.07
0.06
0.075
0.015
0.1
0.065
0.02
0.0
0.03
0.07
0.085
0.06
0.085
0.07
0.1
0.07
0.095
0.07
0.1
0.045
-0.28
-0.64
0.17
2.29
1.82
0.835
0.16
-0.045
0.065
0.02
0.02
-0.015
-0.005
-0.035
-0.02
-0.055
-0.055
-0.085
-0.085
-0.135
-0.155
-0.21
-0.235
-0.29
-0.33
-0.39
-0.415
-0.44
-0.41
-0.35
-0.235
-0.125
-0.04
0.01
0.04
0.06
0.07
0.065
0.075
0.07
0.065
0.07
0.07
0.07
0.07
0.075
0.08
0.075
0.075
0.07
0.065
0.065
0.065
0.065
0.065
0.07
0.075
0.07
0.075
0.065
0.08
0.08
0.085
0.075
0.075
0.04
0.115
0.07
0.02
0.005
0.05
0.08
0.09
0.085
0.095
0.075
0.095
0.08
0.1
0.085
0.1
0.0
-0.39
-0.575
0.605
2.33
1.685
0.685
0.04
-0.005
0.07
0.02
0.015
-0.01
0.0
-0.025
-0.02
-0.045
-0.045
-0.085
-0.095
-0.135
-0.16
-0.215
-0.255
-0.315
-0.35
-0.41
-0.44
-0.465
-0.44
-0.365
-0.24
-0.125
-0.035
0.01
0.04
0.055
0.06
0.06
0.06
0.06
0.06
0.06
0.055
0.055
0.05
0.05
0.045
0.045
0.04
0.03
0.03
0.035
0.025
0.02
0.02
0.02
0.025
0.025
0.025
0.035
0.03
0.03
0.02
0.025
0.015
0.0
0.055
0.015
-0.035
-0.03
0.005
0.045
0.05
0.05
0.06
0.055
0.06
0.055
0.065
0.06
0.075
-0.095
-0.555
-0.495
1.13
2.22
1.44
0.515
-0.075
-0.015
0.01
-0.03
-0.035
-0.055
-0.06
-0.07
-0.07
-0.085
-0.1
-0.13
-0.15
-0.19
-0.22
-0.265
-0.31
-0.375
-0.41
-0.46
-0.485
-0.505
-0.465
-0.37
-0.235
-0.13
-0.04
0.01
0.04
0.055
0.065
0.07
0.07
0.06
0.065
0.065
0.06
0.05
0.045
0.045
0.045
0.035
0.035
0.045
0.025
0.03
0.025
0.045
0.03
0.035
0.035
0.045
0.035
0.045
0.035
0.045
0.025
0.035
0.0
0.045
0.045
-0.005
-0.02
-0.015
0.04
0.05
0.03
0.05
0.035
0.05
0.055
0.075
0.06
0.075
-0.01
-0.41
-0.74
0.35
2.175
1.8
0.795
0.095
-0.095
0.0
-0.02
-0.04
-0.06
-0.06
-0.085
-0.08
-0.11
-0.11
-0.15
-0.16
-0.195
-0.225
-0.27
-0.305
-0.37
-0.415
-0.45
-0.49
-0.51
-0.485
-0.405
-0.29
-0.195
-0.095
-0.05
0.0
0.015
0.02
0.025
0.025
0.035
0.03
0.025
0.025
0.02
0.015
0.01
0.015
0.01
0.02
0.0
0.0
0.0
0.0
0.0
0.01
0.005
0.025
-0.015
-0.015
-0.015
0.045
-0.015
-0.065
-0.035
0.0
0.005
0.015
0.0
0.01
0.0
0.025
0.0
0.02
0.01
0.02
0.0
-0.27
-0.685
-0.465
1.685
1.975
1.14
0.42
-0.19
-0.08
-0.045
-0.06
-0.09
-0.1
-0.13
-0.115
-0.16
-0.145
-0.175
-0.195
-0.225
-0.24
-0.31
-0.335
-0.39
-0.425
-0.485
-0.505
-0.54
-0.54
-0.475
-0.37
-0.23
-0.155
-0.095
-0.065
-0.03
-0.045
-0.035
-0.025
-0.02
-0.04
-0.03
-0.035
-0.045
-0.06
-0.035
-0.045
-0.045
-0.075
-0.055
-0.08
-0.065
-0.06
-0.06
-0.05
-0.05
-0.055
-0.04
-0.06
-0.07
-0.1
-0.01
0.005
-0.045
-0.11
-0.06
-0.075
-0.035
-0.055
-0.04
-0.04
-0.03
-0.045
-0.025
-0.05
-0.045
-0.05
-0.255
-0.645
-0.465
1.38
1.74
1.11
0.415
-0.2
-0.15
-0.105
-0.105
-0.14
-0.135
-0.16
-0.15
-0.19
-0.165
-0.2
-0.21
-0.24
-0.245
-0.305
-0.325
-0.375
-0.41
-0.46
-0.465
-0.495
-0.475
-0.42
-0.32
-0.225
-0.14
-0.09
-0.07
-0.065
-0.035
-0.035
-0.03
-0.04
-0.025
-0.03
-0.03
-0.03
-0.025
-0.03
-0.03
-0.03
-0.04
-0.035
-0.035
-0.025
-0.025
-0.03
-0.03
-0.015
-0.02
-0.01
-0.03
-0.02
-0.035
0.035
0.04
-0.01
-0.06
-0.01
-0.025
0.01
-0.02
-0.01
-0.015
-0.005
-0.015
0.005
-0.005
0.015
0.0
-0.27
-0.62
0.025
1.965
1.7
0.925
0.24
-0.195
-0.06
-0.045
-0.06
-0.085
-0.085
-0.1
-0.095
-0.1
-0.105
-0.13
-0.125
-0.15
-0.175
-0.21
-0.24
-0.275
-0.31
-0.345
-0.365
-0.36
-0.335
-0.265
-0.175
-0.1
-0.04
-0.005
0.005
0.01
0.01
0.015
0.01
0.02
0.02
0.025
0.025
0.025
0.015
0.02
0.015
0.02
0.0
0.02
0.0
0.01
0.0
0.01
0.0
0.015
0.0
0.015
0.0
0.015
-0.005
0.02
-0.005
0.035
0.0
0.0
0.045
0.05
-0.04
-0.025
-0.03
0.045
0.025
0.05
0.02
0.065
0.03
0.065
0.035
0.075
0.03
-0.235
-0.645
0.085
2.185
1.825
0.945
0.205
-0.105
0.04
0.0
0.0
-0.04
-0.015
-0.05
-0.03
-0.06
-0.05
-0.085
-0.08
-0.135
-0.14
-0.195
-0.215
-0.28
-0.3
-0.365
-0.375
-0.4
-0.365
-0.325
-0.21
-0.125
-0.035
0.0
0.035
0.04
0.055
0.05
0.06
0.05
0.06
0.055
0.06
0.055
0.065
0.065
0.07
0.055
0.055
0.045
0.05
0.045
0.05
0.045
0.045
0.035
0.04
0.03
0.035
0.035
0.04
0.035
0.055
0.03
0.035
0.025
0.01
0.04
0.03
-0.015
-0.02
0.03
0.065
0.06
0.07
0.075
0.075
0.08
0.08
0.085
0.085
0.085
-0.055
-0.5
-0.33
1.19
2.19
1.44
0.505
-0.055
0.025
0.055
0.01
0.0
-0.01
-0.03
-0.045
-0.06
-0.07
-0.095
-0.11
-0.135
-0.16
-0.195
-0.24
-0.29
-0.335
-0.39
-0.425
-0.455
-0.455
-0.43
-0.335
-0.22
-0.11
-0.04
0.005
0.025
0.04
0.04
0.05
0.045
0.055
0.045
0.05
0.045
0.05
0.04
0.045
0.04
0.055
0.035
0.045
0.025
0.035
0.025
0.04
0.03
0.04
0.03
0.045
0.025
0.045
0.03
0.05
0.035
0.045
-0.015
0.03
-0.005
0.035
0.015
-0.02
-0.04
0.02
0.055
0.075
0.05
0.085
0.06
0.09
0.065
0.09
0.07
0.105
0.075
-0.175
-0.675
-0.11
2.035
2.03
1.075
0.29
-0.09
0.04
0.0
-0.005
-0.04
-0.025
-0.06
-0.045
-0.08
-0.075
-0.125
-0.115
-0.165
-0.165
-0.23
-0.255
-0.33
-0.36
-0.43
-0.45
-0.495
-0.475
-0.45
-0.325
-0.215
-0.095
-0.04
0.005
0.02
0.045
0.045
0.05
0.04
0.05
0.035
0.045
0.04
0.04
0.035
0.035
0.03
0.035
0.025
0.03
0.015
0.025
0.02
0.03
0.03
0.04
0.025
0.03
0.02
0.025
0.025
0.025
0.01
-0.03
0.0
-0.02
-0.025
-0.015
-0.08
-0.045
-0.04
0.03
0.03
0.05
0.045
0.06
0.05
0.06
0.06
0.065
0.06
0.065
-0.145
-0.595
-0.4
1.465
2.2
1.325
0.44
-0.1
-0.015
0.005
-0.035
-0.045
-0.06
-0.06
-0.08
-0.085
-0.11
-0.12
-0.155
-0.165
-0.215
-0.235
-0.295
-0.335
-0.39
-0.43
-0.485
-0.5
-0.52
-0.475
-0.39
-0.25
-0.145
-0.06
-0.015
0.02
0.02
0.045
0.04
0.05
0.035
0.045
0.04
0.05
0.035
0.045
0.03
0.04
0.025
0.03
0.025
0.03
0.02
0.02
0.015
0.02
0.015
0.03
0.02
0.02
0.015
0.04
0.035
0.015
-0.01
0.005
-0.025
0.01
0.0
-0.04
-0.045
0.015
0.045
0.05
0.045
0.05
0.06
0.065
0.06
0.075
0.065
0.07
-0.155
-0.62
-0.445
1.485
2.215
1.325
0.455
-0.1
-0.01
0.015
-0.03
-0.035
-0.055
-0.06
-0.085
-0.09
-0.11
-0.115
-0.15
-0.16
-0.2
-0.23
-0.28
-0.32
-0.375
-0.41
-0.465
-0.485
-0.5
-0.45
-0.37
-0.245
-0.15
-0.06
-0.02
0.015
0.025
0.04
0.03
0.045
0.04
0.045
0.03
0.04
0.025
0.025
0.015
0.015
0.02
0.03
0.02
0.03
0.03
0.03
0.025
0.025
0.025
0.015
0.02
0.01
0.005
-0.035
0.035
0.015
-0.06
-0.03
-0.01
0.03
0.035
0.03
0.04
0.03
0.045
0.035
0.05
0.04
0.05
0.02
-0.305
-0.785
-0.155
2.12
2.04
1.01
0.26
-0.095
0.015
0.0
-0.025
-0.055
-0.06
-0.075
-0.08
-0.105
-0.12
-0.145
-0.17
-0.195
-0.225
-0.26
-0.31
-0.365
-0.41
-0.455
-0.495
-0.51
-0.505
-0.435
-0.33
-0.2
-0.11
-0.04
-0.01
0.02
0.02
0.035
0.03
0.045
0.04
0.04
0.035
0.045
0.04
0.045
0.035
0.04
0.03
0.04
0.03
0.03
0.03
0.03
0.03
0.04
0.045
0.035
0.035
0.025
0.015
-0.01
0.04
0.055
-0.05
-0.035
0.005
0.04
0.055
0.05
0.06
0.06
0.08
0.065
0.08
0.07
0.085
0.01
-0.385
-0.775
0.22
2.27
1.875
0.84
0.12
-0.05
0.035
-0.01
-0.035
-0.06
-0.065
-0.085
-0.09
-0.105
-0.12
-0.145
-0.16
-0.19
-0.225
-0.27
-0.33
-0.375
-0.435
-0.475
-0.515
-0.52
-0.515
-0.43
-0.325
-0.2
-0.115
-0.045
-0.015
0.02
0.015
0.03
0.02
0.03
0.015
0.035
0.02
0.035
0.025
0.035
0.015
0.03
0.01
0.02
0.005
0.025
0.005
0.03
0.01
0.035
0.01
0.025
0.0
0.01
-0.035
0.035
0.025
-0.045
-0.065
0.005
0.025
0.055
0.025
0.07
0.04
0.085
0.05
0.085
0.04
0.085
-0.015
-0.39
-0.775
0.335
2.265
1.81
0.795
0.11
-0.045
0.06
-0.01
-0.005
-0.05
-0.035
-0.07
-0.055
-0.105
-0.095
-0.15
-0.145
-0.205
-0.22
-0.285
-0.31
-0.385
-0.415
-0.48
-0.495
-0.53
-0.485
-0.43
-0.29
-0.185
-0.07
-0.025
0.02
0.025
0.05
0.035
0.055
0.04
0.05
0.045
0.05
0.03
0.045
0.03
0.045
0.03
0.045
0.025
0.04
0.025
0.04
0.025
0.04
0.03
0.04
0.03
0.04
0.015
0.015
-0.01
0.065
-0.005
-0.07
-0.005
0.025
0.055
0.07
0.055
0.085
0.075
0.095
0.08
0.09
0.075
0.095
-0.1
-0.555
-0.575
1.195
2.26
1.49
0.585
-0.03
0.005
0.045
-0.01
-0.01
-0.04
-0.035
-0.07
-0.065
-0.105
-0.105
-0.135
-0.15
-0.2
-0.215
-0.28
-0.31
-0.385
-0.42
-0.475
-0.49
-0.515
-0.455
-0.375
-0.235
-0.135
-0.04
0.0
0.035
0.03
0.055
0.045
0.055
0.035
0.05
0.03
0.04
0.025
0.035
0.02
0.03
0.015
0.025
0.01
0.02
0.005
0.02
0.01
0.02
0.01
0.02
0.01
0.01
-0.005
-0.01
0.015
0.055
-0.05
-0.075
-0.015
0.03
0.025
0.045
0.035
0.055
0.045
0.065
0.05
0.07
0.06
0.075
-0.125
-0.585
-0.57
1.245
2.25
1.455
0.545
-0.055
0.005
0.03
-0.025
-0.03
-0.055
-0.05
-0.08
-0.075
-0.105
-0.12
-0.165
-0.165
-0.21
-0.235
-0.295
-0.335
-0.4
-0.43
-0.49
-0.495
-0.515
-0.465
-0.395
-0.255
-0.16
-0.07
-0.035
0.005
0.005
0.02
0.005
0.02
0.0
0.02
0.005
0.015
0.0
0.01
-0.01
0.0
-0.01
0.0
-0.02
0.0
-0.01
0.01
-0.005
0.01
0.0
0.015
0.0
0.005
-0.025
-0.015
-0.04
0.03
-0.045
-0.105
-0.05
0.0
0.015
0.04
0.02
0.055
0.025
0.06
0.03
0.065
0.035
0.07
-0.04
-0.44
-0.765
0.445
2.28
1.77
0.75
0.065
-0.045
0.035
-0.03
-0.025
-0.07
-0.055
-0.09
-0.08
-0.12
-0.115
-0.16
-0.165
-0.215
-0.225
-0.295
-0.315
-0.39
-0.415
-0.485
-0.495
-0.535
-0.495
-0.43
-0.29
-0.18
-0.08
-0.035
0.01
0.02
0.04
0.03
0.045
0.03
0.035
0.03
0.04
0.02
0.03
0.015
0.025
0.02
0.025
0.015
0.02
0.01
0.02
0.015
0.02
0.01
0.02
0.015
0.01
-0.005
-0.025
-0.005
0.035
-0.05
-0.105
-0.035
0.0
0.02
0.02
0.02
0.04
0.04
0.045
0.04
0.055
0.05
0.055
-0.195
-0.675
-0.49
1.57
2.195
1.295
0.45
-0.105
-0.005
0.005
-0.035
-0.055
-0.075
-0.08
-0.1
-0.105
-0.135
-0.14
-0.17
-0.195
-0.23
-0.265
-0.315
-0.345
-0.415
-0.445
-0.495
-0.52
-0.53
-0.47
-0.38
-0.245
-0.15
-0.06
-0.035
0.0
0.0
0.025
0.02
0.03
0.02
0.025
0.01
0.02
0.01
0.025
0.005
0.015
0.005
0.025
0.0
0.02
0.0
0.02
0.005
0.02
0.0
0.025
0.0
0.005
-0.045
0.035
0.0
-0.06
-0.095
-0.005
0.015
0.045
0.015
0.055
0.03
0.065
0.04
0.075
0.045
0.075
0.0
-0.38
-0.83
0.12
2.22
1.895
0.855
0.15
-0.065
0.035
-0.03
-0.025
-0.07
-0.055
-0.095
-0.08
-0.125
-0.125
-0.17
-0.175
-0.225
-0.245
-0.31
-0.33
-0.405
-0.435
-0.505
-0.52
-0.56
-0.515
-0.455
-0.32
-0.215
-0.1
-0.055
-0.005
-0.005
0.025
0.02
0.035
0.02
0.035
0.025
0.03
0.02
0.03
0.01
0.025
0.01
0.03
0.02
0.025
0.01
0.03
0.01
0.03
0.02
0.03
0.01
0.015
-0.01
-0.005
0.03
-0.005
-0.115
-0.015
0.0
0.05
0.03
0.05
0.035
0.06
0.045
0.06
0.05
0.06
0.05
-0.185
-0.695
-0.475
1.565
2.19
1.295
0.475
-0.1
0.025
0.005
-0.01
-0.045
-0.04
-0.075
-0.07
-0.1
-0.105
-0.135
-0.15
-0.19
-0.205
-0.25
-0.285
-0.35
-0.39
-0.45
-0.475
-0.515
-0.505
-0.47
-0.355
-0.245
-0.13
-0.06
-0.005
0.015
0.035
0.035
0.05
0.04
0.055
0.04
0.05
0.035
0.055
0.035
0.045
0.03
0.04
0.035
0.05
0.035
0.055
0.035
0.05
0.03
0.06
0.035
0.055
0.025
0.04
-0.005
0.06
0.045
-0.025
-0.06
0.025
0.04
0.075
0.05
0.075
0.06
0.095
0.075
0.1
0.075
0.1
0.07
-0.205
-0.745
-0.31
1.895
2.185
1.2
0.405
-0.08
0.05
0.015
0.0
-0.03
-0.02
-0.055
-0.045
-0.08
-0.08
-0.12
-0.125
-0.18
-0.19
-0.245
-0.275
-0.335
-0.37
-0.435
-0.455
-0.495
-0.48
-0.45
-0.33
-0.225
-0.11
-0.045
0.01
0.025
0.045
0.04
0.05
0.045
0.05
0.04
0.055
0.045
0.045
0.035
0.045
0.03
0.04
0.03
0.04
0.025
0.035
0.025
0.04
0.03
0.04
0.025
0.04
0.03
0.035
0.015
0.02
-0.025
0.045
0.03
-0.045
-0.035
0.0
0.02
0.045
0.03
0.045
0.045
0.07
0.06
0.075
0.06
0.075
0.07
-0.135
-0.645
-0.5
1.425
2.27
1.405
0.51
-0.09
0.015
0.01
-0.015
-0.04
-0.05
-0.065
-0.07
-0.085
-0.095
-0.125
-0.14
-0.18
-0.2
-0.245
-0.28
-0.34
-0.385
-0.43
-0.46
-0.495
-0.49
-0.46
-0.36
-0.245
-0.125
-0.055
0.01
0.025
0.055
0.045
0.06
0.05
0.065
0.05
0.06
0.05
0.05
0.04
0.05
0.03
0.05
0.04
0.055
0.04
0.045
0.03
0.045
0.03
0.045
0.025
0.045
0.03
0.04
0.01
0.025
-0.02
0.055
0.0
-0.075
-0.02
0.005
0.04
0.055
0.035
0.06
0.045
0.075
0.05
0.07
0.045
0.075
0.045
-0.225
-0.75
-0.335
1.875
2.195
1.205
0.4
-0.09
0.03
0.0
-0.01
-0.045
-0.035
-0.065
-0.05
-0.08
-0.075
-0.115
-0.115
-0.16
-0.18
-0.235
-0.265
-0.33
-0.37
-0.435
-0.455
-0.495
-0.49
-0.45
-0.345
-0.23
-0.11
-0.05
0.0
0.025
0.045
0.04
0.055
0.045
0.05
0.045
0.05
0.045
0.04
0.03
0.03
0.02
0.02
0.01
0.02
0.015
0.025
0.02
0.03
0.02
0.03
0.03
0.035
0.03
0.035
0.01
0.01
-0.005
0.0
0.065
-0.04
-0.055
0.005
0.025
0.055
0.05
0.05
0.065
0.06
0.07
0.065
0.075
0.07
0.075
-0.035
-0.48
-0.7
0.67
2.32
1.7
0.695
0.0
-0.03
0.01
-0.035
-0.055
-0.075
-0.08
-0.095
-0.1
-0.125
-0.145
-0.165
-0.19
-0.22
-0.255
-0.3
-0.345
-0.395
-0.445
-0.49
-0.52
-0.535
-0.515
-0.44
-0.33
-0.205
-0.12
-0.05
-0.025
0.0
0.01
0.02
0.01
0.02
0.015
0.025
0.01
0.02
0.015
0.02
0.0
0.015
0.005
0.025
0.02
0.025
0.01
0.02
0.015
0.025
0.005
0.015
-0.005
-0.005
-0.05
0.025
0.025
-0.06
-0.095
-0.01
0.015
0.045
0.03
0.06
0.04
0.07
0.045
0.07
0.05
0.075
0.04
-0.225
-0.755
-0.365
1.835
2.16
1.18
0.375
-0.12
0.005
-0.02
-0.035
-0.07
-0.065
-0.1
-0.09
-0.12
-0.135
-0.17
-0.18
-0.215
-0.225
-0.275
-0.31
-0.375
-0.415
-0.475
-0.5
-0.535
-0.52
-0.48
-0.365
-0.25
-0.125
-0.06
-0.005
0.015
0.035
0.035
0.035
0.025
0.035
0.025
0.03
0.015
0.02
0.01
0.02
0.01
0.02
0.01
0.02
0.01
0.02
0.005
0.02
0.01
0.025
0.005
0.025
0.005
0.005
-0.035
0.03
0.025
-0.05
-0.09
-0.005
0.015
0.04
0.025
0.05
0.045
0.075
0.055
0.08
0.06
0.085
0.065
-0.215
-0.745
-0.335
1.86
2.185
1.2
0.39
-0.09
0.035
0.0
-0.01
-0.04
-0.04
-0.065
-0.065
-0.095
-0.095
-0.135
-0.145
-0.19
-0.205
-0.265
-0.305
-0.365
-0.41
-0.465
-0.495
-0.53
-0.51
-0.48
-0.37
-0.25
-0.14
-0.06
-0.005
0.01
0.03
0.025
0.035
0.035
0.035
0.03
0.035
0.035
0.03
0.02
0.015
0.02
0.02
0.015
0.02
0.03
0.025
0.025
0.03
0.03
0.02
0.035
0.025
0.025
0.0
0.0
-0.025
0.05
0.0
-0.085
-0.03
0.01
0.055
0.055
0.05
0.07
0.055
0.08
0.07
0.08
0.075
0.09
0.03
-0.365
-0.775
0.155
2.285
1.96
0.925
0.175
-0.035
0.055
0.0
-0.005
-0.035
-0.035
-0.06
-0.065
-0.095
-0.095
-0.13
-0.14
-0.18
-0.21
-0.26
-0.29
-0.34
-0.395
-0.45
-0.48
-0.5
-0.475
-0.425
-0.295
-0.175
-0.085
-0.02
0.015
0.05
0.055
0.055
0.05
0.06
0.06
0.055
0.05
0.05
0.055
0.06
0.045
0.045
0.045
0.035
0.035
0.035
0.04
0.04
0.035
0.045
0.035
0.035
0.035
0.02
0.02
-0.01
0.06
0.02
-0.05
-0.05
0.0
0.05
0.05
0.04
0.065
0.05
0.06
0.06
0.07
0.055
0.075
0.06
-0.205
-0.675
-0.495
1.69
2.115
1.275
0.465
-0.14
-0.04
-0.01
-0.025
-0.06
-0.055
-0.075
-0.085
-0.115
-0.115
-0.145
-0.16
-0.18
-0.215
-0.24
-0.275
-0.335
-0.37
-0.4
-0.445
-0.475
-0.475
-0.435
-0.32
-0.215
-0.12
-0.055
-0.03
-0.005
0.0
0.01
0.015
0.01
-0.005
-0.005
-0.02
-0.01
-0.015
-0.015
-0.035
-0.025
-0.04
-0.04
-0.055
-0.045
-0.065
-0.045
-0.065
-0.06
-0.07
-0.06
-0.08
-0.07
-0.1
-0.11
-0.055
-0.035
-0.12
-0.175
-0.12
-0.09
-0.1
-0.075
-0.085
-0.07
-0.085
-0.065
-0.08
-0.085
-0.085
-0.06
-0.145
-0.535
-0.765
0.27
1.845
1.65
0.665
0.005
-0.255
-0.145
-0.115
-0.145
-0.16
-0.18
-0.195
-0.18
-0.215
-0.22
-0.25
-0.245
-0.265
-0.31
-0.35
-0.36
-0.43
-0.46
-0.51
-0.545
-0.535
-0.535
-0.44
-0.34
-0.24
-0.16
-0.11
-0.08
-0.08
-0.045
-0.075
-0.04
-0.045
-0.045
-0.05
-0.065
-0.055
-0.055
-0.07
-0.06
-0.065
-0.075
-0.09
-0.075
-0.08
-0.075
-0.09
-0.075
-0.11
-0.065
-0.105
-0.105
-0.125
-0.14
-0.11
-0.025
-0.095
-0.165
-0.14
-0.135
-0.11
-0.09
-0.13
-0.075
-0.11
-0.1
-0.115
-0.07
-0.1
-0.075
-0.115
-0.42
-0.72
-0.155
1.67
1.615
0.785
0.19
-0.31
-0.18
-0.15
-0.16
-0.175
-0.185
-0.195
-0.2
-0.22
-0.225
-0.245
-0.245
-0.28
-0.29
-0.33
-0.355
-0.4
-0.435
-0.48
-0.49
-0.515
-0.49
-0.425
-0.32
-0.235
-0.17
-0.135
-0.09
-0.09
-0.08
-0.08
-0.08
-0.075
-0.06
-0.07
-0.075
-0.075
-0.05
-0.065
-0.07
-0.07
-0.06
-0.075
-0.08
-0.085
-0.075
-0.075
-0.07
-0.07
-0.075
-0.065
-0.065
-0.055
-0.065
-0.06
-0.045
-0.045
-0.05
-0.015
-0.035
-0.01
-0.005
-0.05
-0.07
-0.075
-0.015
-0.025
-0.025
-0.02
-0.02
-0.015
-0.01
-0.01
-0.01
0.0
-0.13
-0.51
-0.315
1.095
1.8
1.195
0.46
-0.115
-0.115
-0.035
-0.06
-0.07
-0.08
-0.09
-0.09
-0.09
-0.1
-0.11
-0.125
-0.15
-0.17
-0.2
-0.23
-0.27
-0.3
-0.335
-0.36
-0.37
-0.375
-0.335
-0.245
-0.155
-0.07
-0.03
0.005
0.02
0.025
0.03
0.025
0.03
0.035
0.035
0.035
0.035
0.035
0.03
0.03
0.02
0.03
0.03
0.035
0.025
0.03
0.02
0.025
0.015
0.03
0.02
0.035
0.015
0.03
0.02
0.035
0.03
0.02
0.03
0.04
0.0
0.06
0.025
0.0
-0.035
0.025
0.035
0.065
0.035
0.07
0.045
0.075
0.055
0.09
0.065
0.095
0.01
-0.335
-0.46
0.585
2.27
1.6
0.675
0.05
-0.035
0.075
0.015
0.025
-0.01
0.0
-0.03
-0.02
-0.05
-0.045
-0.085
-0.085
-0.135
-0.15
-0.2
-0.225
-0.29
-0.32
-0.375
-0.395
-0.41
-0.38
-0.315
-0.205
-0.105
-0.025
0.015
0.045
0.055
0.06
0.065
0.065
0.06
0.065
0.065
0.065
0.06
0.065
0.065
0.07
0.065
0.065
0.06
0.055
0.05
0.045
0.05
0.045
0.045
0.05
0.045
0.05
0.04
0.045
0.045
0.045
0.02
0.025
0.02
0.01
0.03
0.0
0.0
-0.02
0.035
0.06
0.07
0.055
0.075
0.07
0.08
0.075
0.095
0.09
0.1
-0.05
-0.48
-0.33
1.16
2.205
1.445
0.51
-0.04
0.02
0.06
0.015
0.01
-0.01
-0.01
-0.03
-0.04
-0.065
-0.075
-0.1
-0.12
-0.155
-0.185
-0.235
-0.27
-0.325
-0.365
-0.41
-0.44
-0.465
-0.425
-0.35
-0.22
-0.11
-0.025
0.02
0.05
0.06
0.07
0.065
0.075
0.07
0.07
0.08
0.075
0.08
0.08
0.075
0.075
0.075
0.065
0.07
0.06
0.06
0.07
0.065
0.05
0.065
0.06
0.065
0.05
0.07
0.06
0.075
0.06
0.045
-0.005
0.035
0.0
0.03
0.005
-0.005
-0.02
0.035
0.065
0.09
0.065
0.095
0.075
0.1
0.08
0.1
0.075
0.105
0.05
-0.27
-0.68
0.15
2.275
1.885
0.91
0.175
-0.065
0.055
0.015
0.01
-0.015
-0.015
-0.05
-0.05
-0.09
-0.08
-0.115
-0.12
-0.15
-0.175
-0.235
-0.265
-0.32
-0.355
-0.42
-0.45
-0.47
-0.475
-0.44
-0.32
-0.215
-0.095
-0.05
-0.005
0.01
0.03
0.035
0.035
0.04
0.03
0.03
0.035
0.035
0.025
0.025
0.025
0.02
0.01
0.005
0.005
0.0
-0.01
0.005
-0.01
0.0
-0.01
0.005
-0.015
0.0
-0.005
-0.015
-0.05
-0.045
-0.075
-0.02
-0.06
-0.095
-0.1
-0.035
-0.025
0.0
-0.015
0.005
-0.005
0.01
-0.01
0.005
-0.01
0.01
-0.04
-0.395
-0.77
0.0
2.025
1.805
0.85
0.145
-0.22
-0.095
-0.085
-0.095
-0.11
-0.095
-0.125
-0.125
-0.155
-0.14
-0.185
-0.2
-0.23
-0.25
-0.3
-0.325
-0.38
-0.41
-0.465
-0.5
-0.515
-0.505
-0.445
-0.32
-0.23
-0.135
-0.09
-0.055
-0.04
-0.025
-0.03
-0.02
-0.025
-0.03
-0.03
-0.03
-0.03
-0.03
-0.035
-0.035
-0.04
-0.035
-0.045
-0.035
-0.05
-0.03
-0.03
-0.03
-0.035
-0.03
-0.04
-0.04
-0.07
0.01
-0.005
-0.065
-0.075
-0.05
-0.02
-0.02
-0.025
-0.02
-0.02
-0.01
-0.005
0.0
0.0
0.0
0.0
-0.135
-0.55
-0.435
1.135
1.925
1.345
0.495
-0.12
-0.105
-0.04
-0.065
-0.08
-0.08
-0.09
-0.095
-0.1
-0.115
-0.13
-0.145
-0.16
-0.19
-0.215
-0.25
-0.295
-0.335
-0.385
-0.415
-0.445
-0.435
-0.395
-0.3
-0.19
-0.095
-0.035
0.005
0.015
0.025
0.025
0.035
0.025
0.03
0.03
0.04
0.035
0.035
0.035
0.025
0.03
0.025
0.03
0.025
0.035
0.025
0.03
0.02
0.03
0.02
0.035
0.015
0.01
0.0
0.005
0.005
0.075
0.005
-0.025
0.0
0.005
0.04
0.055
0.03
0.06
0.04
0.07
0.05
0.07
0.05
0.085
0.005
-0.33
-0.585
0.36
2.2
1.705
0.775
0.12
-0.06
0.05
0.015
0.01
-0.01
-0.005
-0.03
-0.02
-0.045
-0.045
-0.075
-0.08
-0.125
-0.14
-0.195
-0.225
-0.28
-0.32
-0.365
-0.39
-0.415
-0.4
-0.33
-0.22
-0.11
-0.035
0.02
0.05
0.06
0.065
0.07
0.065
0.07
0.07
0.08
0.085
0.09
0.085
0.08
0.08
0.085
0.08
0.085
0.075
0.08
0.075
0.075
0.075
0.075
0.07
0.075
0.075
0.085
0.075
0.085
0.08
0.065
0.07
0.04
0.085
0.085
0.02
0.02
0.015
0.085
0.07
0.07
0.08
0.08
0.075
0.075
0.085
0.075
0.07
-0.11
-0.575
-0.32
1.375
2.1
1.345
0.45
-0.075
0.015
0.045
0.0
-0.015
-0.03
-0.035
-0.045
-0.055
-0.075
-0.09
-0.105
-0.13
-0.16
-0.19
-0.22
-0.28
-0.325
-0.38
-0.415
-0.445
-0.45
-0.43
-0.33
-0.215
-0.095
-0.025
0.02
0.045
0.055
0.045
0.045
0.055
0.045
0.055
0.05
0.045
0.045
0.045
0.045
0.04
0.04
0.035
0.035
0.035
0.03
0.04
0.035
0.04
0.025
0.035
0.02
0.01
-0.005
0.08
0.04
0.0
-0.03
-0.005
0.025
0.04
0.035
0.055
0.045
0.065
0.04
0.055
0.04
0.06
0.025
-0.295
-0.725
-0.055
2.145
1.95
0.975
0.235
-0.13
0.02
0.0
-0.005
-0.03
-0.025
-0.05
-0.05
-0.07
-0.08
-0.11
-0.12
-0.14
-0.17
-0.21
-0.245
-0.3
-0.345
-0.385
-0.42
-0.44
-0.43
-0.365
-0.26
-0.145
-0.055
0.005
0.035
0.05
0.055
0.06
0.06
0.065
0.065
0.07
0.065
0.065
0.065
0.065
0.055
0.055
0.045
0.06
0.055
0.055
0.06
0.06
0.055
0.045
0.04
0.025
0.095
0.07
0.03
-0.01
0.01
0.055
0.065
0.055
0.065
0.06
0.07
0.07
0.08
0.07
0.08
-0.05
-0.5
-0.52
0.925
2.22
1.535
0.59
-0.04
-0.005
0.045
0.0
-0.015
-0.025
-0.03
-0.04
-0.055
-0.075
-0.09
-0.11
-0.135
-0.165
-0.2
-0.24
-0.29
-0.34
-0.395
-0.44
-0.475
-0.485
-0.455
-0.355
-0.235
-0.12
-0.045
0.01
0.03
0.045
0.045
0.055
0.05
0.065
0.055
0.07
0.06
0.075
0.065
0.08
0.065
0.075
0.055
0.07
0.05
0.075
0.045
0.065
0.04
0.055
0.07
0.01
-0.06
0.0
0.0
0.085
0.055
0.085
0.055
0.095
0.065
0.09
0.065
0.1
0.02
-0.34
-0.715
0.285
2.29
1.8
0.79
0.09
-0.035
0.07
0.005
0.01
-0.025
-0.005
-0.05
-0.04
-0.08
-0.075
-0.115
-0.12
-0.165
-0.18
-0.245
-0.265
-0.34
-0.38
-0.45
-0.46
-0.5
-0.46
-0.4
-0.255
-0.15
-0.04
0.005
0.04
0.05
0.07
0.055
0.075
0.07
0.075
0.065
0.085
0.065
0.075
0.06
0.07
0.05
0.055
0.06
0.06
0.04
0.055
0.03
0.015
0.02
0.015
0.045
0.0
-0.08
-0.015
-0.015
0.05
0.03
0.035
0.04
0.055
0.045
0.05
0.03
0.055
0.035
-0.17
-0.655
-0.5
1.435
2.085
1.26
0.43
-0.17
-0.06
-0.03
-0.07
-0.11
-0.115
-0.135
-0.14
-0.155
-0.155
-0.19
-0.215
-0.255
-0.275
-0.31
-0.34
-0.39
-0.435
-0.485
-0.52
-0.545
-0.52
-0.485
-0.355
-0.245
-0.145
-0.075
-0.035
-0.01
0.015
0.0
0.01
0.01
0.015
0.015
0.005
0.0
-0.01
0.0
-0.015
-0.01
-0.015
-0.005
-0.025
-0.02
-0.02
-0.02
-0.05
-0.015
-0.05
-0.025
-0.03
-0.115
-0.07
-0.075
-0.035
-0.015
-0.03
-0.005
-0.025
0.005
-0.02
0.0
-0.015
0.0
-0.02
-0.305
-0.74
-0.455
1.735
1.955
1.085
0.315
-0.25
-0.125
-0.09
-0.095
-0.12
-0.125
-0.155
-0.15
-0.175
-0.175
-0.21
-0.215
-0.24
-0.265
-0.29
-0.345
-0.38
-0.425
-0.47
-0.5
-0.5
-0.5
-0.425
-0.345
-0.23
-0.15
-0.09
-0.04
-0.01
-0.015
0.015
0.0
0.0
0.005
0.0
-0.01
0.0
-0.015
-0.015
-0.01
-0.02
-0.025
-0.02
-0.03
-0.01
-0.045
-0.01
-0.025
-0.01
-0.015
-0.015
0.01
-0.035
-0.105
-0.06
-0.04
-0.005
-0.035
-0.02
-0.045
-0.005
-0.02
-0.005
-0.03
-0.01
-0.025
-0.17
-0.585
-0.515
1.125
1.835
1.33
0.53
-0.12
-0.16
-0.1
-0.095
-0.125
-0.11
-0.145
-0.135
-0.155
-0.17
-0.185
-0.19
-0.22
-0.235
-0.275
-0.305
-0.34
-0.37
-0.425
-0.46
-0.48
-0.465
-0.425
-0.32
-0.245
-0.14
-0.1
-0.045
-0.04
-0.025
-0.03
-0.005
-0.005
-0.01
-0.02
-0.01
-0.025
-0.01
-0.01
-0.015
-0.035
-0.03
-0.045
-0.025
-0.03
-0.025
-0.03
-0.05
-0.01
0.0
-0.005
0.005
-0.035
-0.105
-0.07
-0.065
-0.04
-0.04
-0.025
-0.03
-0.04
-0.055
-0.03
-0.03
-0.02
-0.035
-0.24
-0.585
-0.265
1.515
1.695
1.04
0.365
-0.155
-0.115
-0.095
-0.1
-0.12
-0.125
-0.13
-0.13
-0.155
-0.165
-0.15
-0.18
-0.22
-0.225
-0.255
-0.29
-0.325
-0.365
-0.385
-0.41
-0.425
-0.41
-0.33
-0.25
-0.16
-0.1
-0.055
-0.03
-0.025
-0.02
-0.01
-0.015
-0.01
-0.015
-0.01
-0.01
-0.025
-0.03
-0.01
-0.015
-0.03
-0.02
-0.03
-0.015
-0.015
-0.02
-0.02
-0.015
-0.045
-0.005
-0.01
0.0
-0.005
-0.085
-0.08
-0.09
-0.055
-0.035
-0.04
-0.02
-0.04
-0.025
-0.03
-0.015
-0.02
0.0
-0.04
-0.355
-0.52
0.4
1.985
1.455
0.705
0.085
-0.16
-0.04
-0.055
-0.06
-0.08
-0.085
-0.105
-0.1
-0.13
-0.12
-0.13
-0.15
-0.175
-0.195
-0.235
-0.265
-0.31
-0.35
-0.37
-0.39
-0.39
-0.37
-0.275
-0.18
-0.095
-0.055
-0.015
-0.005
0.005
0.0
0.005
0.01
0.015
0.0
0.01
0.01
0.015
0.005
0.015
0.015
0.025
0.005
0.02
0.005
0.025
0.005
0.03
0.005
0.03
0.005
0.045
0.0
0.06
0.005
0.035
0.04
0.015
-0.04
-0.02
0.02
0.05
0.015
0.045
0.01
0.06
0.03
0.065
0.03
0.07
0.02
-0.26
-0.58
0.24
2.175
1.69
0.85
0.175
-0.11
0.03
-0.01
0.0
-0.045
-0.025
-0.055
-0.03
-0.07
-0.06
-0.105
-0.095
-0.135
-0.145
-0.205
-0.215
-0.295
-0.315
-0.375
-0.38
-0.415
-0.385
-0.33
-0.21
-0.12
-0.035
0.0
0.025
0.035
0.055
0.045
0.05
0.05
0.06
0.05
0.065
0.06
0.065
0.055
0.06
0.06
0.06
0.06
0.05
0.045
0.045
0.05
0.05
0.045
0.045
0.05
0.045
0.055
0.055
0.05
0.045
0.06
0.035
0.085
0.055
0.015
-0.01
0.05
0.07
0.08
0.055
0.075
0.065
0.085
0.065
0.09
0.07
0.09
0.02
-0.325
-0.56
0.415
2.32
1.715
0.745
0.09
